time,amplitude,label
0.0,-0.016332552919372374,
4.987531172069826e-05,0.00803644440536156,
9.975062344139652e-05,0.02208407301200461,
0.00014962593516209475,0.014214439811283766,
0.00019950124688279303,0.011653793328479455,
0.00024937655860349125,0.027138961779044325,
0.0002992518703241895,0.03165349344812296,
0.00034912718204488776,0.028537353840942508,
0.00039900249376558606,0.01696934415984738,
0.0004488778054862843,0.024433061589699642,
0.0004987531172069825,-0.0013067795252168224,
0.0005486284289276808,0.013173116565869544,
0.000598503740648379,0.03810510666683528,
0.0006483790523690773,0.01749875842274627,
0.0006982543640897755,0.03201854103382243,
0.0007481296758104738,0.013314809678549509,
0.0007980049875311721,0.027893588096573954,
0.0008478802992518703,0.03187501223318316,
0.0008977556109725686,0.03240152650051621,
0.0009476309226932668,-0.017099187232617014,
0.000997506234413965,0.01787249053292679,
0.0010473815461346633,0.025924465164298915,
0.0010972568578553616,0.020502163783585492,
0.00114713216957606,0.01360008220563267,
0.001197007481296758,0.011758932528907026,
0.0012468827930174563,0.005131061098774729,
0.0012967581047381546,0.02270902199501534,
0.001346633416458853,-0.012144670889082092,
0.001396508728179551,0.0012251966892150613,
0.0014463840399002493,0.024844498046783722,
0.0014962593516209476,0.006382581873830806,
0.001546134663341646,0.02274821902032559,
0.0015960099750623442,0.004367885487741594,
0.0016458852867830423,-0.012050700850934189,
0.0016957605985037406,0.008378567519460157,
0.001745635910224439,0.009920431347787714,
0.0017955112219451373,0.019012380998714846,
0.0018453865336658353,0.013213906626850496,
0.0018952618453865336,0.012875215033279808,
0.001945137157107232,0.00509662717376785,
0.00199501246882793,0.022801746339856255,
0.0020448877805486283,0.025306654998722648,
0.0020947630922693266,0.015828727864716164,
0.002144638403990025,0.03255425656160429,
0.0021945137157107233,0.02597131335940297,
0.0022443890274314216,0.022704770086304633,
0.00229426433915212,0.020950712183826287,
0.0023441396508728177,0.038006685743617166,
0.002394014962593516,0.043186066535898446,
0.0024438902743142144,0.024484835876667714,
0.0024937655860349127,0.011208741076811241,
0.002543640897755611,0.013940168779394477,
0.0025935162094763093,0.02766110795761268,
0.0026433915211970076,0.015923981689135024,
0.002693266832917706,-0.013288474251147327,
0.002743142144638404,0.007900160611256025,
0.002793017456359102,0.019295645987442718,
0.0028428927680798004,0.00024675578238720144,
0.0028927680798004987,0.023111784582257683,
0.002942643391521197,0.017968755705523726,
0.0029925187032418953,0.009835734746894396,
0.0030423940149625936,0.0075069497211339205,
0.003092269326683292,0.022405363333687735,
0.00314214463840399,0.01339941326286535,
0.0031920199501246885,0.04808102360767548,
0.0032418952618453864,0.014679257032041548,
0.0032917705735660847,0.028351716508460766,
0.003341645885286783,0.029535814581491834,
0.0033915211970074813,0.008694569983359594,
0.0034413965087281796,0.016213286658105577,
0.003491271820448878,0.04098361400021669,
0.003541147132169576,0.013916462182439839,
0.0035910224438902745,-0.002970394231564172,
0.0036408977556109724,0.03496372058127133,
0.0036907730673316707,0.026299022258199235,
0.003740648379052369,-0.005773850749339754,
0.0037905236907730673,0.007726682033611468,
0.0038403990024937656,0.009102471899671076,
0.003890274314214464,0.00453045562749114,
0.003940149625935162,0.038838221520545266,
0.00399002493765586,0.053468041530176556,
0.004039900249376558,0.001480490411807464,
0.004089775561097257,0.0311383796465109,
0.004139650872817955,0.037073629989944054,
0.004189526184538653,-0.012236698887202187,
0.004239401496259352,-0.012282435743353519,
0.00428927680798005,0.010264406284110312,
0.004339152119700748,0.018234354494007135,
0.0043890274314214465,0.0209862699178166,
0.004438902743142145,0.028370105295879473,
0.004488778054862843,0.011450535708039057,
0.004538653366583541,0.01575351545280339,
0.00458852867830424,0.015441596868469305,
0.004638403990024938,0.003072297630510203,
0.0046882793017456355,0.012750142169633038,
0.004738154613466334,0.006556837508641373,
0.004788029925187032,0.00232855300444928,
0.00483790523690773,0.020192998678016175,
0.004887780548628429,0.010261224096598315,
0.004937655860349127,0.03425097165081166,
0.004987531172069825,-0.02453281552930987,
0.005037406483790524,0.0027118722820753532,
0.005087281795511222,-0.003181821597598753,
0.00513715710723192,0.025000854629579985,
0.0051870324189526185,0.017970486685443963,
0.005236907730673317,0.012254401544908103,
0.005286783042394015,0.022836757721666753,
0.0053366583541147134,0.01801749519328738,
0.005386533665835412,0.0036105199226741796,
0.00543640897755611,-0.0005575900300243321,
0.005486284289276808,0.019439180193938255,
0.005536159600997507,-0.0005042890389202817,
0.005586034912718204,-0.005658518006991358,
0.005635910224438902,-0.00047524571922922393,
0.005685785536159601,0.00831952884657079,
0.005735660847880299,0.005664461238246431,
0.005785536159600997,0.016162033576512864,
0.005835411471321696,0.03805786289104866,
0.005885286783042394,0.020260646909908767,
0.005935162094763092,-5.201213595296128e-05,
0.0059850374064837905,0.003925295902482329,
0.006034912718204489,0.005156024338532348,
0.006084788029925187,0.019615765428887932,
0.0061346633416458855,0.018409879250060233,
0.006184538653366584,0.02977286842085993,
0.006234413965087282,0.01902692459304594,
0.00628428927680798,0.011574441143126278,
0.006334164588528679,0.01338394673572532,
0.006384039900249377,0.0032382271899041616,
0.006433915211970074,-0.009283743544558588,
0.006483790523690773,0.007331429389853776,
0.006533665835411471,0.014599655482636986,
0.006583541147132169,0.04120388095422273,
0.006633416458852868,0.016262306339309196,
0.006683291770573566,-0.017548184551667113,
0.006733167082294264,-0.0005102278976911465,
0.0067830423940149626,0.012875533772749834,
0.006832917705735661,0.021162620280842225,
0.006882793017456359,0.0307486337620012,
0.0069326683291770575,0.015628588341265272,
0.006982543640897756,0.0009027302624864484,
0.007032418952618454,-0.017208628622871112,
0.007082294264339152,0.0010501704589539885,
0.007132169576059851,-0.024443586916079067,
0.007182044887780549,-0.026015956397619826,
0.007231920199501247,0.00424103334685385,
0.007281795511221945,0.0007006686361722483,
0.007331670822942643,0.04036202378643236,
0.007381546134663341,-0.02247592726754425,
0.00743142144638404,0.012043096755010065,
0.007481296758104738,-0.00451244437531817,
0.007531172069825436,-0.0019313171181014185,
0.007581047381546135,-0.01156955788982321,
0.007630922693266833,0.008283642589082896,
0.007680798004987531,-0.004886582657709582,
0.0077306733167082295,0.01367725078428828,
0.007780548628428928,0.004872692329249564,
0.007830423940149626,0.014893653078212018,
0.007880299251870324,0.026482084996191417,
0.007930174563591023,0.01120508575736418,
0.00798004987531172,-0.015192055255560949,
0.00802992518703242,-0.008005197468771158,
0.008079800498753117,-0.006621477469037764,
0.008129675810473816,-0.010857784702199317,
0.008179551122194513,-0.029718809853891026,
0.008229426433915213,-0.017249839515636585,
0.00827930174563591,-0.002046758580155262,
0.00832917705735661,-0.00038212575004388863,
0.008379052369077307,-0.016974400509066442,
0.008428927680798006,-0.005725431793376775,
0.008478802992518703,0.012003829308090509,
0.0085286783042394,-0.004618617223591964,
0.0085785536159601,0.0140891230698518,
0.008628428927680797,-0.01644400256520395,
0.008678304239401496,0.003775344030190167,
0.008728179551122194,-0.009056486907107668,
0.008778054862842893,0.007062034564235677,
0.00882793017456359,-0.004271544490644039,
0.00887780548628429,-0.015029196681639857,
0.008927680798004987,0.002299263483141572,
0.008977556109725686,-0.02541251390999883,
0.009027431421446384,0.01405317480481844,
0.009077306733167083,-0.0280058085952155,
0.00912718204488778,-0.002394806998379734,
0.00917705735660848,0.015512323011474935,
0.009226932668329177,-0.015303333889092094,
0.009276807980049876,-0.004142839779216685,
0.009326683291770574,-0.01728224423046537,
0.009376558603491271,0.02253308788677897,
0.00942643391521197,0.012039311272114956,
0.009476309226932668,0.002839568947064072,
0.009526184538653367,-0.042240876910658684,
0.009576059850374064,-0.015286236577444327,
0.009625935162094763,-0.01624428471347097,
0.00967581047381546,-0.024204243724718886,
0.00972568578553616,0.008506199570899754,
0.009775561097256857,-0.018781644237479113,
0.009825436408977557,-0.00894990696566663,
0.009875311720698254,-0.0023404068726528126,
0.009925187032418953,-0.037486456422949996,
0.00997506234413965,-0.018138668555645797,
0.01002493765586035,-0.018580439609781334,
0.010074812967581047,0.0005208942761475311,
0.010124688279301746,-0.032919840001380825,
0.010174563591022444,0.010774274485641545,
0.010224438902743141,-0.025128194278424318,
0.01027431421446384,-0.012355112986807255,
0.010324189526184538,-0.029068451585042905,
0.010374064837905237,0.014624141489162126,
0.010423940149625935,-0.02510240604383297,
0.010473815461346634,0.012409528675860246,
0.010523690773067331,-0.01410849821382134,
0.01057356608478803,-0.024917313468549827,
0.010623441396508728,-0.023092869744328944,
0.010673316708229427,-0.013515014093384192,
0.010723192019950124,-0.0006632835733940533,
0.010773067331670824,-0.00749830578216065,
0.010822942643391521,-0.00829400198774444,
0.01087281795511222,0.000868294829389965,
0.010922693266832918,-0.011089145351162519,
0.010972568578553617,0.0026784222896422266,
0.011022443890274314,-0.011956254764562512,
0.011072319201995013,-0.01582233483034364,
0.01112219451371571,-0.018034891781933376,
0.011172069825436408,0.011960779409597062,
0.011221945137157107,-0.00474654133122614,
0.011271820448877805,-0.0013545954387931755,
0.011321695760598504,-0.024639133453514952,
0.011371571072319201,-0.01782001498639714,
0.0114214463840399,0.008961652050282817,
0.011471321695760598,-0.01649328022546127,
0.011521197007481297,-0.01871903367139427,
0.011571072319201995,-0.03172412195334526,
0.011620947630922694,-0.021529290605523027,
0.011670822942643391,0.009746672952204383,
0.01172069825436409,-0.021948513102853978,
0.011770573566084788,-0.012676809567906707,
0.011820448877805487,-0.0365088909399337,
0.011870324189526184,-0.032014218853942976,
0.011920199501246884,-0.01834178486919277,
0.011970074812967581,-0.03547906018184321,
0.012019950124688279,-0.017906806828182496,
0.012069825436408978,0.0001832871008021278,
0.012119700748129675,0.0027277726238829347,
0.012169576059850374,-0.02857354979006708,
0.012219451371571072,-0.016764132722197275,
0.012269326683291771,-0.0250762872903977,
0.012319201995012468,-0.014968332488977271,
0.012369077306733168,-0.026281902578633658,
0.012418952618453865,-0.03165873523542439,
0.012468827930174564,-0.037369603657287295,
0.012518703241895262,-0.03176950658463654,
0.01256857855361596,-0.03630638355840096,
0.012618453865336658,-0.050814820476362633,
0.012668329177057357,-0.04811373086789957,
0.012718204488778055,-0.01895406452369234,
0.012768079800498754,-0.006233056179821901,
0.012817955112219451,-0.017843632730855923,
0.012867830423940149,-0.016717159448073858,
0.012917705735660848,-0.009699357739693607,
0.012967581047381545,-0.016419762146422778,
0.013017456359102245,-0.03428858767244067,
0.013067331670822942,-0.029479234938085973,
0.013117206982543641,-0.019459384187973307,
0.013167082294264339,-0.02485126878386221,
0.013216957605985038,-0.019578915981995855,
0.013266832917705735,-0.012771507921787127,
0.013316708229426434,0.007514021688301915,
0.013366583541147132,0.00734729588546915,
0.013416458852867831,-0.006953923133707966,
0.013466334164588529,-0.06005885933683635,
0.013516209476309228,-0.004347680130822618,
0.013566084788029925,-0.024358802068615407,
0.013615960099750624,-0.029419140045028894,
0.013665835411471322,0.008397306695483248,
0.01371571072319202,0.002770203846450752,
0.013765586034912718,-0.03595182224731232,
0.013815461346633416,-0.029436655152202673,
0.013865336658354115,-0.02352000037378976,
0.013915211970074812,-0.023107167408501404,
0.013965087281795512,-0.03192704752310891,
0.014014962593516209,-0.00913117248044969,
0.014064837905236908,-0.012492177668400484,
0.014114713216957606,-0.020883009298125803,
0.014164588528678305,-0.009052378758968941,
0.014214463840399002,-0.011096955137313153,
0.014264339152119701,-0.008030597488257463,
0.014314214463840399,-0.015631015369566837,
0.014364089775561098,-0.012843947636281229,
0.014413965087281795,-0.005143909636886275,
0.014463840399002495,-0.011956349800001223,
0.014513715710723192,-0.021050388693462648,
0.01456359102244389,0.020764049458451853,
0.014613466334164589,-0.009368542522781957,
0.014663341645885286,-0.028159033901691676,
0.014713216957605985,0.003901590773699124,
0.014763092269326683,-0.03429101472483248,
0.014812967581047382,-0.006902839047980449,
0.01486284289276808,-0.021991926087119185,
0.014912718204488778,-0.010021110077022916,
0.014962593516209476,-0.03151075588379567,
0.015012468827930175,-0.007920680583581963,
0.015062344139650873,0.005021698609197036,
0.015112219451371572,-0.009260838920785839,
0.01516209476309227,-0.031185386930994582,
0.015211970074812968,-0.03427441701281771,
0.015261845386533666,-0.024628143952251116,
0.015311720698254365,-0.0043362088345571415,
0.015361596009975062,-0.01648475273298862,
0.01541147132169576,-0.015374252490763027,
0.015461346633416459,0.0018862315736575472,
0.015511221945137156,-0.015265386570874263,
0.015561097256857856,0.023263022901390793,
0.015610972568578553,0.007108518824044646,
0.015660847880299252,-0.006550160187521655,
0.01571072319201995,0.003584355232602636,
0.015760598503740647,-0.008510582795514959,
0.015810473815461346,-0.013132328192402612,
0.015860349127182045,0.009483820865322184,
0.015910224438902745,-0.011861308749656203,
0.01596009975062344,0.006056397078223931,
0.01600997506234414,-0.012463943622226007,
0.01605985037406484,0.017987092066558737,
0.016109725685785538,-0.002158352029788692,
0.016159600997506234,-0.017091760581260038,
0.016209476309226933,-0.010973055672207067,
0.016259351620947632,-0.004714028107710575,
0.016309226932668328,-0.026514501575947213,
0.016359102244389027,-0.00526534937386741,
0.016408977556109726,-0.0047857628281154155,
0.016458852867830425,0.008640623450686374,
0.01650872817955112,-0.018511908790205013,
0.01655860349127182,-0.020033495876327093,
0.01660847880299252,-0.02488657022892633,
0.01665835411471322,0.010586416401036289,
0.016708229426433914,-0.01607322253129234,
0.016758104738154613,0.011850272321529902,
0.016807980049875312,-0.01648529679470795,
0.01685785536159601,0.001010887597587864,
0.016907730673316707,-0.005145068903300985,
0.016957605985037406,-0.02666355906207907,
0.017007481296758106,0.013354328579050289,
0.0170573566084788,0.015700588325274118,
0.0171072319201995,0.00937442687746569,
0.0171571072319202,0.017563103803794874,
0.0172069825436409,0.015763258794221087,
0.017256857855361595,0.012314083566376862,
0.017306733167082294,0.00562073870940527,
0.017356608478802993,0.009932908284175063,
0.017406483790523692,-0.033383579555247934,
0.017456359102244388,0.019070418575734518,
0.017506234413965087,-0.017881375861530414,
0.017556109725685786,-0.024878722029478564,
0.017605985037406485,-0.017134581099828197,
0.01765586034912718,-0.03296637914821211,
0.01770573566084788,0.012523598945623023,
0.01775561097256858,-0.023418203053156252,
0.01780548628428928,-0.013939613160792237,
0.017855361596009974,-0.001683368448642053,
0.017905236907730673,-0.01402261242766998,
0.017955112219451373,0.01739790989971258,
0.018004987531172068,0.0070372275613522954,
0.018054862842892767,0.011519666354344963,
0.018104738154613467,-0.014858283242451512,
0.018154613466334166,-0.01546569789837679,
0.01820448877805486,0.034462688976336094,
0.01825436408977556,0.04653699247502754,
0.01830423940149626,-0.022337541940698567,
0.01835411471321696,0.025778701110824143,
0.018403990024937655,0.029751020828472516,
0.018453865336658354,0.00975981028584953,
0.018503740648379053,0.015725872660125834,
0.018553615960099752,0.011168179015238474,
0.018603491271820448,0.016630508509278448,
0.018653366583541147,0.01673019943018937,
0.018703241895261846,0.017498997505818955,
0.018753117206982542,-0.011069218639655917,
0.01880299251870324,0.02823212333165747,
0.01885286783042394,-0.005404304245130451,
0.01890274314214464,0.011800336254244276,
0.018952618453865335,0.0120465605770061,
0.019002493765586034,0.012482496458654343,
0.019052369077306733,-0.0007401093660339315,
0.019102244389027433,-0.005798874478347565,
0.01915211970074813,0.024903092637146552,
0.019201995012468828,0.0010257265555310736,
0.019251870324189527,0.009041619768900035,
0.019301745635910226,-0.006331634552827422,
0.01935162094763092,0.004509365797998356,
0.01940149625935162,-0.03300618997449062,
0.01945137157107232,-0.004122053711371861,
0.01950124688279302,-0.017004676882700992,
0.019551122194513715,-0.0003068726174294753,
0.019600997506234414,0.018363370455289706,
0.019650872817955113,-0.005362193774874964,
0.01970074812967581,0.026738153212627985,
0.019750623441396508,0.01932573873411792,
0.019800498753117207,0.004856233966602588,
0.019850374064837906,0.02257476283828784,
0.019900249376558602,0.006583659200822198,
0.0199501246882793,0.009350594086651147,
0.02,-0.01266509233942788,
0.0200498753117207,0.03290255387753961,
0.020099750623441395,0.03267921312044802,
0.020149625935162094,0.017684891180325728,
0.020199501246882794,0.011781099848916975,
0.020249376558603493,0.01470035149970448,
0.02029925187032419,0.008822181216564147,
0.020349127182044888,0.006255135206227844,
0.020399002493765587,-0.00222074250368718,
0.020448877805486283,0.028848138170920745,
0.02049875311720698,0.004981619785601181,
0.02054862842892768,0.024477266429542944,
0.02059850374064838,0.007451275525855389,
0.020648379052369076,0.03073699407091152,
0.020698254364089775,0.02087561028236784,
0.020748129675810474,0.0042022595822344706,
0.020798004987531173,-0.015290317759884636,
0.02084788029925187,0.03414999780785196,
0.020897755610972568,0.027551950908502376,
0.020947630922693267,0.045454149859285656,
0.020997506234413967,0.020318723981881132,
0.021047381546134662,0.020564589245259276,
0.02109725685785536,0.018593791878215735,
0.02114713216957606,-0.006089730796626815,
0.02119700748129676,0.01613784265943132,
0.021246882793017455,0.004007891449041966,
0.021296758104738155,0.001341242912849882,
0.021346633416458854,-0.0016984712226322494,
0.02139650872817955,-0.0040060174445244075,
0.02144638403990025,-0.01802175983609839,
0.021496259351620948,0.024750906861564125,
0.021546134663341647,0.018538457704437197,
0.021596009975062343,0.01325911957303259,
0.021645885286783042,0.022181562104742297,
0.02169576059850374,-0.0008673361403170529,
0.02174563591022444,-0.01257106704270014,
0.021795511221945136,0.019554190735941383,
0.021845386533665835,0.0073566814119565855,
0.021895261845386534,0.01186859826500601,
0.021945137157107233,-0.006634994030963393,
0.02199501246882793,0.025034602666055627,
0.02204488778054863,0.008896563598844477,
0.022094763092269327,0.01440004974803795,
0.022144638403990027,6.043410172122329e-05,
0.022194513715710722,0.043037899078574235,
0.02224438902743142,0.04730078181428039,
0.02229426433915212,0.03456444650133545,
0.022344139650872816,-0.010768222265944979,
0.022394014962593516,0.034807405221557466,
0.022443890274314215,0.03639149462659074,
0.022493765586034914,0.04869271551199973,
0.02254364089775561,0.03952362654470376,
0.02259351620947631,0.03013316799320348,
0.022643391521197008,-0.0145005487105186,
0.022693266832917707,0.03253602553529923,
0.022743142144638403,0.04235344545464179,
0.022793017456359102,0.02189976111916758,
0.0228428927680798,0.03811204761743826,
0.0228927680798005,0.0321751275597495,
0.022942643391521196,0.015249995088440771,
0.022992518703241895,0.02575234688356804,
0.023042394014962594,0.014261301682901184,
0.02309226932668329,0.028817395454446802,
0.02314214463840399,0.020909832402494413,
0.02319201995012469,0.008734408136255504,
0.023241895261845388,0.025505149955971217,
0.023291770573566083,0.0063047998024451345,
0.023341645885286783,0.014423179125772855,
0.02339152119700748,0.0419058177637521,
0.02344139650872818,0.02058418123568941,
0.023491271820448877,0.03103298880824527,
0.023541147132169576,0.006841548594802254,
0.023591022443890275,0.02552570224797361,
0.023640897755610974,0.03725953520857614,
0.02369077306733167,0.036141818824865626,
0.02374064837905237,0.018671524266176645,
0.023790523690773068,0.027672715362328695,
0.023840399002493767,0.020269669929245795,
0.023890274314214463,0.0430819227986548,
0.023940149625935162,0.004912630675179688,
0.02399002493765586,0.013324704379855511,
0.024039900249376557,0.020527615144765456,
0.024089775561097256,0.03326749426687674,
0.024139650872817955,0.016204656231716054,
0.024189526184538655,0.005687053885760017,
0.02423940149625935,0.03080825319737148,
0.02428927680798005,0.033122821553914425,
0.02433915211970075,0.013207939607501377,
0.024389027431421448,0.034630244826652334,
0.024438902743142144,0.015891738636213685,
0.024488778054862843,0.011118444917145191,
0.024538653366583542,0.027644287020643338,
0.02458852867830424,0.020123576547215874,
0.024638403990024937,0.040953454643431336,
0.024688279301745636,0.01053432003046594,
0.024738154613466335,0.013866057337945818,
0.02478802992518703,0.03912047206099657,
0.02483790523690773,-0.0007245249167294673,
0.02488778054862843,0.02163518585141305,
0.02493765586034913,0.01963102871875931,
0.024987531172069824,0.038541532758857355,
0.025037406483790523,0.003601092430839772,
0.025087281795511222,0.02386040920523888,
0.02513715710723192,0.03244746574156966,
0.025187032418952617,-0.0014388204124638204,
0.025236907730673316,0.005095721536361172,
0.025286783042394016,0.015109118804399047,
0.025336658354114715,0.019286271232063695,
0.02538653366583541,0.04493507397337749,
0.02543640897755611,0.005274449667090548,
0.02548628428927681,0.032371548929162025,
0.025536159600997508,-0.005822921749626753,
0.025586034912718204,0.024791017178706975,
0.025635910224438903,0.030066055620850796,
0.025685785536159602,0.001427812332330249,
0.025735660847880298,0.017539842721722817,
0.025785536159600997,0.01040647094565997,
0.025835411471321696,0.028327312773124697,
0.025885286783042395,0.038777159796252035,
0.02593516209476309,0.017362158677462013,
0.02598503740648379,-0.006207440926827113,
0.02603491271820449,0.011851616893099678,
0.02608478802992519,-0.0037557424443058745,
0.026134663341645884,0.024623844762878357,
0.026184538653366583,0.019111168871172778,
0.026234413965087282,0.024798030225624153,
0.02628428927680798,-0.0019245617505132158,
0.026334164588528677,-0.0072745813359252585,
0.026384039900249377,0.012996704045584805,
0.026433915211970076,0.02099145573066674,
0.02648379052369077,0.02282986048777496,
0.02653366583541147,0.01475465097907147,
0.02658354114713217,0.01700473451634059,
0.02663341645885287,-0.01700601552862067,
0.026683291770573565,0.026618996860474992,
0.026733167082294264,0.002062979104994797,
0.026783042394014963,0.05350080588392741,
0.026832917705735662,0.03270171557691874,
0.026882793017456358,0.011306562467451138,
0.026932668329177057,-0.0010529761666969398,
0.026982543640897756,-0.002212637822991417,
0.027032418952618455,0.012751684264411856,
0.02708229426433915,0.0034268316093208143,
0.02713216957605985,-0.010867472724238443,
0.02718204488778055,0.028906235158942348,
0.02723192019950125,0.027004293372475088,
0.027281795511221944,0.00861437805008999,
0.027331670822942643,-0.005974719498688584,
0.027381546134663343,0.028846203497185134,
0.02743142144638404,0.0059458069182177,
0.027481296758104738,0.0043858502909646735,
0.027531172069825437,0.046688993706668146,
0.027581047381546136,-0.005558986516012899,
0.02763092269326683,0.0017796883048646582,
0.02768079800498753,-0.013727987048742094,
0.02773067331670823,0.01163693748686348,
0.02778054862842893,-0.008469825841565361,
0.027830423940149625,0.017888325384201934,
0.027880299251870324,-0.01392821558717326,
0.027930174563591023,-0.0046542449233345495,
0.027980049875311722,0.003997741042308223,
0.028029925187032418,0.01061687484346364,
0.028079800498753117,0.01094794132409652,
0.028129675810473816,0.0023435153058439357,
0.028179551122194512,0.03092574945657971,
0.02822942643391521,-0.005492144175740192,
0.02827930174563591,0.011053583037397778,
0.02832917705735661,0.005985894303262817,
0.028379052369077305,-0.012287824254269417,
0.028428927680798004,-0.024335545119840186,
0.028478802992518704,-6.337031587920873e-05,
0.028528678304239403,-0.004510361625585543,
0.0285785536159601,-0.011167491373571998,
0.028628428927680798,0.0007990258873959901,
0.028678304239401497,-0.010985306767834263,
0.028728179551122196,0.017298337600014327,
0.02877805486284289,0.022687243182296396,
0.02882793017456359,0.02433189807905959,
0.02887780548628429,0.015798983034601397,
0.02892768079800499,-0.00816338215136956,
0.028977556109725685,-0.03488985493955211,
0.029027431421446384,0.022715176707148052,
0.029077306733167083,0.012838459347832325,
0.02912718204488778,0.0009954923206491667,
0.029177057356608478,0.0013752142303550896,
0.029226932668329177,-0.00314486219350134,
0.029276807980049877,0.012268521062922564,
0.029326683291770572,-0.026776641714991514,
0.02937655860349127,0.0057231738987237775,
0.02942643391521197,-0.01761772872649439,
0.02947630922693267,-0.013896337742510869,
0.029526184538653365,-0.001030056080739825,
0.029576059850374065,0.006708760979295349,
0.029625935162094764,0.02066946677443042,
0.029675810473815463,-0.010630733648116283,
0.02972568578553616,0.022239198301332863,
0.029775561097256858,0.013933696238948487,
0.029825436408977557,-0.02820487394579941,
0.029875311720698253,0.004224564697535738,
0.029925187032418952,-0.006707087636297248,
0.02997506234413965,-0.015077442498672593,
0.03002493765586035,-0.02415573281007074,
0.030074812967581046,-0.032978580457860326,
0.030124688279301745,-0.017273878110716727,
0.030174563591022444,-0.01900329106964667,
0.030224438902743143,-0.018130241138765504,
0.03027431421446384,-0.005146847680770904,
0.03032418952618454,-0.013320269267301036,
0.030374064837905237,-0.01296568791653706,
0.030423940149625937,0.0011297284846064591,
0.030473815461346632,-0.025455065411817766,
0.03052369077306733,-0.03335030716733046,
0.03057356608478803,-0.03679146946277158,
0.03062344139650873,-0.023909908976043844,
0.030673316708229426,-0.03499315464695015,
0.030723192019950125,-0.00851598228181499,
0.030773067331670824,-0.0031725684220206586,
0.03082294264339152,-0.02647056425085967,
0.03087281795511222,-0.016076243627462235,
0.030922693266832918,-0.016060572798676984,
0.030972568578553617,-0.004974190080895113,
0.031022443890274313,-0.02034139505999351,
0.031072319201995012,-0.010048953661777183,
0.03112219451371571,-0.004525735556588296,
0.03117206982543641,-0.004456176279694328,
0.031221945137157106,0.018997212924767727,
0.03127182044887781,-0.006889871107177441,
0.031321695760598504,-0.02211891411232916,
0.0313715710723192,-0.025874967108816108,
0.0314214463840399,0.006999101793626929,
0.0314713216957606,-0.023698585280653238,
0.031521197007481294,-0.01581405312957865,
0.031571072319202,-0.011655126979724251,
0.03162094763092269,-0.02884426335662737,
0.03167082294264339,-0.01744681683102184,
0.03172069825436409,0.0049009741257294605,
0.03177057356608479,-0.013143620222600702,
0.03182044887780549,-0.011401225432606587,
0.031870324189526185,-0.03022095355673839,
0.03192019950124688,-0.013697143197691363,
0.03197007481296758,-0.014703299550470736,
0.03201995012468828,-0.028997049807899043,
0.032069825436408975,-0.01960758744260113,
0.03211970074812968,-0.005079421753765523,
0.03216957605985037,-0.042781088610915466,
0.032219451371571076,-0.010369313265607482,
0.03226932668329177,-0.015650109158966686,
0.03231920199501247,-0.01627277935915996,
0.03236907730673317,-0.03308429877325781,
0.032418952618453865,-0.01757406301969118,
0.03246882793017456,-0.006179854287407138,
0.032518703241895264,-0.019022286414728858,
0.03256857855361596,-0.041462602644574645,
0.032618453865336655,-0.004165947997629649,
0.03266832917705736,-0.014558715204387776,
0.032718204488778053,-0.020825666677399997,
0.032768079800498756,-0.05301786664943643,
0.03281795511221945,0.0004769431649826253,
0.03286783042394015,-0.017382137957980277,
0.03291770573566085,0.00032685544578257494,
0.032967581047381546,-0.0181466714568203,
0.03301745635910224,-0.018712685948525605,
0.033067331670822944,-0.017443208744051798,
0.03311720698254364,-0.013934092166082396,
0.03316708229426434,-0.05816405628490762,
0.03321695760598504,-0.029786699376928204,
0.033266832917705734,-0.0005101285877120686,
0.03331670822942644,-0.036396989049689854,
0.03336658354114713,-0.010021843786944998,
0.03341645885286783,-0.016580589253951068,
0.03346633416458853,-0.04200416315416598,
0.033516209476309226,-0.0011836653605787478,
0.03356608478802992,-0.023580496133534315,
0.033615960099750625,-0.006519365837386406,
0.03366583541147132,-0.038934721375414635,
0.03371571072319202,-0.02130785538755422,
0.03376558603491272,0.0013706720103335325,
0.033815461346633414,-0.014176817014694539,
0.03386533665835412,-0.02428631865338353,
0.03391521197007481,-0.008683075240517387,
0.03396508728179551,-0.027583078918635984,
0.03401496259351621,-0.03341376861192162,
0.03406483790523691,-0.01894307374106083,
0.0341147132169576,-0.021437826525061092,
0.034164588528678305,0.020273062530321215,
0.034214463840399,0.0009528706886090532,
0.034264339152119704,-0.014886663111735556,
0.0343142144638404,-0.00956834826796545,
0.034364089775561095,-0.012417320723297315,
0.0344139650872818,-0.03225309010290448,
0.03446384039900249,-0.04291232362739095,
0.03451371571072319,0.013971851306494261,
0.03456359102244389,0.018817266556332538,
0.03461346633416459,-0.020952774524450317,
0.03466334164588529,-0.019112241049733386,
0.034713216957605986,-0.012198490021517263,
0.03476309226932668,-0.023277038393629747,
0.034812967581047384,0.01086417478685184,
0.03486284289276808,-0.024424560279674684,
0.034912718204488775,-0.015788339621027592,
0.03496259351620948,0.03106343982521389,
0.035012468827930174,-0.015491116459940071,
0.03506234413965087,-0.011728565253791744,
0.03511221945137157,-0.005084819064980632,
0.03516209476309227,-0.014581919384853165,
0.03521197007481297,-0.06109418943741347,
0.035261845386533666,-0.010023954494784621,
0.03531172069825436,-0.021663299105993315,
0.035361596009975065,-0.01733146917651424,
0.03541147132169576,-0.0011807813274907295,
0.035461346633416456,-0.029142789097285224,
0.03551122194513716,-0.03301005782273085,
0.035561097256857854,-0.02441454909267641,
0.03561097256857856,-0.03245499794219715,
0.03566084788029925,-0.03724322702014453,
0.03571072319201995,-0.009070821719695144,
0.03576059850374065,-0.008052342150707877,
0.03581047381546135,-0.001458166297804201,
0.03586034912718204,-0.028472140686272945,
0.035910224438902745,-0.017655849430059392,
0.03596009975062344,-0.034564093921004,
0.036009975062344136,-0.019550623509583618,
0.03605985037406484,0.02785510718465921,
0.036109725685785535,-0.00775908490556086,
0.03615960099750624,-0.02917739447725737,
0.03620947630922693,-0.003186279456847414,
0.03625935162094763,-0.020830078987099675,
0.03630922693266833,-0.008016562292280545,
0.03635910224438903,-0.02173260351201063,
0.03640897755610972,0.011832147195927619,
0.036458852867830426,0.0069519492795371545,
0.03650872817955112,0.009137682536420683,
0.036558603491271824,0.003209733164104259,
0.03660847880299252,0.006358307147249298,
0.036658354114713215,-0.015682883800007066,
0.03670822942643392,-0.030252169580497222,
0.036758104738154614,0.018240112488474142,
0.03680798004987531,0.0023461026792493686,
0.03685785536159601,-0.016830426245491872,
0.03690773067331671,-0.005813936864077938,
0.0369576059850374,-0.007963902794961682,
0.037007481296758106,-0.016780330010665326,
0.0370573566084788,0.010286417432967284,
0.037107231920199504,-0.009608665850839235,
0.0371571072319202,-0.0066663307180702455,
0.037206982543640896,-0.001179446120165239,
0.0372568578553616,0.02238079319938064,
0.037306733167082294,0.003967788342935576,
0.03735660847880299,0.020753129176514343,
0.03740648379052369,-0.0012751912239417455,
0.03745635910224439,-0.0035197724347932717,
0.037506234413965084,-0.009976229900553153,
0.037556109725685786,0.009248812833907613,
0.03760598503740648,0.0034163029446086643,
0.037655860349127185,-0.00940581453120788,
0.03770573566084788,0.022743157013740647,
0.037755610972568576,0.011798963379915433,
0.03780548628428928,0.018311666101544152,
0.037855361596009975,-0.012114554406358398,
0.03790523690773067,-0.012977580593388523,
0.03795511221945137,-0.007524782430280458,
0.03800498753117207,-0.005859986403928513,
0.03805486284289277,0.009927417014839643,
0.03810473815461347,0.014774494559337015,
0.03815461346633416,0.02014981868296205,
0.038204488778054865,-0.017842353400311126,
0.03825436408977556,0.035161649520362666,
0.03830423940149626,0.00047111139043231557,
0.03835411471321696,0.004187272290632127,
0.038403990024937655,0.0053554751637853735,
0.03845386533665835,0.03179241887071197,
0.03850374064837905,0.023959880891291637,
0.03855361596009975,0.0014204225792985616,
0.03860349127182045,-0.009735005055235297,
0.03865336658354115,0.01596637637435258,
0.03870324189526184,0.014214010514083827,
0.038753117206982546,-0.0002952671400035349,
0.03880299251870324,0.020557439158517765,
0.03885286783042394,0.0016421671862784336,
0.03890274314214464,-0.006930912075506137,
0.038952618453865336,-0.006868008785027562,
0.03900249376558604,0.00829598403493754,
0.039052369077306734,-0.0004974790263447913,
0.03910224438902743,0.006859053945731494,
0.03915211970074813,0.001653267437213569,
0.03920199501246883,0.004713638511963248,
0.039251870324189524,-0.01599073672796445,
0.039301745635910226,-0.010634153876827425,
0.03935162094763092,0.01586736860184362,
0.03940149625935162,0.019948750664480232,
0.03945137157107232,0.01098693650645902,
0.039501246882793016,-0.0016511205594349314,
0.03955112219451372,0.030024874406317334,
0.039600997506234414,0.004867872046813215,
0.03965087281795511,0.0018063040724919707,
0.03970074812967581,0.020637568848970268,
0.03975062344139651,0.03637119173423582,
0.039800498753117204,0.025087771881399788,
0.03985037406483791,-0.008889345094250323,
0.0399002493765586,0.004587716742949983,
0.039950124688279305,0.03532253820770747,
0.04,0.025545818818577717,
0.0400498753117207,-0.006342122781496755,
0.0400997506234414,0.02027785460188484,
0.040149625935162095,0.010442963601707685,
0.04019950124688279,0.013144645945934872,
0.04024937655860349,0.009911744881893565,
0.04029925187032419,0.041584795298624105,
0.040349127182044885,0.040461743488292755,
0.04039900249376559,0.021545247442923497,
0.04044887780548628,0.01438750208137416,
0.040498753117206986,0.025384817057302486,
0.04054862842892768,0.0015378612981146178,
0.04059850374064838,0.041659377433930916,
0.04064837905236908,0.04741605218279922,
0.040698254364089775,0.019030140762220267,
0.04074812967581047,0.02484637842096225,
0.040798004987531174,0.022316966706184438,
0.04084788029925187,-0.0009534186604442559,
0.040897755610972565,0.003949875968186179,
0.04094763092269327,0.029563560945818516,
0.04099750623441396,0.019362472337142046,
0.041047381546134666,0.03944310421463275,
0.04109725685785536,0.027195716770773478,
0.04114713216957606,0.021384441719247634,
0.04119700748129676,0.02112823088018892,
0.041246882793017456,0.007952730346667887,
0.04129675810473815,0.01451787309004509,
0.041346633416458854,0.004441828186610899,
0.04139650872817955,0.02217966070750907,
0.04144638403990025,0.026846898143098014,
0.04149625935162095,0.035534215334615676,
0.041546134663341644,0.04245172244348405,
0.04159600997506235,0.011010058053288748,
0.04164588528678304,0.021381575750747842,
0.04169576059850374,0.03361040006560251,
0.04174563591022444,0.028903217135104194,
0.041795511221945136,0.008741511553766429,
0.04184538653366583,0.04925338986296274,
0.041895261845386535,0.04820319807537167,
0.04194513715710723,-0.005503021595282848,
0.04199501246882793,0.032817157342801315,
0.04204488778054863,0.01601037531153461,
0.042094763092269324,0.00835947156840061,
0.04214463840399003,0.011796121459244564,
0.04219451371571072,0.021342164070209346,
0.04224438902743142,0.019790686368413992,
0.04229426433915212,0.04179333902011416,
0.04234413965087282,0.03925046612276052,
0.04239401496259352,-0.006626081129839017,
0.042443890274314215,0.0032858176954549505,
0.04249376558603491,0.037239573913250494,
0.042543640897755614,0.03008648354733518,
0.04259351620947631,0.006184681807452342,
0.042643391521197005,0.04056349859222592,
0.04269326683291771,0.010296919375664263,
0.0427431421446384,0.0263029275068132,
0.0427930174563591,0.022756268999769992,
0.0428428927680798,0.01976544541630043,
0.0428927680798005,-0.011538367465842254,
0.0429426433915212,0.03726501317081326,
0.042992518703241896,0.015459923637897714,
0.04304239401496259,0.022557369274233515,
0.043092269326683294,0.009029525173396623,
0.04314214463840399,0.008722768433823275,
0.043192019950124685,0.010069604932714166,
0.04324189526184539,0.029367580147702882,
0.043291770573566084,0.07011739390064237,
0.043341645885286786,0.03968624421090773,
0.04339152119700748,0.005226864154867696,
0.04344139650872818,0.04313796902596066,
0.04349127182044888,0.02670474741423252,
0.043541147132169576,0.011862866162235308,
0.04359102244389027,0.023656769448585458,
0.043640897755610975,0.015575392759466334,
0.04369077306733167,0.007098303175578698,
0.043740648379052366,0.02698166010224648,
0.04379052369077307,-0.001014345508107587,
0.043840399002493764,0.028747983159440823,
0.04389027431421447,0.02993573886293297,
0.04394014962593516,0.021869547054104075,
0.04399002493765586,0.007597627573976255,
0.04403990024937656,0.01249086138470936,
0.04408977556109726,0.01487120012660592,
0.04413965087281795,0.023241712000716258,
0.044189526184538655,0.012405834139004222,
0.04423940149625935,0.04151357708232996,
0.04428927680798005,0.02245532716879863,
0.04433915211970075,0.04038343550413649,
0.044389027431421445,0.044851793807520204,
0.04443890274314215,0.029989580960368967,
0.04448877805486284,0.009819129992310247,
0.04453865336658354,0.014439559084054589,
0.04458852867830424,0.012093327160845225,
0.04463840399002494,0.04346132316885718,
0.04468827930174563,0.03809325621668724,
0.044738154613466335,0.012549882656741932,
0.04478802992518703,-0.007491943751732431,
0.044837905236907734,-0.005320672946006626,
0.04488778054862843,0.03257471215255658,
0.044937655860349125,0.0009291609437226435,
0.04498753117206983,-0.00758600083179992,
0.045037406483790524,0.00743016215899393,
0.04508728179551122,0.02398482996153296,
0.04513715710723192,0.020619661590616095,
0.04518703241895262,0.008853071503018523,
0.04523690773067331,-0.00772484677614417,
0.045286783042394016,-0.0053198022829779625,
0.04533665835411471,0.016267433960891562,
0.045386533665835414,0.010606737952237034,
0.04543640897755611,-0.00527007255678702,
0.045486284289276806,0.021334160368558203,
0.04553615960099751,0.00392302127405285,
0.045586034912718204,0.04780890077191455,
0.0456359102244389,0.002349729480036698,
0.0456857855361596,0.024881251249523104,
0.0457356608478803,-0.004375805110711934,
0.045785536159601,0.0254429633400957,
0.045835411471321696,0.006016755614464622,
0.04588528678304239,0.027257016524351717,
0.045935162094763095,0.029600862944290506,
0.04598503740648379,0.008808232404532318,
0.046034912718204486,0.019107524180103634,
0.04608478802992519,0.0169043886635334,
0.046134663341645885,0.0066963182391035,
0.04618453865336658,0.00010080136424606666,
0.04623441396508728,-0.00011166491827909429,
0.04628428927680798,0.030849649470212695,
0.04633416458852868,0.026541329257887544,
0.04638403990024938,0.0029434820002685637,
0.04643391521197007,0.018064309843694375,
0.046483790523690775,0.03293134837880377,
0.04653366583541147,-0.020118506602666106,
0.04658354114713217,0.024594165816821268,
0.04663341645885287,-0.0020095095096719397,
0.046683291770573565,0.010204548630247093,
0.04673316708229427,-0.0017167974820307807,
0.04678304239401496,0.019184317069705678,
0.04683291770573566,0.01178701435635645,
0.04688279301745636,0.007428743523308591,
0.04693266832917706,0.007378373793869869,
0.04698254364089775,0.016652762964109273,
0.047032418952618456,0.011738552533674833,
0.04708229426433915,0.016357602189470168,
0.04713216957605985,0.018383838410193042,
0.04718204488778055,-0.009941337008254633,
0.047231920199501246,0.024646423255006246,
0.04728179551122195,0.004658186827598346,
0.047331670822942644,0.017308255588317115,
0.04738154613466334,0.023906374853023875,
0.04743142144638404,-0.002502278816661786,
0.04748129675810474,0.01048031374122113,
0.047531172069825434,-0.006065316634782315,
0.047581047381546136,-0.0031760973590585816,
0.04763092269326683,-0.007489551812432125,
0.047680798004987535,-0.05532360207291629,
0.04773067331670823,0.028605470260317588,
0.047780548628428926,0.016228976770442407,
0.04783042394014963,-0.01861529994907432,
0.047880299251870324,-0.005645226798090439,
0.04793017456359102,0.019723357684482714,
0.04798004987531172,-0.024623211274410896,
0.04802992518703242,0.0015473303865951257,
0.048079800498753114,-0.00599854073674383,
0.04812967581047382,0.004932687845915253,
0.04817955112219451,-0.004381731844794774,
0.048229426433915215,-0.006095003850955303,
0.04827930174563591,-0.007807286842179907,
0.048329177057356607,-0.010499959331918725,
0.04837905236907731,-0.006023282097192061,
0.048428927680798005,0.016348446531852266,
0.0484788029925187,0.004891398864988699,
0.0485286783042394,0.015430392698028431,
0.0485785536159601,-0.0205073035953686,
0.048628428927680795,0.01636352320861563,
0.0486783042394015,-0.0046570353173909194,
0.04872817955112219,-0.01642569351297412,
0.048778054862842896,-0.01143910452564444,
0.04882793017456359,0.011853142812319539,
0.04887780548628429,0.0062714963391418705,
0.04892768079800499,-0.009682418378662402,
0.048977556109725685,-0.02166611133251627,
0.04902743142144638,-0.021171348918201674,
0.049077306733167084,-0.004473790464984806,
0.04912718204488778,-0.007328817551849772,
0.04917705735660848,-0.006424962266702501,
0.04922693266832918,-0.007497610659643754,
0.04927680798004987,0.0018370401281441427,
0.049326683291770576,0.00018903287616020212,
0.04937655860349127,-0.00602756451168013,
0.04942643391521197,-0.008179511969488929,
0.04947630922693267,0.020827995492845745,
0.049526184538653366,-0.005662207757479024,
0.04957605985037406,0.00018365294732591766,
0.049625935162094764,-0.006251990193666977,
0.04967581047381546,-0.01960335393696501,
0.04972568578553616,-0.006322557958904412,
0.04977556109725686,0.0059116099147735485,
0.049825436408977554,-0.028624032511195233,
0.04987531172069826,-0.010616606135135315,
0.04992518703241895,-0.01796715334795744,
0.04997506234413965,-0.055938340957758174,
0.05002493765586035,0.0030811127705624893,
0.050074812967581046,-0.0021342280216636346,
0.05012468827930175,0.004073000085926325,
0.050174563591022445,0.006560339947594496,
0.05022443890274314,0.0006627642143767938,
0.05027431421446384,-0.03537368791342104,
0.05032418952618454,-0.0043831114535977135,
0.050374064837905234,-0.016751842314431366,
0.05042394014962594,-0.008830511619867715,
0.05047381546134663,-0.03480387821956014,
0.05052369077306733,-0.021168806832936933,
0.05057356608478803,6.203528905296407e-05,
0.05062344139650873,-0.012141006292066669,
0.05067331670822943,0.016826525276793687,
0.050723192019950125,-0.04049993022094217,
0.05077306733167082,-0.028581833549393146,
0.050822942643391524,-0.04382881882902056,
0.05087281795511222,-0.033687645475808214,
0.050922693266832915,1.4782910540640792e-05,
0.05097256857855362,-0.027457137310407675,
0.05102244389027431,-0.015607901325817422,
0.051072319201995016,0.0002707105897929909,
0.05112219451371571,0.016308190524637153,
0.05117206982543641,-9.424636274187916e-05,
0.05122194513715711,-0.014239557953108526,
0.051271820448877806,-0.010424165609822487,
0.0513216957605985,-0.017543571917835513,
0.051371571072319204,-0.02513654119844319,
0.0514214463840399,-0.04195423487146584,
0.051471321695760595,0.004755455467943924,
0.0515211970074813,-0.01197395329646957,
0.051571072319201994,-0.024490791353087293,
0.051620947630922696,-0.028130863862961503,
0.05167082294264339,-0.012517083434801932,
0.05172069825436409,-0.010746905023198833,
0.05177057356608479,-0.028782667015867885,
0.051820448877805486,-0.024054018796028493,
0.05187032418952618,-0.00012102374454042372,
0.051920199501246884,0.004557293409970169,
0.05197007481296758,-0.008511808627980934,
0.052019950124688276,-0.020324088178856038,
0.05206982543640898,-0.030264248980596965,
0.052119700748129674,-0.017129093412403883,
0.05216957605985038,-0.022746447913855224,
0.05221945137157107,-0.022233880647852672,
0.05226932668329177,-0.03520969049756501,
0.05231920199501247,-0.020267569201134684,
0.05236907730673317,-0.03221248762748451,
0.05241895261845386,-0.0052982544944604,
0.052468827930174565,-0.00092776506547094,
0.05251870324189526,-0.03660758918718495,
0.05256857855361596,-0.029343480497948916,
0.05261845386533666,0.0019133183292601996,
0.052668329177057355,-0.014982361607569768,
0.05271820448877806,-0.003686478397851717,
0.05276807980049875,-0.019752675245445314,
0.05281795511221945,-0.0136359571836698,
0.05286783042394015,-0.008952003762390928,
0.05291770573566085,-0.008536236504196788,
0.05296758104738154,-0.014130477717143741,
0.053017456359102245,-0.01433471514187716,
0.05306733167082294,-0.04430609560276702,
0.053117206982543644,-0.013890012402185641,
0.05316708229426434,-0.02739627777833526,
0.053216957605985035,-0.023916247518134127,
0.05326683291770574,-0.02699262949800519,
0.053316708229426434,-0.013319743816851453,
0.05336658354114713,-0.020245702163799586,
0.05341645885286783,-0.015124041664065663,
0.05346633416458853,-0.003260041622344341,
0.05351620947630923,0.015595979455678383,
0.053566084788029926,-0.015250874243701026,
0.05361596009975062,-0.018694004397693434,
0.053665835411471324,-0.026287480327014237,
0.05371571072319202,-0.021362739824174776,
0.053765586034912716,0.001165147821298177,
0.05381546134663342,-0.01759534968794006,
0.053865336658354114,0.015046731530617705,
0.05391521197007481,0.005061765024551971,
0.05396508728179551,0.013364075384141524,
0.05401496259351621,-0.012917504871203132,
0.05406483790523691,0.001936548448801121,
0.054114713216957606,-0.014018967267093235,
0.0541645885286783,-0.028227155831104987,
0.054214463840399005,-0.022564804457087646,
0.0542643391521197,-0.05007391727795424,
0.054314214463840396,-0.012666616067914187,
0.0543640897755611,-0.03009321453195545,
0.054413965087281795,-0.009855591446614211,
0.0544638403990025,-0.013219147535381826,
0.05451371571072319,0.002196263072154543,
0.05456359102244389,-0.020273018507836974,
0.05461346633416459,-0.026925375532839673,
0.05466334164588529,-0.012697473491300978,
0.05471321695760598,-0.0001690667649239981,
0.054763092269326685,-0.024677456094225423,
0.05481296758104738,0.006910520364028195,
0.05486284289276808,-0.01383868267127621,
0.05491271820448878,-0.0312909337422409,
0.054962593516209475,-0.013063213666089752,
0.05501246882793018,-0.032834686228237576,
0.05506234413965087,-0.02365139100478708,
0.05511221945137157,-0.03650020648552936,
0.05516209476309227,0.016540141714266352,
0.05521197007481297,-0.0069259542973207815,
0.05526184538653366,-0.0011696055718259084,
0.055311720698254366,-0.014958768146669094,
0.05536159600997506,-0.03514283354200691,
0.05541147132169576,-0.003157739038807063,
0.05546134663341646,-0.012697531751353706,
0.055511221945137156,-0.006569981494142411,
0.05556109725685786,-0.007726318816986734,
0.055610972568578554,0.013896610793339181,
0.05566084788029925,-0.03592883000948393,
0.05571072319201995,-0.016702485236493526,
0.05576059850374065,0.002963897311901423,
0.055810473815461344,-0.013364682890892874,
0.055860349127182046,-0.01659716753229837,
0.05591022443890274,0.0142905493575497,
0.055960099750623445,-0.012353805930648342,
0.05600997506234414,-0.014314817449903715,
0.056059850374064836,-0.0015561310598914812,
0.05610972568578554,0.003318606048346495,
0.056159600997506234,-0.011889592100130943,
0.05620947630922693,0.007406772443082628,
0.05625935162094763,-0.021478841664168816,
0.05630922693266833,0.003443018916933602,
0.056359102244389024,-0.009667658952186003,
0.05640897755610973,0.02247507216369376,
0.05645885286783042,-0.00146871778606037,
0.056508728179551125,-0.02406485914429441,
0.05655860349127182,0.010520168968664582,
0.056608478802992516,-0.0076828330200915925,
0.05665835411471322,0.01277719065400357,
0.056708229426433915,-0.021083530527552293,
0.05675810473815461,0.002017503975248182,
0.05680798004987531,0.00887260434298965,
0.05685785536159601,-0.0004951676662522588,
0.05690773067331671,-0.01661868538854852,
0.05695760598503741,-0.0024113135689117614,
0.0570074812967581,0.004491750286096979,
0.057057356608478806,-0.010029885127597123,
0.0571072319201995,0.017709576356085978,
0.0571571072319202,0.013300245979348556,
0.0572069825436409,-0.01598869951242348,
0.057256857855361595,-0.03424083996881469,
0.05730673316708229,-0.0036765840873361822,
0.057356608478802994,0.011656683419297004,
0.05740648379052369,-0.0008126677572198615,
0.05745635910224439,-0.013715440297518266,
0.05750623441396509,0.02062543964367723,
0.05755610972568578,-0.010309069353657756,
0.057605985037406486,-0.010401056305087588,
0.05765586034912718,0.0017995687859914886,
0.05770573566084788,0.004119738437742762,
0.05775561097256858,-0.01971686644340543,
0.057805486284289276,0.012724423450863396,
0.05785536159600998,0.0036159329531786338,
0.057905236907730674,-0.010369602626786432,
0.05795511221945137,0.017330990853515,
0.05800498753117207,-0.0014552403842768933,
0.05805486284289277,0.0011877006419931694,
0.058104738154613464,0.014602155291852083,
0.05815461346633417,-0.004374549469603069,
0.05820448877805486,0.006194308675927494,
0.05825436408977556,-0.012327202070421428,
0.05830423940149626,-0.00786321718110251,
0.058354114713216956,0.0017289052801584505,
0.05840399002493766,0.029176204178971595,
0.058453865336658355,0.010420200771701816,
0.05850374064837905,0.0018301738840684314,
0.05855361596009975,0.030197928388687942,
0.05860349127182045,-0.028138294740741917,
0.058653366583541144,0.0016030008074916554,
0.05870324189526185,-0.0055231369035465775,
0.05875311720698254,0.014165795265428292,
0.05880299251870324,-0.008380627079866292,
0.05885286783042394,0.0008339818833166934,
0.05890274314214464,0.03288965620289133,
0.05895261845386534,0.038966828638415926,
0.059002493765586035,0.02106173865468578,
0.05905236907730673,0.016391798735302575,
0.059102244389027433,0.013524111071223185,
0.05915211970074813,0.024850072532366596,
0.059201995012468825,-0.0001005345992050894,
0.05925187032418953,0.02455900487868542,
0.05930174563591022,0.027273087062288592,
0.059351620947630926,0.04151043232634088,
0.05940149625935162,0.04659959771112783,
0.05945137157107232,0.009057662082050316,
0.05950124688279302,0.00874388821400447,
0.059551122194513716,-0.00033129320696559557,
0.05960099750623441,0.028468237572946406,
0.059650872817955114,0.020151346722537555,
0.05970074812967581,0.015281851867698351,
0.059750623441396505,0.009378832351942023,
0.05980049875311721,0.018456308291175755,
0.059850374064837904,0.01344722062918394,
0.059900249376558606,0.016556391374574094,
0.0599501246882793,0.018778484807841642,
0.06,0.02305627374235858,
0.0600498753117207,0.01531997026771578,
0.060099750623441396,0.020753104870325292,
0.06014962593516209,0.003621484016715266,
0.060199501246882794,0.00339732546593992,
0.06024937655860349,0.02077508472145473,
0.06029925187032419,0.015665590494177328,
0.06034912718204489,0.026603876523212985,
0.060399002493765584,0.05347419120767686,
0.06044887780548629,0.007789485658680411,
0.06049875311720698,-0.007971900906632,
0.06054862842892768,0.01547838255130828,
0.06059850374064838,0.013557934535641719,
0.06064837905236908,0.024301674005054157,
0.06069825436408977,0.005453931711171691,
0.060748129675810475,0.015376080463832906,
0.06079800498753117,0.04664797590737385,
0.06084788029925187,0.04240679766306407,
0.06089775561097257,0.033714908072202225,
0.060947630922693265,0.010461548961337585,
0.06099750623441397,0.034986063456689837,
0.06104738154613466,-0.01692635338597965,
0.06109725685785536,0.017028547961295572,
0.06114713216957606,0.03592199030946279,
0.06119700748129676,0.010507977873604541,
0.06124688279301746,-0.002236434074172969,
0.061296758104738155,-0.004656232752344738,
0.06134663341645885,0.011152386489112657,
0.061396508728179554,0.02533202839294728,
0.06144638403990025,0.007701291741207865,
0.061496259351620945,0.03167268290880664,
0.06154613466334165,0.027135090892891164,
0.061596009975062344,0.003148054480807582,
0.06164588528678304,0.011794590115506364,
0.06169576059850374,0.023197101107290837,
0.06174563591022444,0.03109056907050895,
0.06179551122194514,0.020743744916298785,
0.061845386533665836,0.0007474612222334656,
0.06189526184538653,0.010608275075549518,
0.061945137157107234,0.014617270949889436,
0.06199501246882793,0.008506888342050012,
0.062044887780548626,0.03280843689127791,
0.06209476309226933,0.03246575781758571,
0.062144638403990024,0.02809694534579958,
0.06219451371571072,0.053803730839515326,
0.06224438902743142,0.012952993277933663,
0.06229426433915212,0.029254549002698593,
0.06234413965087282,0.0021998055042843044,
0.062394014962593516,0.037110531412864536,
0.06244389027431421,0.011511530871867398,
0.062493765586034915,0.0076619199288783385,
0.06254364089775562,0.0013822337615198056,
0.06259351620947631,0.04579612785926665,
0.06264339152119701,0.006647913798911827,
0.0626932668329177,0.029606593434039215,
0.0627431421446384,0.05074623253123557,
0.0627930174563591,0.01037599291259534,
0.0628428927680798,0.023691575932236763,
0.0628927680798005,0.03397248453475149,
0.0629426433915212,0.015126398469972921,
0.06299251870324189,0.011829147668251211,
0.06304239401496259,0.05481792784457527,
0.0630922693266833,0.042290758926412625,
0.063142144638404,0.03564851172907978,
0.06319201995012469,0.02384702583968469,
0.06324189526184539,0.02228158667815646,
0.06329177057356608,0.034223260082052676,
0.06334164588528678,0.03137807114982186,
0.06339152119700749,0.03762654365763219,
0.06344139650872818,0.014636218281100552,
0.06349127182044888,0.05663020039188915,
0.06354114713216957,0.03863886798727303,
0.06359102244389027,0.011598462872278259,
0.06364089775561098,0.05027423651499949,
0.06369077306733167,0.011984670578040587,
0.06374064837905237,0.014651472876823772,
0.06379052369077307,0.011613850584144063,
0.06384039900249376,0.016793932420876716,
0.06389027431421446,0.02606701222478664,
0.06394014962593517,0.03887826166360247,
0.06399002493765586,0.02965252917237763,
0.06403990024937656,0.01852809859510133,
0.06408977556109725,0.025298267436089036,
0.06413965087281795,0.009506195316680129,
0.06418952618453866,0.007056254359071954,
0.06423940149625935,0.03733335842998012,
0.06428927680798005,0.03366964907838324,
0.06433915211970075,0.00913093398463795,
0.06438902743142144,0.020935909411426184,
0.06443890274314215,0.010219583738887941,
0.06448877805486285,0.034851150629777124,
0.06453865336658354,-0.017806456099192364,
0.06458852867830424,0.014234399472765566,
0.06463840399002493,0.01324315503671947,
0.06468827930174563,0.0286674338013573,
0.06473815461346634,0.02881057468448265,
0.06478802992518704,0.012815239627478433,
0.06483790523690773,0.034799769560751835,
0.06488778054862843,-0.002893753066602247,
0.06493765586034912,0.032221597523698804,
0.06498753117206983,-0.0008703650652214651,
0.06503740648379053,0.034547646164334644,
0.06508728179551122,0.0030038182557131435,
0.06513715710723192,0.0036573207242466023,
0.06518703241895261,0.0250077077464048,
0.06523690773067331,0.018376952743079305,
0.06528678304239402,0.021423872413660762,
0.06533665835411472,0.01224138299611401,
0.06538653366583541,0.02851315705740351,
0.06543640897755611,0.02230705479531762,
0.0654862842892768,0.03895490828668714,
0.06553615960099751,-9.011518346517186e-05,
0.06558603491271821,0.015682426183926325,
0.0656359102244389,0.006454239728486981,
0.0656857855361596,0.026797558309266112,
0.0657356608478803,0.023051838409476277,
0.06578553615960099,0.02258317869511125,
0.0658354114713217,0.031542978756907605,
0.0658852867830424,0.02404578685942002,
0.06593516209476309,-0.02051530440352283,
0.06598503740648379,0.02515319177297894,
0.06603491271820448,0.024187667163537173,
0.06608478802992519,0.01574006234031771,
0.06613466334164589,0.013376594061029581,
0.06618453865336658,0.03627578556269306,
0.06623441396508728,-0.008892145028235899,
0.06628428927680798,0.01859628480099897,
0.06633416458852869,0.02791769983601398,
0.06638403990024938,0.011816278419497082,
0.06643391521197008,0.019280902830314674,
0.06648379052369077,0.0070811355972446675,
0.06653366583541147,-0.037628152292494256,
0.06658354114713216,0.013001354280381539,
0.06663341645885287,0.005713829937126797,
0.06668329177057357,0.011544769513622622,
0.06673316708229426,0.005387818592390113,
0.06678304239401496,0.012275463095239955,
0.06683291770573566,0.031071579920207034,
0.06688279301745637,-0.008551087645231263,
0.06693266832917706,0.019194108938338415,
0.06698254364089776,0.007205153577387401,
0.06703241895261845,-0.009669152980325418,
0.06708229426433915,0.03421315094610874,
0.06713216957605984,0.01336411215352764,
0.06718204488778055,0.02244421924394674,
0.06723192019950125,0.026755066162411606,
0.06728179551122195,-0.0020812220888406646,
0.06733167082294264,-0.009461795379253122,
0.06738154613466334,0.017070158106169832,
0.06743142144638405,0.013187541001701913,
0.06748129675810474,0.001245063777733031,
0.06753117206982544,0.053522690421972566,
0.06758104738154613,-0.01758517367803407,
0.06763092269326683,-0.0006085235700152994,
0.06768079800498752,-0.004253852171705166,
0.06773067331670823,-2.01001050647966e-05,
0.06778054862842893,0.005554025719510531,
0.06783042394014963,-0.009324349229416645,
0.06788029925187032,0.020731455697367885,
0.06793017456359102,0.018071632960883016,
0.06798004987531173,-0.02316661702898616,
0.06802992518703242,0.021944697444694065,
0.06807980049875312,-0.007776965955656132,
0.06812967581047381,0.023704747210512092,
0.06817955112219451,0.010996697116747906,
0.0682294264339152,-0.007034291577378697,
0.06827930174563591,0.021396827421405952,
0.06832917705735661,0.0076070816436859985,
0.0683790523690773,-0.007832498678636283,
0.068428927680798,0.008473246664980347,
0.0684788029925187,-0.01388113865555535,
0.06852867830423941,-0.011651416122536245,
0.0685785536159601,-0.029813079863643184,
0.0686284289276808,-0.002835235833706826,
0.0686783042394015,-0.004658347587058349,
0.06872817955112219,-0.008022006483366446,
0.0687780548628429,0.0050286426316126535,
0.0688279301745636,-0.010333782947180913,
0.06887780548628429,0.007637636675212734,
0.06892768079800499,-0.010865881433420505,
0.06897755610972568,-0.012083161683373962,
0.06902743142144638,0.010036646872095949,
0.06907730673316709,-0.013017948880527696,
0.06912718204488778,-0.005391700266432821,
0.06917705735660848,-0.009655892697189555,
0.06922693266832917,-0.017043240686972848,
0.06927680798004987,0.003564998472048002,
0.06932668329177058,-0.0068581215643783175,
0.06937655860349128,-0.011873414761159991,
0.06942643391521197,0.006232637246961374,
0.06947630922693267,-0.00781934227163198,
0.06952618453865336,0.01689373150235137,
0.06957605985037406,-0.02361626029841734,
0.06962593516209477,0.008480994986116534,
0.06967581047381546,-0.017812190931608574,
0.06972568578553616,0.0027616288625256615,
0.06977556109725686,-0.0011771113601946005,
0.06982543640897755,0.018494430062895913,
0.06987531172069826,-0.016025515843742184,
0.06992518703241896,-0.0005263988528893884,
0.06997506234413965,0.010049318202023993,
0.07002493765586035,-0.026206088607822343,
0.07007481296758104,-0.012778173294553774,
0.07012468827930174,-0.02047423071660098,
0.07017456359102245,-0.010861807921559368,
0.07022443890274314,0.01956596015910886,
0.07027431421446384,-0.026376079931410362,
0.07032418952618454,-0.03618268882095471,
0.07037406483790523,0.00018490060050821086,
0.07042394014962594,-0.018648543879182845,
0.07047381546134664,0.008029883846204119,
0.07052369077306733,-0.036463847458396634,
0.07057356608478803,-0.023065157597742855,
0.07062344139650872,-0.013315436844791778,
0.07067331670822943,-0.007675909369208509,
0.07072319201995013,-0.037532411447412636,
0.07077306733167082,-0.0029276612044838776,
0.07082294264339152,-0.025399588830246442,
0.07087281795511222,0.0034316236525535043,
0.07092269326683291,0.0017172051321174796,
0.07097256857855362,-0.011478137670607782,
0.07102244389027432,-0.0033306538731779235,
0.07107231920199501,-0.02208771154542415,
0.07112219451371571,-0.006323331000403148,
0.0711720698254364,-0.004928510709656611,
0.07122194513715711,-0.009299588333135805,
0.07127182044887781,0.003342700270143613,
0.0713216957605985,-0.03841750237968032,
0.0713715710723192,0.00826832120145592,
0.0714214463840399,-0.015751229640554126,
0.07147132169576059,-0.0015265122724332746,
0.0715211970074813,0.005241962706609003,
0.071571072319202,0.0066645249148111485,
0.0716209476309227,-0.0038000556475688493,
0.07167082294264339,0.006045084096778966,
0.07172069825436408,-0.01079654024024518,
0.0717705735660848,-0.04491478918061062,
0.07182044887780549,-0.006745542022168082,
0.07187032418952619,-0.028519717597119035,
0.07192019950124688,-0.02266586750567377,
0.07197007481296758,-0.017110385339871484,
0.07201995012468827,-0.015584331578687672,
0.07206982543640898,-0.022442989380120182,
0.07211970074812968,0.011211737183525899,
0.07216957605985037,-0.04781083516861626,
0.07221945137157107,0.003158062579765116,
0.07226932668329177,0.018413426939706014,
0.07231920199501247,0.0007676589956932163,
0.07236907730673317,0.0044074978610880375,
0.07241895261845387,-0.021953227387656947,
0.07246882793017456,-0.018455530216133605,
0.07251870324189526,-0.012185558209944105,
0.07256857855361595,-0.04699803444219813,
0.07261845386533666,0.009702742421737132,
0.07266832917705736,-0.02575115959184736,
0.07271820448877805,-0.012832510429940349,
0.07276807980049875,-0.02007950368296955,
0.07281795511221945,-0.005619082308418134,
0.07286783042394016,-0.037475303592815465,
0.07291770573566085,-0.012377631433359734,
0.07296758104738155,0.004460423081857255,
0.07301745635910224,-0.034059174871345604,
0.07306733167082294,0.012047555888902852,
0.07311720698254365,-0.019606919854434975,
0.07316708229426434,-0.021466283806449202,
0.07321695760598504,-0.004766556501680732,
0.07326683291770573,-0.0015396847771311905,
0.07331670822942643,-0.012070510018776506,
0.07336658354114713,0.0002839394139481956,
0.07341645885286784,-0.0022694499957741105,
0.07346633416458853,-0.024296213463633292,
0.07351620947630923,-0.02472759769716808,
0.07356608478802992,-0.020372510334219267,
0.07361596009975062,-0.03154071814908049,
0.07366583541147133,-0.02298935584357157,
0.07371571072319202,0.0072380186248589586,
0.07376558603491272,-0.018453843288626783,
0.07381546134663342,-0.003344849973379152,
0.07386533665835411,-0.009521039703458814,
0.0739152119700748,-0.0013390859514644006,
0.07396508728179552,-0.012800771759151697,
0.07401496259351621,-0.03198886595686955,
0.07406483790523691,-0.021418590254937316,
0.0741147132169576,-0.010031529768437686,
0.0741645885286783,0.026962336997097266,
0.07421446384039901,-0.022859937144599038,
0.0742643391521197,0.004582320749571125,
0.0743142144638404,-0.009766028724902395,
0.0743640897755611,-0.014930136332928293,
0.07441396508728179,-0.027510473662089918,
0.07446384039900249,0.0041210158680591216,
0.0745137157107232,-0.02833718117430264,
0.07456359102244389,0.007769492294919245,
0.07461346633416459,-0.01965715094415156,
0.07466334164588528,-0.01235429816126276,
0.07471321695760598,-0.031911290920497465,
0.07476309226932669,-0.010811921071719518,
0.07481296758104738,-0.005014289801948918,
0.07486284289276808,-0.026538103003507094,
0.07491271820448878,-0.01534737052347904,
0.07496259351620947,-0.004898719809332273,
0.07501246882793017,-0.010814883421526852,
0.07506234413965088,0.002756443608382571,
0.07511221945137157,-0.005877964942986567,
0.07516209476309227,-0.02036476190379883,
0.07521197007481296,-0.001694413971328676,
0.07526184538653366,-0.011258370827055563,
0.07531172069825437,-0.0003992465529790365,
0.07536159600997507,-0.024733591437796312,
0.07541147132169576,0.001002266345927167,
0.07546134663341646,0.025160374882532584,
0.07551122194513715,-0.0009830933221546623,
0.07556109725685786,0.003495826633575716,
0.07561097256857856,0.011892542963802434,
0.07566084788029925,0.006931384162837138,
0.07571072319201995,-0.022290772180138925,
0.07576059850374064,-0.006443043732293603,
0.07581047381546134,-0.013494907519417235,
0.07586034912718205,-0.026813207110890067,
0.07591022443890275,-0.007610195205114673,
0.07596009975062344,0.00345388549032692,
0.07600997506234414,0.004223685940247632,
0.07605985037406483,0.03410160334704996,
0.07610972568578554,-0.017663986653653214,
0.07615960099750624,-0.024305179638369492,
0.07620947630922693,-0.02541555832321343,
0.07625935162094763,0.002434610638843116,
0.07630922693266833,0.0008982882951841875,
0.07635910224438902,0.029463204665426342,
0.07640897755610973,-0.007389913380386275,
0.07645885286783043,-0.01480743229165863,
0.07650872817955112,-0.018995709505659417,
0.07655860349127182,0.004568493634866381,
0.07660847880299251,9.786635644959732e-05,
0.07665835411471322,-0.01931097163724945,
0.07670822942643392,0.004335664477684901,
0.07675810473815461,-0.018315166059384998,
0.07680798004987531,-0.019992053721923253,
0.076857855361596,-0.020004854243086113,
0.0769077306733167,-0.01136774644415753,
0.07695760598503741,-0.01668186131016783,
0.0770074812967581,-0.0003735211100987417,
0.0770573566084788,-0.0012795465804251714,
0.0771072319201995,-0.015872286020294446,
0.0771571072319202,-0.016013739734727344,
0.0772069825436409,-0.012928973592026804,
0.0772568578553616,0.0025120078762241936,
0.0773067331670823,0.01615275180740697,
0.07735660847880299,0.03521101340968365,
0.07740648379052369,0.001587147890497359,
0.0774563591022444,-0.034444730614859545,
0.07750623441396509,0.019248466369432695,
0.07755610972568579,0.006439044135273348,
0.07760598503740648,-0.01731296879701133,
0.07765586034912718,0.0085843190924255,
0.07770573566084787,-0.009130797053712812,
0.07775561097256858,0.012583013841798545,
0.07780548628428928,0.02116929872816304,
0.07785536159600998,0.036927690369870286,
0.07790523690773067,0.020675104782909858,
0.07795511221945137,-0.01128008104855436,
0.07800498753117208,0.006152171207756868,
0.07805486284289277,0.016586030997194565,
0.07810473815461347,0.02524687801618977,
0.07815461346633416,-0.0007484142287555069,
0.07820448877805486,-0.024129856213154374,
0.07825436408977555,-0.03788203063026885,
0.07830423940149626,0.02575432697145598,
0.07835411471321696,0.012870491072390456,
0.07840399002493766,0.021328941631062436,
0.07845386533665835,-0.008812554775596917,
0.07850374064837905,0.005549893149817588,
0.07855361596009976,-0.005135049059156148,
0.07860349127182045,-0.00907432798375109,
0.07865336658354115,-0.004965001168123463,
0.07870324189526184,0.006931533690710645,
0.07875311720698254,0.01118057653956022,
0.07880299251870324,0.012914343605586007,
0.07885286783042394,0.05237717401918643,
0.07890274314214464,0.0029913389926314628,
0.07895261845386534,0.018720950039566045,
0.07900249376558603,0.006308809953592027,
0.07905236907730673,0.03402685274222831,
0.07910224438902744,0.033898806711730504,
0.07915211970074813,-0.005985385792223038,
0.07920199501246883,0.00020104864143673587,
0.07925187032418952,0.018039577127043318,
0.07930174563591022,0.03394252157350347,
0.07935162094763092,0.031811486495982505,
0.07940149625935163,0.012457510331013345,
0.07945137157107232,0.02843021083533741,
0.07950124688279302,0.02070415452428358,
0.07955112219451371,0.00959817955337705,
0.07960099750623441,0.012698165280443933,
0.07965087281795512,0.024525348565120564,
0.07970074812967581,0.0190813782447151,
0.07975062344139651,0.005424334259505776,
0.0798004987531172,0.0051489104451842745,
0.0798503740648379,0.03110584608596592,
0.07990024937655861,0.001020535622683387,
0.0799501246882793,0.007138633997604723,
0.08,0.04406569422652974,
0.0800498753117207,0.004232164370809,
0.0800997506234414,0.00401466495132273,
0.08014962593516209,0.011803931466634245,
0.0801995012468828,0.02181270226983671,
0.0802493765586035,0.041199444937091205,
0.08029925187032419,0.008033288460660197,
0.08034912718204489,0.021580424831192487,
0.08039900249376558,0.02635778379079645,
0.08044887780548629,0.003766776489746722,
0.08049875311720699,0.008637209245375985,
0.08054862842892768,0.0026986755086594663,
0.08059850374064838,0.021311442617149002,
0.08064837905236907,0.02035567978581174,
0.08069825436408977,0.0362583091610216,
0.08074812967581048,0.028582626631935608,
0.08079800498753117,0.0309117315752285,
0.08084788029925187,-0.005054575939761084,
0.08089775561097257,0.04164368308289042,
0.08094763092269326,0.03288744911089525,
0.08099750623441397,0.04951716613081489,
0.08104738154613467,0.020257153659449398,
0.08109725685785536,0.011525491051848035,
0.08114713216957606,0.04728137934834678,
0.08119700748129675,0.027895385138985054,
0.08124688279301745,0.041915207866806234,
0.08129675810473816,0.00851286302576543,
0.08134663341645886,0.0028198374176529803,
0.08139650872817955,0.00997852205724241,
0.08144638403990025,0.023301396784309154,
0.08149625935162094,0.02969457300147938,
0.08154613466334165,0.01262293196844328,
0.08159600997506235,0.012229737171367381,
0.08164588528678304,0.01923997858920939,
0.08169576059850374,0.02061223119960494,
0.08174563591022443,0.030056979393282286,
0.08179551122194513,0.018432134089243126,
0.08184538653366584,0.038820708779188445,
0.08189526184538654,0.03610906421068195,
0.08194513715710723,0.03491539158086635,
0.08199501246882793,0.004176734570464791,
0.08204488778054862,0.009975820967632033,
0.08209476309226933,0.057606780851982904,
0.08214463840399003,0.01025128851445328,
0.08219451371571072,0.008487237974818474,
0.08224438902743142,0.032285140125391944,
0.08229426433915212,0.03503121235123656,
0.08234413965087282,0.018971528157023864,
0.08239401496259352,0.03511590127219305,
0.08244389027431422,0.02197936998155458,
0.08249376558603491,0.007278824141619712,
0.08254364089775561,0.022608145956485824,
0.0825935162094763,0.02378070899273285,
0.08264339152119701,0.052753658905127065,
0.08269326683291771,0.02742886317167272,
0.0827431421446384,0.04750366197097315,
0.0827930174563591,0.04212788379766855,
0.0828428927680798,0.02432334191479809,
0.0828927680798005,0.014305351030887554,
0.0829426433915212,-0.012698232959649572,
0.0829925187032419,0.012888247661782266,
0.08304239401496259,-0.002653595978567222,
0.08309226932668329,0.05530360903742097,
0.08314214463840398,0.024894223791222993,
0.0831920199501247,0.004585170718497521,
0.08324189526184539,0.020595665897714013,
0.08329177057356608,0.0286081868038474,
0.08334164588528678,0.01730989008939443,
0.08339152119700748,0.05132361797284607,
0.08344139650872819,0.0328338408744277,
0.08349127182044888,0.033442717665973384,
0.08354114713216958,0.006431878997700362,
0.08359102244389027,0.03284654004096183,
0.08364089775561097,0.019529917803399473,
0.08369077306733166,0.015692281222303348,
0.08374064837905237,0.04256901095573774,
0.08379052369077307,0.029395659815510133,
0.08384039900249377,0.02227826099834018,
0.08389027431421446,0.04883080150037368,
0.08394014962593516,0.008954441010053112,
0.08399002493765587,0.03140640544546236,
0.08403990024937656,0.033370679361269744,
0.08408977556109726,0.010164375219708564,
0.08413965087281795,0.03676208215406651,
0.08418952618453865,0.029324509681681245,
0.08423940149625936,0.050354405947334285,
0.08428927680798005,0.03455922583873486,
0.08433915211970075,0.012967964023652337,
0.08438902743142145,0.020237251422405483,
0.08443890274314214,0.0503797634140198,
0.08448877805486284,0.009888290723348462,
0.08453865336658355,-0.0015945761025001719,
0.08458852867830424,0.03301340875363046,
0.08463840399002494,0.026861869588741576,
0.08468827930174563,0.016382216868941004,
0.08473815461346633,0.015804758334711764,
0.08478802992518704,0.025374968510792562,
0.08483790523690773,0.017833412237579754,
0.08488778054862843,0.03589065237567417,
0.08493765586034913,0.015310941624988016,
0.08498753117206982,0.009321606806089556,
0.08503740648379052,0.03561066776529105,
0.08508728179551123,0.008114314053898064,
0.08513715710723192,0.05032856900751326,
0.08518703241895262,0.0017920619032888892,
0.08523690773067331,0.013300541107276489,
0.08528678304239401,0.03373010476525818,
0.08533665835411472,-0.020983416663881725,
0.08538653366583542,-0.001301332749836969,
0.08543640897755611,0.025378036806487078,
0.0854862842892768,0.03420426095943088,
0.0855361596009975,0.03221842698988054,
0.0855860349127182,0.004580820038490148,
0.08563591022443891,0.036556122778880255,
0.0856857855361596,0.03858257804332932,
0.0857356608478803,-0.005559823257601487,
0.085785536159601,0.03029653290087464,
0.08583541147132169,0.015626772755587506,
0.0858852867830424,0.014241141899606496,
0.0859351620947631,0.012395952434945708,
0.08598503740648379,0.024306054313465265,
0.08603491271820449,0.028922644643348077,
0.08608478802992518,0.03660324796505025,
0.08613466334164588,-0.009991623143101112,
0.08618453865336659,0.0218851611158537,
0.08623441396508728,0.03054738406754925,
0.08628428927680798,0.03769710957988541,
0.08633416458852868,0.003959138442480607,
0.08638403990024937,0.042405299060783705,
0.08643391521197008,0.006079262797113906,
0.08648379052369078,0.005750786536922925,
0.08653366583541147,0.05028531908287681,
0.08658354114713217,0.045739681146519384,
0.08663341645885286,0.009387373422747914,
0.08668329177057357,0.0446524687849159,
0.08673316708229427,0.012813970925819696,
0.08678304239401496,0.0032299468473362177,
0.08683291770573566,0.016415403117484316,
0.08688279301745636,0.008471854624689745,
0.08693266832917705,-0.004649922087880769,
0.08698254364089776,0.0040692677899388414,
0.08703241895261846,0.004172498709026463,
0.08708229426433915,-0.014069344319559408,
0.08713216957605985,-0.012871713411371803,
0.08718204488778054,-0.005060480234942426,
0.08723192019950125,0.0007004561116659147,
0.08728179551122195,0.004019141956298653,
0.08733167082294264,0.0262707550042031,
0.08738154613466334,0.01624808988664622,
0.08743142144638404,-0.012550844666234613,
0.08748129675810473,0.025750907344083706,
0.08753117206982544,0.004630003462261635,
0.08758104738154614,0.008336299995218868,
0.08763092269326683,-0.007070975469373486,
0.08768079800498753,0.012480679650171439,
0.08773067331670822,0.019615464992289514,
0.08778054862842893,-0.007888686451096336,
0.08783042394014963,0.00901892815507856,
0.08788029925187033,0.020713894684583303,
0.08793017456359102,-0.0038591889197808994,
0.08798004987531172,-0.009523393301993333,
0.08802992518703241,0.01581545596919859,
0.08807980049875312,0.004030944749098843,
0.08812967581047382,0.023683071429223233,
0.08817955112219451,-0.017525667744973307,
0.08822942643391521,-0.004420445626699375,
0.0882793017456359,0.02907356243798332,
0.08832917705735661,0.014544181445702235,
0.08837905236907731,-0.017285674205384818,
0.088428927680798,-0.018174525736583454,
0.0884788029925187,0.009677028501671918,
0.0885286783042394,-0.0053902200952964385,
0.0885785536159601,0.008793702727587348,
0.0886284289276808,-0.003630703711542154,
0.0886783042394015,-0.0061732590073134905,
0.0887281795511222,0.0026587797670532577,
0.08877805486284289,-0.016835522796934333,
0.08882793017456359,-0.02236248599245209,
0.0888778054862843,-0.007336449556765325,
0.08892768079800499,-0.003064917308508061,
0.08897755610972569,0.006705052978193665,
0.08902743142144638,-0.001760207565598504,
0.08907730673316708,0.006200732136078953,
0.08912718204488779,0.009628503486526208,
0.08917705735660848,-0.007702587088831336,
0.08922693266832918,-0.02563317860714101,
0.08927680798004987,0.0008509904455941009,
0.08932668329177057,-0.023917488286388643,
0.08937655860349127,0.0046758416336716915,
0.08942643391521198,0.004545757569730738,
0.08947630922693267,0.0123254272035936,
0.08952618453865337,0.010534130833050988,
0.08957605985037406,0.011777237221675636,
0.08962593516209476,0.008072789418777846,
0.08967581047381547,-0.00712423414624672,
0.08972568578553616,-0.002667747212296137,
0.08977556109725686,-0.006199506012753672,
0.08982543640897755,-0.0033939106156713255,
0.08987531172069825,0.022972367818079684,
0.08992518703241895,0.00015161089560439787,
0.08997506234413966,0.005012979722264808,
0.09002493765586035,-0.002949180695688867,
0.09007481296758105,-0.021021608580721322,
0.09012468827930174,-0.027681972341089125,
0.09017456359102244,0.020925545010224873,
0.09022443890274315,-0.015337162358059564,
0.09027431421446384,-0.011521416232426617,
0.09032418952618454,-0.023904480435947926,
0.09037406483790524,-0.013339380337973081,
0.09042394014962593,-0.02802772619672486,
0.09047381546134663,-0.009007219023323606,
0.09052369077306734,-0.033083128314769034,
0.09057356608478803,0.012818782926560135,
0.09062344139650873,-0.015514739953203252,
0.09067331670822942,-0.010261226214444665,
0.09072319201995012,0.016277132611317514,
0.09077306733167083,-0.0028693666178111364,
0.09082294264339152,-0.03738065194256744,
0.09087281795511222,-0.03859820260722019,
0.09092269326683292,-0.011489867302967128,
0.09097256857855361,-0.011015149999962181,
0.09102244389027432,0.027485370292514383,
0.09107231920199502,0.0071619872080515845,
0.09112219451371571,-0.017285123425214655,
0.09117206982543641,-0.03189975610964342,
0.0912219451371571,-0.012025441836029216,
0.0912718204488778,-0.0037741072176518215,
0.09132169576059851,-0.023891330036550196,
0.0913715710723192,-0.0073323900725417,
0.0914214463840399,0.007617971936665328,
0.0914713216957606,0.0025825534381915607,
0.09152119700748129,0.0002023864395979541,
0.091571072319202,-0.009441332543109235,
0.0916209476309227,-0.030586071201420224,
0.09167082294264339,0.006766562511113537,
0.09172069825436409,-0.025302209999165853,
0.09177057356608478,-0.02474577660170879,
0.09182044887780548,-0.028390848199117583,
0.09187032418952619,-0.03222550196457391,
0.09192019950124689,-0.006159154037926844,
0.09197007481296758,-0.04079949339538428,
0.09201995012468828,-0.01715655049956587,
0.09206982543640897,-0.013272600082196776,
0.09211970074812968,0.003969006814765252,
0.09216957605985038,-0.011867758374525956,
0.09221945137157107,-0.024363913608578522,
0.09226932668329177,-0.0070808433301701385,
0.09231920199501246,-0.030881843675719917,
0.09236907730673316,-0.023805250164453867,
0.09241895261845387,0.005357154077774245,
0.09246882793017457,-0.0045903561992680295,
0.09251870324189526,-0.00925898484122497,
0.09256857855361596,-0.030933815923194198,
0.09261845386533665,0.0035951726041900355,
0.09266832917705736,-0.0053000279061774964,
0.09271820448877806,-0.004420694802326276,
0.09276807980049875,-0.016003412890926202,
0.09281795511221945,-0.009961846271382663,
0.09286783042394015,0.005638858903131483,
0.09291770573566084,-0.02551867295816515,
0.09296758104738155,-0.008082055354992623,
0.09301745635910225,-0.02489533232678516,
0.09306733167082294,-0.005455611911373549,
0.09311720698254364,-0.03201198483188804,
0.09316708229426433,-0.016530245377690427,
0.09321695760598504,-0.022599653939472795,
0.09326683291770574,0.000818932436969913,
0.09331670822942643,-0.006778108810790461,
0.09336658354114713,-0.03247025372179137,
0.09341645885286783,-0.017446940317997553,
0.09346633416458854,-0.016985279972236315,
0.09351620947630923,0.0025486701873258643,
0.09356608478802993,0.001413732557904666,
0.09361596009975062,-0.010321966889902084,
0.09366583541147132,-0.014575649508720315,
0.09371571072319201,-0.021127501279466672,
0.09376558603491272,-0.02106335715526203,
0.09381546134663342,-0.02622132929589768,
0.09386533665835411,-0.04206290189934731,
0.09391521197007481,-0.012838073349052239,
0.0939650872817955,-0.027205361714489888,
0.09401496259351622,-0.03353301654714323,
0.09406483790523691,-0.008704937192507195,
0.09411471321695761,-0.022700715715544603,
0.0941645885286783,0.005698347902508356,
0.094214463840399,-0.014129396481008766,
0.0942643391521197,-0.020649939406391052,
0.0943142144638404,-0.028157396217679282,
0.0943640897755611,-0.001533068875194176,
0.0944139650872818,0.0005492212574130777,
0.09446384039900249,-0.013275134545487264,
0.09451371571072319,-0.012856071209847861,
0.0945635910224439,-0.020393140306398813,
0.09461346633416459,-0.040711136402490924,
0.09466334164588529,-0.00769996747446974,
0.09471321695760598,-0.002541774814283737,
0.09476309226932668,-0.006325170352734102,
0.09481296758104737,-0.034348333632097175,
0.09486284289276808,0.00715068276722991,
0.09491271820448878,0.01277625774162501,
0.09496259351620948,-0.006470435825169692,
0.09501246882793017,-0.006506866824686165,
0.09506234413965087,-0.019468039197510684,
0.09511221945137158,0.010905565155921369,
0.09516209476309227,0.004740565740173589,
0.09521197007481297,0.010510370308163805,
0.09526184538653366,0.001648108849351594,
0.09531172069825436,-0.009800408522867685,
0.09536159600997507,-0.01820285405174028,
0.09541147132169576,-0.02985000579741757,
0.09546134663341646,-0.013445022953465911,
0.09551122194513716,-0.01298260566789352,
0.09556109725685785,-0.0013679765379821024,
0.09561097256857855,-0.021082482624100028,
0.09566084788029926,-0.002072220816917724,
0.09571072319201995,-0.01054528277846803,
0.09576059850374065,-0.019836810655532625,
0.09581047381546134,-0.020650953392208588,
0.09586034912718204,0.0008358915292405724,
0.09591022443890275,-0.013695872768323993,
0.09596009975062345,0.005804611294016487,
0.09600997506234414,-0.00020271319283209554,
0.09605985037406484,0.017067281703009633,
0.09610972568578553,8.575291264799247e-05,
0.09615960099750623,-0.023924084264942115,
0.09620947630922694,-0.00852631263189324,
0.09625935162094763,-0.00986115463517587,
0.09630922693266833,-0.002853751884613161,
0.09635910224438902,-0.008457516181584595,
0.09640897755610972,0.009198394295312572,
0.09645885286783043,0.01990209484468942,
0.09650872817955113,0.01954641942032608,
0.09655860349127182,0.006203893881972438,
0.09660847880299252,0.0023171239553209334,
0.09665835411471321,0.0007086951968626526,
0.09670822942643391,0.009319768407534788,
0.09675810473815462,0.024871573213580293,
0.09680798004987531,0.024008431707258478,
0.09685785536159601,-0.0007101387762196666,
0.0969077306733167,0.01235211313609301,
0.0969576059850374,0.002361606113317073,
0.09700748129675811,-0.006039799215743724,
0.0970573566084788,-0.004854965336929047,
0.0971072319201995,0.009572629398286967,
0.0971571072319202,0.0018714335675526035,
0.0972069825436409,0.01400237159023899,
0.09725685785536159,-0.011053606927658166,
0.0973067331670823,0.02347685519482712,
0.097356608478803,0.001109644651316927,
0.09740648379052369,-0.0003114344992989834,
0.09745635910224439,0.005979451383022583,
0.09750623441396508,0.011959842934950466,
0.09755610972568579,0.005763121880888639,
0.09760598503740649,0.010405000913972826,
0.09765586034912718,9.138016048051197e-05,
0.09770573566084788,-0.0003153083332722963,
0.09775561097256857,-0.018621821368760335,
0.09780548628428928,0.010389122801745757,
0.09785536159600998,-0.004809151570298496,
0.09790523690773068,-0.013656753494773823,
0.09795511221945137,0.01894727927452263,
0.09800498753117207,-0.0028865427655724828,
0.09805486284289276,-0.015606274928516684,
0.09810473815461347,0.020031988193461137,
0.09815461346633417,-0.011102777094724185,
0.09820448877805486,0.01968391528871172,
0.09825436408977556,0.015056698877069008,
0.09830423940149625,0.02377660839391409,
0.09835411471321696,0.012693942895766263,
0.09840399002493766,0.03554846764718171,
0.09845386533665836,-0.016807796018650963,
0.09850374064837905,-0.005509844028192587,
0.09855361596009975,0.031798522508422196,
0.09860349127182044,0.04035114504205557,
0.09865336658354115,0.011446166450419716,
0.09870324189526185,0.019882342478723364,
0.09875311720698254,0.015242199164018486,
0.09880299251870324,-0.0011284214905163993,
0.09885286783042393,0.028407557068719273,
0.09890274314214464,0.005083058029699066,
0.09895261845386534,0.011775966519496245,
0.09900249376558604,0.009039018614770928,
0.09905236907730673,0.007808801843271059,
0.09910224438902743,0.014188121436521277,
0.09915211970074812,0.03627071016614402,
0.09920199501246883,0.04059914757940824,
0.09925187032418953,0.0013258312963308535,
0.09930174563591022,0.02919034342040374,
0.09935162094763092,0.012513511067451646,
0.09940149625935162,0.0019077490901769096,
0.09945137157107233,0.01159793176763784,
0.09950124688279302,-0.010060529446734433,
0.09955112219451372,0.01520071118393872,
0.09960099750623441,0.002898837965354284,
0.09965087281795511,0.02212393851153611,
0.0997007481296758,0.03837761768334235,
0.09975062344139651,0.003942727246693117,
0.09980049875311721,0.035268244918631966,
0.0998503740648379,0.023983973343482387,
0.0999002493765586,0.01671314601540689,
0.0999501246882793,0.005472872130956121,
0.1,0.0304939793543584,
0.1000498753117207,0.021853485849573546,
0.1000997506234414,0.023692840668348956,
0.10014962593516209,0.0010792971002082687,
0.10019950124688279,0.028864849056560307,
0.1002493765586035,0.01112181805405652,
0.1002992518703242,0.004361234366568659,
0.10034912718204489,0.004635531462213058,
0.10039900249376559,0.003582431740652002,
0.10044887780548628,0.023252418818048813,
0.10049875311720698,0.02955691164979097,
0.10054862842892769,0.01835829559912005,
0.10059850374064838,1.8686063632152028e-06,
0.10064837905236908,0.006189933818464173,
0.10069825436408977,0.018367600064666714,
0.10074812967581047,0.05200657680398285,
0.10079800498753118,0.011286584631345516,
0.10084788029925187,0.02893185131914088,
0.10089775561097257,0.014433065926156946,
0.10094763092269327,0.015183063472809387,
0.10099750623441396,0.045202441827178974,
0.10104738154613466,0.019923674153270662,
0.10109725685785537,0.014986657488780836,
0.10114713216957606,0.042353506094196705,
0.10119700748129676,0.018261444784396424,
0.10124688279301745,-0.0021220774572781667,
0.10129675810473815,0.04964628344492732,
0.10134663341645886,0.011218793655982377,
0.10139650872817955,0.050265112204737936,
0.10144638403990025,0.01946236468230829,
0.10149625935162095,0.007424515198627406,
0.10154613466334164,0.023297696167114548,
0.10159600997506234,0.011576634848097166,
0.10164588528678305,0.00210795334417924,
0.10169576059850374,0.05027336994418344,
0.10174563591022444,0.010355519802725116,
0.10179551122194513,0.016110892920894217,
0.10184538653366583,0.03664299624683107,
0.10189526184538654,0.031819385505318945,
0.10194513715710724,0.02513399610039239,
0.10199501246882793,0.02891627934760299,
0.10204488778054863,0.030016932797760305,
0.10209476309226932,0.04970694556929551,
0.10214463840399003,0.021101423819068772,
0.10219451371571073,0.01622221576470773,
0.10224438902743142,0.016773467533722823,
0.10229426433915212,0.02516747709489293,
0.10234413965087281,0.03603522874820428,
0.10239401496259351,0.012541921480510088,
0.10244389027431422,0.02330667945095561,
0.10249376558603492,-0.0015023366962178507,
0.10254364089775561,0.038844004800848736,
0.10259351620947631,-0.004037521075627631,
0.102643391521197,0.03962142090309402,
0.10269326683291771,0.029506995815163486,
0.10274314214463841,0.038728397662146676,
0.1027930174563591,0.05476870504216095,
0.1028428927680798,0.048573385844264266,
0.1028927680798005,0.0419732048884093,
0.10294264339152119,-0.002383004160246255,
0.1029925187032419,0.021719755459411103,
0.1030423940149626,0.019150043286908038,
0.10309226932668329,0.05146117390897263,
0.10314214463840399,0.021337135514583848,
0.10319201995012468,0.0147169274432727,
0.10324189526184539,0.02579287251285657,
0.10329177057356609,0.04023515660446338,
0.10334164588528678,0.027938315968554672,
0.10339152119700748,0.01622342570939762,
0.10344139650872818,0.07037266269705975,
0.10349127182044887,0.025364835437430743,
0.10354114713216958,0.03142268852948383,
0.10359102244389028,-0.006395694576001431,
0.10364089775561097,0.01207200483678742,
0.10369077306733167,0.030958769159294172,
0.10374064837905236,0.031194975103629494,
0.10379052369077307,0.03191389089837578,
0.10384039900249377,0.024062050949395154,
0.10389027431421446,0.03308965042656737,
0.10394014962593516,0.0009567243885757679,
0.10399002493765586,0.02765794967956552,
0.10403990024937655,0.02823358792395696,
0.10408977556109726,0.026422636919983325,
0.10413965087281796,0.021292935114491766,
0.10418952618453865,0.022380519958749834,
0.10423940149625935,0.03351605173969116,
0.10428927680798004,0.03736577605817069,
0.10433915211970075,0.016106504421418602,
0.10438902743142145,0.050199222306953964,
0.10443890274314215,0.055577668239803965,
0.10448877805486284,0.029494539872912392,
0.10453865336658354,0.018452592147287786,
0.10458852867830425,0.05602553285663612,
0.10463840399002494,0.03320288424330593,
0.10468827930174564,0.01499058113031186,
0.10473815461346633,0.028699822432224062,
0.10478802992518703,0.03955263377139163,
0.10483790523690772,0.035168667927190186,
0.10488778054862843,0.032236788925199183,
0.10493765586034913,0.0073728420589128305,
0.10498753117206983,0.0013361384187729475,
0.10503740648379052,-0.012780965484763193,
0.10508728179551122,0.0013405685678509645,
0.10513715710723193,0.0464324053007671,
0.10518703241895262,0.015716251973797696,
0.10523690773067332,0.023561534987047727,
0.10528678304239401,0.0010188415273881812,
0.10533665835411471,0.05267417594516846,
0.1053865336658354,0.033444951597852164,
0.10543640897755611,0.01958354523380621,
0.10548628428927681,0.0062695734190898345,
0.1055361596009975,0.00585997682472604,
0.1055860349127182,0.00965145782787597,
0.1056359102244389,0.04017315940551122,
0.10568578553615961,0.013933060885635415,
0.1057356608478803,0.004520400910881524,
0.105785536159601,0.025638190983396463,
0.1058354114713217,0.002819257983591488,
0.10588528678304239,0.016753729998046127,
0.10593516209476309,0.01623009034390742,
0.1059850374064838,0.02844248315528044,
0.10603491271820449,0.011736577965848514,
0.10608478802992519,0.027257768204338218,
0.10613466334164588,0.05553112556852039,
0.10618453865336658,0.009482356049022774,
0.10623441396508729,0.018441639276413808,
0.10628428927680798,0.0035547443040750554,
0.10633416458852868,0.01866075886836681,
0.10638403990024937,-0.002450497793443026,
0.10643391521197007,0.03224717560561751,
0.10648379052369077,0.02155079695888213,
0.10653366583541148,-0.005280379646644587,
0.10658354114713217,0.0016998753836123051,
0.10663341645885287,-0.014416818795580632,
0.10668329177057356,0.031636357777979573,
0.10673316708229426,0.007025365376931626,
0.10678304239401497,-0.006558142493288073,
0.10683291770573566,0.043047387437561195,
0.10688279301745636,0.007969373546675328,
0.10693266832917706,0.009212003587322819,
0.10698254364089775,0.018411715798204983,
0.10703241895261846,0.013561898679277349,
0.10708229426433916,0.015518578376283801,
0.10713216957605985,0.01670574146686923,
0.10718204488778055,-0.005687487875503038,
0.10723192019950124,0.028184325589805,
0.10728179551122194,0.03985213732491524,
0.10733167082294265,-0.0020193620097326784,
0.10738154613466334,0.005450629860571962,
0.10743142144638404,0.018236084126316852,
0.10748129675810474,0.02396695210458306,
0.10753117206982543,0.02411379406039351,
0.10758104738154614,0.007769493611928101,
0.10763092269326684,-0.010716981204398419,
0.10768079800498753,-0.004727136541397054,
0.10773067331670823,0.007744506189198621,
0.10778054862842892,0.023611141919245238,
0.10783042394014962,-0.02718046300141371,
0.10788029925187033,0.030974788866032284,
0.10793017456359102,0.003891448574369135,
0.10798004987531172,0.00648914207477186,
0.10802992518703242,0.009001982268507288,
0.10807980049875311,0.010419321490577907,
0.10812967581047382,-0.002409764589829744,
0.10817955112219452,0.017299752756674294,
0.10822942643391521,0.00641294207161457,
0.10827930174563591,0.0220577355876758,
0.1083291770573566,0.001474587441808823,
0.1083790523690773,-0.006033292002552032,
0.10842892768079801,0.03407433719809433,
0.1084788029925187,0.02658686734255642,
0.1085286783042394,0.023407454365186917,
0.1085785536159601,0.0026962963285554085,
0.10862842892768079,-0.005296913120548645,
0.1086783042394015,-0.00860901804090691,
0.1087281795511222,-0.01050709349852312,
0.1087780548628429,0.0008893201883663597,
0.10882793017456359,-0.0071640407996534285,
0.10887780548628428,-0.008673383181297538,
0.108927680798005,-0.026347033211807085,
0.10897755610972569,-0.004715589096851499,
0.10902743142144639,-0.009195767881952754,
0.10907730673316708,0.004174246210640588,
0.10912718204488778,-0.02354170280472627,
0.10917705735660847,0.0091410732824983,
0.10922693266832918,0.0017530997586508957,
0.10927680798004988,0.025461043940160237,
0.10932668329177057,0.029650384916790395,
0.10937655860349127,-0.023294661405487964,
0.10942643391521197,0.018632891773481673,
0.10947630922693267,0.004310632261178826,
0.10952618453865337,-0.025366882134203177,
0.10957605985037407,0.015398818247932532,
0.10962593516209476,-0.0051824760912683975,
0.10967581047381546,0.012873125500483308,
0.10972568578553615,-0.01965240059954975,
0.10977556109725686,-0.008451556526834079,
0.10982543640897756,-0.008500072087549895,
0.10987531172069825,0.005072713472034753,
0.10992518703241895,0.00788161743252542,
0.10997506234413965,-0.0020650049867399355,
0.11002493765586036,-0.015694866157190037,
0.11007481296758105,0.00018227993332846533,
0.11012468827930175,0.004786658321712182,
0.11017456359102244,-0.009405597118792991,
0.11022443890274314,-0.024422862905324,
0.11027431421446383,-0.018034546097500874,
0.11032418952618454,-0.03248802270134049,
0.11037406483790524,-0.017121779596937108,
0.11042394014962593,0.002545203642234428,
0.11047381546134663,0.006110654844827319,
0.11052369077306733,0.017347767774814157,
0.11057356608478804,-0.005005312340892652,
0.11062344139650873,-0.0013588187433902724,
0.11067331670822943,0.00127952480530996,
0.11072319201995012,-0.024708761871767595,
0.11077306733167082,0.010811325970329124,
0.11082294264339151,-0.005601727393899661,
0.11087281795511222,0.008319038284143336,
0.11092269326683292,0.013591479033993208,
0.11097256857855362,-0.0009432084321169196,
0.11102244389027431,0.0004922195049782366,
0.111072319201995,0.007126836794356092,
0.11112219451371572,0.006170201849872395,
0.11117206982543641,0.004928327010870861,
0.11122194513715711,-0.0008815414971323227,
0.1112718204488778,-0.0034486242690773793,
0.1113216957605985,-0.02109804628644125,
0.11137157107231921,-0.021195344212282294,
0.1114214463840399,-0.020006526042117067,
0.1114713216957606,-0.005951712465612572,
0.1115211970074813,-0.0238128958953575,
0.11157107231920199,0.016774387364264003,
0.11162094763092269,0.0011402089328764325,
0.1116708229426434,0.02983419900575361,
0.11172069825436409,-0.008718610698887533,
0.11177057356608479,-0.006518996135249489,
0.11182044887780548,0.00690054826454123,
0.11187032418952618,-0.018148530397849177,
0.11192019950124689,0.030397533906286,
0.11197007481296758,0.00260411191740155,
0.11201995012468828,-0.02424996672581501,
0.11206982543640898,0.011781363445219982,
0.11211970074812967,-0.009689651831567708,
0.11216957605985037,-0.026708026824206456,
0.11221945137157108,-0.023219975128910147,
0.11226932668329177,-0.022800503960583897,
0.11231920199501247,0.0058294401807187455,
0.11236907730673316,0.004721295948547144,
0.11241895261845386,0.006196932039363768,
0.11246882793017457,-0.0329019070462122,
0.11251870324189527,0.017510716780702287,
0.11256857855361596,-0.0017052049116173477,
0.11261845386533666,0.010819609410966814,
0.11266832917705735,0.005423592136990925,
0.11271820448877805,0.016579519344565224,
0.11276807980049876,-0.008117616345213283,
0.11281795511221945,0.0026817885925643093,
0.11286783042394015,0.009398799226525171,
0.11291770573566084,0.013608051440559083,
0.11296758104738154,-0.0015031304120061064,
0.11301745635910225,-0.0204552892739858,
0.11306733167082295,-0.009076568510249194,
0.11311720698254364,-0.00893295578614056,
0.11316708229426434,-0.017414994384009893,
0.11321695760598503,0.02088201002402098,
0.11326683291770574,-0.010209028193835042,
0.11331670822942644,-0.03716062323190047,
0.11336658354114713,-0.0023649120093437587,
0.11341645885286783,0.0051628015280460945,
0.11346633416458853,0.016991785331253253,
0.11351620947630922,0.008680766363782741,
0.11356608478802993,-0.033446224109280824,
0.11361596009975063,-0.058609288060078236,
0.11366583541147132,-0.00476002187954391,
0.11371571072319202,-0.007380731571792242,
0.11376558603491271,-0.013375255693903871,
0.11381546134663342,-0.03588935761662135,
0.11386533665835412,-0.004792426585943785,
0.11391521197007481,0.01124109035842083,
0.11396508728179551,0.005254912619074795,
0.1140149625935162,0.001272870856713286,
0.1140648379052369,-0.0063685852572957,
0.11411471321695761,-0.014414228699866022,
0.1141645885286783,-0.039729721619626214,
0.114214463840399,-0.006322752163306905,
0.1142643391521197,-0.014465021470148037,
0.1143142144638404,0.03103437324504563,
0.1143640897755611,-0.00943387204826233,
0.1144139650872818,-0.004598513483057974,
0.1144638403990025,-0.007762959241221384,
0.11451371571072319,-0.008515584536851861,
0.11456359102244389,-0.002660558985347821,
0.11461346633416458,-0.02745567774709887,
0.11466334164588529,-0.00566202715053022,
0.11471321695760599,-0.01475959457269138,
0.11476309226932668,-0.026156818489044525,
0.11481296758104738,-0.001850135538117496,
0.11486284289276807,-0.005392158458417156,
0.11491271820448878,-0.0207636443038435,
0.11496259351620948,-0.024853647057233585,
0.11501246882793018,-0.01591360249392307,
0.11506234413965087,-0.0038411366119104774,
0.11511221945137157,-0.010299955208221728,
0.11516209476309226,-0.0020492878435678687,
0.11521197007481297,-0.05820036087238545,
0.11526184538653367,-0.01801498951501411,
0.11531172069825436,-0.004734888775868657,
0.11536159600997506,-0.0344175847902573,
0.11541147132169575,0.008939486946332446,
0.11546134663341646,-0.008648734290369185,
0.11551122194513716,0.00337177981369401,
0.11556109725685786,0.007448521058682409,
0.11561097256857855,-0.016712264992417937,
0.11566084788029925,-0.01513452123539888,
0.11571072319201996,-0.005889222231507323,
0.11576059850374065,0.024594862044868666,
0.11581047381546135,-0.004169628914986058,
0.11586034912718204,-0.02386451341680756,
0.11591022443890274,-0.0024371259312327763,
0.11596009975062344,0.019286976251674012,
0.11600997506234415,-0.020300299742519914,
0.11605985037406484,-0.0042707074310124275,
0.11610972568578554,-0.017968550211634952,
0.11615960099750623,0.006377544788275993,
0.11620947630922693,0.010893384546184366,
0.11625935162094764,0.006316237602689699,
0.11630922693266833,-0.0029698907953405796,
0.11635910224438903,0.0017782969125049739,
0.11640897755610972,0.004223058141561498,
0.11645885286783042,0.0003460640254813228,
0.11650872817955112,0.01959811461701566,
0.11655860349127183,-0.017880250459549055,
0.11660847880299252,0.00016203261089499247,
0.11665835411471322,-0.010142973638291128,
0.11670822942643391,0.025670402913214235,
0.11675810473815461,0.018191515466363203,
0.11680798004987532,0.01764908232394336,
0.11685785536159601,-0.029713271694733492,
0.11690773067331671,0.00942996568596952,
0.1169576059850374,-0.008537644461395308,
0.1170074812967581,0.0037243601934085213,
0.1170573566084788,-0.018772261797091096,
0.1171072319201995,0.01524247819366116,
0.1171571072319202,0.015081032312546507,
0.1172069825436409,0.013360748012675767,
0.1172568578553616,0.03738856242836293,
0.11730673316708229,0.006240622436835483,
0.117356608478803,0.021119834857544928,
0.1174064837905237,0.009326007875178555,
0.11745635910224439,0.008758510031011704,
0.11750623441396509,0.012738912420753437,
0.11755610972568578,0.016524379159878186,
0.11760598503740648,0.01490357428098013,
0.11765586034912719,-0.03249677569967417,
0.11770573566084788,0.013778789849367267,
0.11775561097256858,0.0239126373250049,
0.11780548628428927,0.013060765446237273,
0.11785536159600997,0.028494118042992036,
0.11790523690773068,0.0034800459663570926,
0.11795511221945137,0.01167893234404412,
0.11800498753117207,0.046399958262327456,
0.11805486284289277,-0.008433061491637823,
0.11810473815461346,-0.01598336887714379,
0.11815461346633417,0.011755837512285204,
0.11820448877805487,0.021798188803547967,
0.11825436408977556,0.04126290481858992,
0.11830423940149626,0.0016503231773728338,
0.11835411471321695,0.025357205172505733,
0.11840399002493765,0.02489424012738896,
0.11845386533665836,0.03151451653651002,
0.11850374064837906,0.010146735731736897,
0.11855361596009975,-0.0015245773392978824,
0.11860349127182045,0.026900374573181365,
0.11865336658354114,0.013807342002460178,
0.11870324189526185,0.013278121346813701,
0.11875311720698255,0.013889619902311174,
0.11880299251870324,0.00817005229997377,
0.11885286783042394,0.00032345247630330594,
0.11890274314214463,0.0166338010966457,
0.11895261845386533,0.006239457285841547,
0.11900249376558604,0.025508446063848375,
0.11905236907730674,0.026222635978982948,
0.11910224438902743,0.0053915423257378525,
0.11915211970074813,0.00012000119162653561,
0.11920199501246882,0.033604864848825244,
0.11925187032418953,0.011186703409154408,
0.11930174563591023,0.013347571198516803,
0.11935162094763092,0.017422727071467428,
0.11940149625935162,0.04139347006713244,
0.11945137157107232,0.037905886751072995,
0.11950124688279301,0.002612695181070268,
0.11955112219451372,-0.008099346774619435,
0.11960099750623442,0.026961907431113534,
0.11965087281795511,0.025543368669840142,
0.11970074812967581,0.02636004319597989,
0.1197506234413965,0.026548723093050078,
0.11980049875311721,0.03391691354647913,
0.11985037406483791,-0.00266521047263538,
0.1199002493765586,2.1293264885896557e-05,
0.1199501246882793,0.023508887483746167,
0.12,0.020177067464541693,
0.1200498753117207,0.02264259129758503,
0.1200997506234414,0.02022960492952087,
0.1201496259351621,0.015359392699724864,
0.12019950124688279,0.01675357766859516,
0.12024937655860349,0.02436087105526398,
0.12029925187032418,0.015659704896659233,
0.1203491271820449,0.02196487796945785,
0.12039900249376559,0.019747675065590865,
0.12044887780548628,0.027112367490548985,
0.12049875311720698,0.018208007301336374,
0.12054862842892768,0.010315764523246508,
0.12059850374064839,0.0008993600585208046,
0.12064837905236908,0.06009518120071892,
0.12069825436408978,0.047901580583329634,
0.12074812967581047,0.01194087808141957,
0.12079800498753117,0.035172492792834756,
0.12084788029925186,0.01986472695212803,
0.12089775561097257,0.04280006194620009,
0.12094763092269327,0.024497718483631567,
0.12099750623441397,0.053055186155213194,
0.12104738154613466,0.01726474061732072,
0.12109725685785536,0.026339485685947628,
0.12114713216957607,0.018197900329183087,
0.12119700748129676,0.06147267652685762,
0.12124688279301746,0.04039012659548056,
0.12129675810473815,0.02301388921271611,
0.12134663341645885,0.03618939079986806,
0.12139650872817954,0.0209683469222336,
0.12144638403990025,0.012087135996234004,
0.12149625935162095,0.0010994995752835468,
0.12154613466334165,0.018326015715551848,
0.12159600997506234,0.0132296638192592,
0.12164588528678304,0.022870654383790934,
0.12169576059850375,0.015179095263274883,
0.12174563591022444,0.03115893380285517,
0.12179551122194514,0.03818299268608606,
0.12184538653366583,0.030736951465779892,
0.12189526184538653,0.049361043368530685,
0.12194513715710723,0.03159714387490565,
0.12199501246882793,0.05120461969884933,
0.12204488778054863,0.038747737719311864,
0.12209476309226933,0.020824483161211084,
0.12214463840399002,0.04292244640398962,
0.12219451371571072,0.05047348374528724,
0.12224438902743143,0.04911422629095326,
0.12229426433915212,0.03904938506442506,
0.12234413965087282,0.037600089485292934,
0.12239401496259351,0.02116577383444728,
0.12244389027431421,-0.00166492722697284,
0.12249376558603492,0.025957740625434562,
0.12254364089775562,0.07051703185525623,
0.12259351620947631,0.007200077432142623,
0.122643391521197,0.010886600811761422,
0.1226932668329177,0.03894338978852912,
0.1227431421446384,0.021364399791959393,
0.12279301745635911,0.042727431340401655,
0.1228428927680798,0.009573618428656387,
0.1228927680798005,0.009253023640619452,
0.1229426433915212,0.03575778339171594,
0.12299251870324189,0.05128268392284817,
0.1230423940149626,0.03513690689743458,
0.1230922693266833,0.011869388674059508,
0.12314214463840399,0.034367276622682574,
0.12319201995012469,0.005556730040232796,
0.12324189526184538,0.04121508609777322,
0.12329177057356608,0.013134085593595607,
0.12334164588528679,0.03099691982456881,
0.12339152119700748,0.025782199605617194,
0.12344139650872818,0.05268063441164689,
0.12349127182044888,0.011759659152036205,
0.12354114713216957,0.0432323295785946,
0.12359102244389028,0.02771233017282639,
0.12364089775561098,0.04041098759072293,
0.12369077306733167,0.02613963204661047,
0.12374064837905237,0.06266537140734432,
0.12379052369077306,0.043638616032513164,
0.12384039900249376,0.022786458931388767,
0.12389027431421447,0.01940171129666684,
0.12394014962593516,-0.0026923220265226977,
0.12399002493765586,0.019470692137591686,
0.12403990024937656,0.0406718353604197,
0.12408977556109725,0.04071612111659757,
0.12413965087281796,0.013581506043172683,
0.12418952618453866,0.01380316248287691,
0.12423940149625935,0.013617266286747072,
0.12428927680798005,0.020776762860705233,
0.12433915211970074,0.043193183437480825,
0.12438902743142144,0.03368038020878694,
0.12443890274314215,0.04415241511608567,
0.12448877805486284,0.03794845797859778,
0.12453865336658354,0.04681630951996829,
0.12458852867830424,0.01974292827053757,
0.12463840399002493,0.024055368583302872,
0.12468827930174564,0.02317031178496127,
0.12473815461346634,0.009519731015800212,
0.12478802992518703,0.033537745877742275,
0.12483790523690773,0.032308206609486564,
0.12488778054862842,0.0059750292589388285,
0.12493765586034913,-0.0006538457251875178,
0.12498753117206983,0.040950397638903444,
0.12503740648379053,0.016853134203077394,
0.12508728179551123,0.021960942278462514,
0.12513715710723192,0.026790249600356364,
0.12518703241895263,0.01865024339013514,
0.1252369077306733,0.03090093917843384,
0.12528678304239402,-0.0009231558089618855,
0.1253366583541147,0.02100284137655083,
0.1253865336658354,-0.0029849309010865667,
0.12543640897755612,0.02858566598661993,
0.1254862842892768,0.009872140675204776,
0.1255361596009975,-0.005993557439934263,
0.1255860349127182,0.0037293358459752173,
0.1256359102244389,-0.006405086055858086,
0.1256857855361596,0.027100220790625025,
0.1257356608478803,0.02242299768773839,
0.125785536159601,0.023437351874686242,
0.12583541147132168,0.017432707897836755,
0.1258852867830424,0.013258763829404586,
0.1259351620947631,0.05219534916852613,
0.12598503740648379,0.0021369208732419827,
0.1260349127182045,0.033702964530787236,
0.12608478802992518,0.032504306136648106,
0.1261346633416459,0.025265343528558387,
0.1261845386533666,0.020012912971721038,
0.12623441396508728,0.016333711838964884,
0.126284289276808,0.0039836001700194155,
0.12633416458852867,0.027133954754433663,
0.12638403990024938,0.0365550218001036,
0.1264339152119701,0.004044970091283918,
0.12648379052369077,0.029121472837520056,
0.12653366583541148,0.032431419681533846,
0.12658354114713216,0.009663758445670672,
0.12663341645885287,0.012359401728694298,
0.12668329177057355,-0.0002864191837721672,
0.12673316708229426,0.019816127621139632,
0.12678304239401497,-0.007315378782359404,
0.12683291770573565,0.00601261018682054,
0.12688279301745636,0.033907396452035776,
0.12693266832917705,0.028582388449539045,
0.12698254364089775,0.017366438066539577,
0.12703241895261846,0.028232220433164024,
0.12708229426433915,0.021656905540931574,
0.12713216957605986,0.0006494927489782924,
0.12718204488778054,0.03666285151548534,
0.12723192019950125,-0.002938663829540753,
0.12728179551122196,0.017961082375487086,
0.12733167082294264,0.04758582107785685,
0.12738154613466335,0.016434769031200135,
0.12743142144638403,0.012610396312118766,
0.12748129675810474,3.7144734269132715e-05,
0.12753117206982545,0.02173437592619528,
0.12758104738154613,0.016800539357408686,
0.12763092269326684,0.012212050321070315,
0.12768079800498752,0.007406587130296932,
0.12773067331670823,0.018223296200875573,
0.1277805486284289,0.025666839548443614,
0.12783042394014962,0.02120547129494566,
0.12788029925187033,0.0013066574651362647,
0.12793017456359101,-0.009946240016657353,
0.12798004987531172,-0.012159644556840415,
0.1280299251870324,0.026935629585106736,
0.12807980049875312,-0.001227229839271769,
0.12812967581047383,0.03990234364131779,
0.1281795511221945,0.021853891747762814,
0.12822942643391522,-0.01113750477953616,
0.1282793017456359,0.017501146575110305,
0.1283291770573566,0.019681535345135153,
0.12837905236907732,0.009903603256695134,
0.128428927680798,0.0060138965572553195,
0.1284788029925187,0.021377364035067934,
0.1285286783042394,0.005159550843815474,
0.1285785536159601,0.0017603644311965593,
0.1286284289276808,0.002102708827801471,
0.1286783042394015,-0.027437870648952943,
0.1287281795511222,0.028807353238125104,
0.12877805486284288,0.009448083986050014,
0.1288279301745636,-0.004612344985044312,
0.1288778054862843,0.018040677841409655,
0.12892768079800498,0.0053787799353078765,
0.1289775561097257,0.0041640835546044065,
0.12902743142144638,0.010341094060289479,
0.12907730673316709,-0.006072535121769564,
0.12912718204488777,-0.005609790716537324,
0.12917705735660848,0.012886398767588535,
0.1292269326683292,-0.010016386731581908,
0.12927680798004987,-0.027951217246619663,
0.12932668329177058,0.010381901786617263,
0.12937655860349126,0.007493286645574131,
0.12942643391521197,-0.02581957913611598,
0.12947630922693268,0.021910466463783432,
0.12952618453865336,-0.009654409497004713,
0.12957605985037407,0.025821271500522512,
0.12962593516209475,-0.020858106220315364,
0.12967581047381546,0.011042803037888469,
0.12972568578553617,-0.009805060086667415,
0.12977556109725685,0.035520928698022376,
0.12982543640897756,-0.0005554936311752755,
0.12987531172069824,-0.006119251238738766,
0.12992518703241895,-0.013961084125898374,
0.12997506234413966,-0.0058719349293559625,
0.13002493765586035,-0.02575957145484074,
0.13007481296758105,-0.010910270795443953,
0.13012468827930174,0.010276843798794169,
0.13017456359102245,0.006126525030617768,
0.13022443890274316,-0.032254407147101954,
0.13027431421446384,0.007179212579699671,
0.13032418952618455,-0.02457826832131062,
0.13037406483790523,0.011151885447916513,
0.13042394014962594,0.006767763301570999,
0.13047381546134662,0.005089656932291671,
0.13052369077306733,-0.0037275850445673588,
0.13057356608478804,-0.002865632189755042,
0.13062344139650872,-0.032213046328201086,
0.13067331670822943,-0.004482785498656529,
0.1307231920199501,-0.011691126620300467,
0.13077306733167082,0.011714257023850094,
0.13082294264339153,-0.02321547504074767,
0.13087281795511221,0.0013258893521549686,
0.13092269326683292,0.044798561808524553,
0.1309725685785536,0.005240516656355354,
0.13102244389027431,0.008565106922416004,
0.13107231920199502,-0.013614048258455864,
0.1311221945137157,-0.021372964046448603,
0.13117206982543642,0.0007414518140109912,
0.1312219451371571,-0.008375373002308272,
0.1312718204488778,-0.00011370405994484689,
0.13132169576059852,-0.015272856422240742,
0.1313715710723192,0.0014265791541961653,
0.1314214463840399,-0.03217450674065952,
0.1314713216957606,0.005989488502648861,
0.1315211970074813,-0.01095584374859045,
0.13157107231920198,-0.003117285554203355,
0.1316209476309227,-0.004699390354677079,
0.1316708229426434,-0.002130163919630847,
0.13172069825436408,0.018834978914501428,
0.1317705735660848,-0.033053962634495095,
0.13182044887780547,0.01572329104113525,
0.13187032418952618,0.024213034688716717,
0.1319201995012469,-0.017434688091540022,
0.13197007481296757,-0.0170353925040516,
0.13201995012468828,0.007129933395578485,
0.13206982543640897,-0.02467029608659556,
0.13211970074812968,0.013974795148361474,
0.13216957605985039,0.00037454614939735377,
0.13221945137157107,0.0019111745103324636,
0.13226932668329178,0.01503277163256484,
0.13231920199501246,-0.0035663831427592396,
0.13236907730673317,0.016861767643680282,
0.13241895261845388,-0.020117255338816052,
0.13246882793017456,-0.02943408945913882,
0.13251870324189527,-0.025739697184561303,
0.13256857855361595,0.009450694353957689,
0.13261845386533666,-0.02306118172580729,
0.13266832917705737,-0.010576553574046207,
0.13271820448877805,-0.013320888414729766,
0.13276807980049876,-0.009323557085556038,
0.13281795511221944,-0.01744760674141201,
0.13286783042394015,-0.028079655378037385,
0.13291770573566083,-0.008130467949133066,
0.13296758104738154,-0.008219136066443113,
0.13301745635910225,-9.2729733133309e-05,
0.13306733167082294,-0.02968068912566065,
0.13311720698254365,-0.020179020673783465,
0.13316708229426433,0.008230317204234007,
0.13321695760598504,-0.015247182589172749,
0.13326683291770575,0.007204376420276118,
0.13331670822942643,-0.019543324039761473,
0.13336658354114714,-0.030263459829983907,
0.13341645885286782,0.0007358562885030444,
0.13346633416458853,-0.009742148440074396,
0.13351620947630924,-0.0016587807067751422,
0.13356608478802992,-0.039051887176869776,
0.13361596009975063,-0.014936508030796308,
0.1336658354114713,-0.012125174325261948,
0.13371571072319202,-0.010351854551636928,
0.13376558603491273,-0.017097776538561166,
0.1338154613466334,-0.010892022231982643,
0.13386533665835412,-0.020659228540437738,
0.1339152119700748,0.000671699579396506,
0.13396508728179551,0.0032812820265917947,
0.1340149625935162,0.015404495034348976,
0.1340648379052369,-0.02012837999958126,
0.13411471321695762,-0.001454808365129596,
0.1341645885286783,-0.012739951075035588,
0.134214463840399,-0.026503139836574718,
0.1342643391521197,-0.0031315501578468687,
0.1343142144638404,-0.015985124079815047,
0.1343640897755611,-0.01117138861858316,
0.1344139650872818,0.02121813074776801,
0.1344638403990025,-0.016509152188572677,
0.13451371571072318,-0.013626815844232172,
0.1345635910224439,-0.004298676894971043,
0.1346134663341646,0.02512200782105388,
0.13466334164588528,-0.034374541471915,
0.134713216957606,-0.005449577828104462,
0.13476309226932667,-0.011409800810429976,
0.13481296758104738,0.01136758168387894,
0.1348628428927681,-0.0051281282597314725,
0.13491271820448877,-0.007258654233828302,
0.13496259351620948,-0.033390180291240475,
0.13501246882793017,-0.01426032266235174,
0.13506234413965088,-0.011758442415365694,
0.13511221945137158,0.0005546899088664662,
0.13516209476309227,-0.027714910833586938,
0.13521197007481298,0.009085057937304228,
0.13526184538653366,-0.00950303257057995,
0.13531172069825437,0.016259236951522295,
0.13536159600997505,0.0040071867683621944,
0.13541147132169576,-0.0004472490354348888,
0.13546134663341647,0.018033040090103876,
0.13551122194513715,-0.010040237237724974,
0.13556109725685786,-0.015119671101263676,
0.13561097256857854,0.007256298873942284,
0.13566084788029925,0.00020011857972921472,
0.13571072319201996,0.002840533140849806,
0.13576059850374064,0.0039512913351087324,
0.13581047381546135,0.0020974118292144558,
0.13586034912718203,-0.004984625801230208,
0.13591022443890274,0.012706975491942754,
0.13596009975062345,0.005360218240733335,
0.13600997506234414,0.002949454184197381,
0.13605985037406484,0.0016896306248873883,
0.13610972568578553,-0.0010060063062361873,
0.13615960099750624,-0.004434633501583863,
0.13620947630922695,0.004148033876122238,
0.13625935162094763,0.020200344065289155,
0.13630922693266834,-0.006587494833775748,
0.13635910224438902,-0.006551479497704892,
0.13640897755610973,0.0014322869390446123,
0.1364588528678304,-0.035076036119120184,
0.13650872817955112,0.0041954464837142685,
0.13655860349127183,0.0030222552562289584,
0.1366084788029925,-0.010596710104669244,
0.13665835411471322,0.024168898759830477,
0.1367082294264339,-0.009919201457836372,
0.1367581047381546,-0.004763474489936657,
0.13680798004987532,-0.008089979353805638,
0.136857855361596,0.01671720175601843,
0.1369077306733167,0.001204241701291786,
0.1369576059850374,-0.011750054496569212,
0.1370074812967581,0.027102301314090266,
0.13705735660847881,-0.0009839450627504983,
0.1371072319201995,0.048012913748328674,
0.1371571072319202,0.0002350900797735804,
0.1372069825436409,0.005407721588432619,
0.1372568578553616,0.011757708226928551,
0.1373067331670823,0.010149734484066315,
0.137356608478803,0.011036017124071356,
0.1374064837905237,-0.008154805065667823,
0.13745635910224438,-0.012767831916142442,
0.1375062344139651,-0.0020955070678127553,
0.1375561097256858,0.038001772079153597,
0.13760598503740648,-0.027121345948456953,
0.1376558603491272,-0.0006063006950577186,
0.13770573566084787,0.023228558537444214,
0.13775561097256858,0.0021286963579039385,
0.13780548628428926,0.007362551634158002,
0.13785536159600997,0.02919817419580619,
0.13790523690773068,0.007041165711481805,
0.13795511221945136,0.04201003477317353,
0.13800498753117207,-0.023708560103765704,
0.13805486284289276,-0.004531367764156484,
0.13810473815461347,0.015074615816581772,
0.13815461346633418,0.015102515536653602,
0.13820448877805486,0.0011650749660008543,
0.13825436408977557,0.02513983716710662,
0.13830423940149625,0.008115076959815604,
0.13835411471321696,0.002513846710044532,
0.13840399002493767,-0.013594449963189236,
0.13845386533665835,0.024326740598052024,
0.13850374064837906,0.012093251156055055,
0.13855361596009974,0.018767387553399715,
0.13860349127182045,0.0023684142555216465,
0.13865336658354116,0.006704985695982045,
0.13870324189526184,0.0034894094228997592,
0.13875311720698255,0.045653298252049675,
0.13880299251870323,0.019005907874479575,
0.13885286783042394,0.005361048822859878,
0.13890274314214462,0.012491196299905746,
0.13895261845386533,-0.008122536981535144,
0.13900249376558604,0.023017059055631214,
0.13905236907730673,0.03395046990897842,
0.13910224438902744,0.02760112666263871,
0.13915211970074812,0.010717545589712687,
0.13920199501246883,0.01580672925447202,
0.13925187032418954,0.025636291865436773,
0.13930174563591022,0.017957696876666613,
0.13935162094763093,0.007555463687664165,
0.1394014962593516,0.0054842004764409525,
0.13945137157107232,0.012505582510405573,
0.13950124688279303,0.0369814991925327,
0.1395511221945137,0.02610559202311924,
0.13960099750623442,0.02296614731355419,
0.1396508728179551,0.03370191858060076,
0.1397007481296758,0.001344033201249751,
0.13975062344139652,0.04540698223597324,
0.1398004987531172,0.017267394612153923,
0.1398503740648379,0.017405858968664447,
0.1399002493765586,0.0017629313436022635,
0.1399501246882793,0.03481163781051812,
0.14,0.035883556920323634,
0.1400498753117207,0.02721571978262908,
0.1400997506234414,0.01681106144877177,
0.1401496259351621,0.02742166292469054,
0.1401995012468828,0.015252262205008074,
0.14024937655860348,0.022746796734436022,
0.1402992518703242,0.02275193724609709,
0.1403491271820449,0.007531165902658562,
0.14039900249376558,0.0006550923959009018,
0.1404488778054863,0.021734827644802487,
0.14049875311720697,0.012514361077378588,
0.14054862842892768,0.03914677011952336,
0.1405985037406484,0.014315823652832335,
0.14064837905236907,0.02194791078527101,
0.14069825436408978,0.026636516884805363,
0.14074812967581046,0.028294852633501184,
0.14079800498753117,0.02290798133905824,
0.14084788029925188,-0.0009888944304601577,
0.14089775561097256,0.010303616959851356,
0.14094763092269327,0.031206834168000595,
0.14099750623441396,0.02797740324181,
0.14104738154613466,0.0151492417728592,
0.14109725685785537,0.012540538812851953,
0.14114713216957606,0.02890001257428928,
0.14119700748129677,0.03285765708174532,
0.14124688279301745,0.012107127769572412,
0.14129675810473816,0.0356396679874725,
0.14134663341645887,0.04817330587474916,
