time,amplitude,label
0.0,-0.0025074554503337777,
4.987531172069826e-05,0.010670399395304281,
9.975062344139652e-05,0.004119574335959708,
0.00014962593516209475,0.0015909151192732675,
0.00019950124688279303,-0.01900490729550641,
0.00024937655860349125,-0.00904492868049087,
0.0002992518703241895,0.007760167751118914,
0.00034912718204488776,-0.012544707067471997,
0.00039900249376558606,0.006425158034675648,
0.0004488778054862843,-0.002934289628708636,
0.0004987531172069825,-0.003970811536375334,
0.0005486284289276808,-0.023860675150437057,
0.000598503740648379,0.011046290507381259,
0.0006483790523690773,0.02388419677952701,
0.0006982543640897755,0.019761337947478405,
0.0007481296758104738,0.007690487652417008,
0.0007980049875311721,-0.0054556886002187,
0.0008478802992518703,-0.003865724289432758,
0.0008977556109725686,0.021636453821255956,
0.0009476309226932668,0.04514751141417521,
0.000997506234413965,0.019332485269397265,
0.0010473815461346633,0.024101610892659386,
0.0010972568578553616,0.004935001688904607,
0.00114713216957606,-0.021827638600110874,
0.001197007481296758,-0.006076622295268425,
0.0012468827930174563,0.00858119156761781,
0.0012967581047381546,-0.0008532281673420735,
0.001346633416458853,-0.001765205827124916,
0.001396508728179551,8.460181565664304e-05,
0.0014463840399002493,0.01418559770523031,
0.0014962593516209476,0.025081923643235374,
0.001546134663341646,0.021434256293445614,
0.0015960099750623442,0.022756345926423845,
0.0016458852867830423,0.03573066679243885,
0.0016957605985037406,0.010410121230793662,
0.001745635910224439,0.031778828759409225,
0.0017955112219451373,0.004416082404120543,
0.0018453865336658353,0.014376690652481816,
0.0018952618453865336,0.03182113460546618,
0.001945137157107232,0.02559533717825921,
0.00199501246882793,0.01590741632449474,
0.0020448877805486283,0.0034898434792397046,
0.0020947630922693266,-0.006781306168845945,
0.002144638403990025,0.022539147555257613,
0.0021945137157107233,0.023493754839188086,
0.0022443890274314216,0.010103040703915336,
0.00229426433915212,0.026829285444501416,
0.0023441396508728177,0.030955644810191238,
0.002394014962593516,0.028976146789305886,
0.0024438902743142144,0.013438261566785539,
0.0024937655860349127,-0.0009969833229333952,
0.002543640897755611,-0.0042534520647353295,
0.0025935162094763093,0.018208374362368343,
0.0026433915211970076,0.0025129920868151457,
0.002693266832917706,-0.00045688039792554647,
0.002743142144638404,0.000991623387130828,
0.002793017456359102,-0.006217830640556348,
0.0028428927680798004,0.014359347348856027,
0.0028927680798004987,0.02754923830358135,
0.002942643391521197,0.013692846625086078,
0.0029925187032418953,0.03967277703888908,
0.0030423940149625936,0.014791617085234212,
0.003092269326683292,0.048213389297428536,
0.00314214463840399,0.02190210760855059,
0.0031920199501246885,0.011652151872075536,
0.0032418952618453864,0.04153996097663284,
0.0032917705735660847,0.05229578861473558,
0.003341645885286783,0.010671630011705452,
0.0033915211970074813,0.043809909416829475,
0.0034413965087281796,0.04947898913808642,
0.003491271820448878,-0.0005870650645348544,
0.003541147132169576,0.024452806381838214,
0.0035910224438902745,0.019615218277510716,
0.0036408977556109724,0.03872052855166488,
0.0036907730673316707,0.008305286527356211,
0.003740648379052369,0.01997022255524315,
0.0037905236907730673,0.03451070135505254,
0.0038403990024937656,0.011465384702221696,
0.003890274314214464,-0.0032042892806265384,
0.003940149625935162,0.05139158220706207,
0.00399002493765586,0.016271466726285492,
0.004039900249376558,0.03269356683476997,
0.004089775561097257,0.014185297073924859,
0.004139650872817955,-0.008552677738548172,
0.004189526184538653,0.03563388152384413,
0.004239401496259352,0.041569965598779124,
0.00428927680798005,0.030696221136753986,
0.004339152119700748,0.036161839982726776,
0.0043890274314214465,-0.006706155436560328,
0.004438902743142145,0.021402337648364526,
0.004488778054862843,0.03464932336282804,
0.004538653366583541,0.04154152814730487,
0.00458852867830424,0.024098688443790265,
0.004638403990024938,0.009728033489409546,
0.0046882793017456355,0.006632419381842468,
0.004738154613466334,0.023147694062731327,
0.004788029925187032,-0.011442523593202743,
0.00483790523690773,0.030180371900524555,
0.004887780548628429,-0.0056270046788308645,
0.004937655860349127,0.03975128223549463,
0.004987531172069825,0.006751876736296363,
0.005037406483790524,0.02745316623712081,
0.005087281795511222,0.03348551723867152,
0.00513715710723192,0.012553790407993308,
0.0051870324189526185,0.02006110931925831,
0.005236907730673317,0.027119391255176283,
0.005286783042394015,0.011272845264224987,
0.0053366583541147134,-0.00012495208755570683,
0.005386533665835412,-0.01331453067031595,
0.00543640897755611,0.04142368987521401,
0.005486284289276808,0.03176087131284079,
0.005536159600997507,0.04196339286135557,
0.005586034912718204,0.009132016508971049,
0.005635910224438902,0.045522111611776495,
0.005685785536159601,0.015873748165481417,
0.005735660847880299,-0.0027649763994723082,
0.005785536159600997,0.016612166394399205,
0.005835411471321696,0.016550530133730736,
0.005885286783042394,0.03461458336693219,
0.005935162094763092,0.01649763068141561,
0.0059850374064837905,0.03144843644777576,
0.006034912718204489,0.034291455071343596,
0.006084788029925187,0.036187572960201336,
0.0061346633416458855,0.019246231488850754,
0.006184538653366584,0.015190793961933461,
0.006234413965087282,0.025876984927408378,
0.00628428927680798,0.048512643042549916,
0.006334164588528679,-0.007307366929782733,
0.006384039900249377,0.006550038736544616,
0.006433915211970074,0.01061117568563962,
0.006483790523690773,0.018479651982321075,
0.006533665835411471,0.025125061135486862,
0.006583541147132169,0.0036405748216572567,
0.006633416458852868,0.015329784599015621,
0.006683291770573566,0.012525185393180153,
0.006733167082294264,0.024959433828918437,
0.0067830423940149626,0.008400496790759463,
0.006832917705735661,0.029244397937950462,
0.006882793017456359,-0.005793691507460385,
0.0069326683291770575,0.010683361805634176,
0.006982543640897756,0.03929748590850338,
0.007032418952618454,-0.0006909698389995517,
0.007082294264339152,0.02100216213340672,
0.007132169576059851,0.012086103313445245,
0.007182044887780549,0.011086559263742314,
0.007231920199501247,0.046862432127445106,
0.007281795511221945,0.008495613451218974,
0.007331670822942643,-0.009280954680009303,
0.007381546134663341,0.005945305858531951,
0.00743142144638404,0.017967885680830326,
0.007481296758104738,0.0030910317864374457,
0.007531172069825436,0.010170307831705867,
0.007581047381546135,-0.023379366740559855,
0.007630922693266833,0.025983168850866455,
0.007680798004987531,0.01677240584957027,
0.0077306733167082295,0.0044344377557035825,
0.007780548628428928,-0.007987581052596086,
0.007830423940149626,0.022600463540518007,
0.007880299251870324,-0.004574234642839778,
0.007930174563591023,0.021961883279269657,
0.00798004987531172,0.009602094100640569,
0.00802992518703242,0.03506998154624791,
0.008079800498753117,-0.032130434692249916,
0.008129675810473816,0.010197643416850054,
0.008179551122194513,-0.004779961959199325,
0.008229426433915213,0.022088185845164553,
0.00827930174563591,-0.0070029004040122675,
0.00832917705735661,0.013856501172351971,
0.008379052369077307,0.03300921934358604,
0.008428927680798006,-0.029298971447068903,
0.008478802992518703,0.006159437538038034,
0.0085286783042394,0.0074009205202771045,
0.0085785536159601,0.0026246254199188386,
0.008628428927680797,0.05066540092320647,
0.008678304239401496,0.021396295141624555,
0.008728179551122194,0.007203497459054495,
0.008778054862842893,-0.0059930406724675025,
0.00882793017456359,0.01831193313905045,
0.00887780548628429,-0.006053172265619297,
0.008927680798004987,-0.032739001502162954,
0.008977556109725686,0.0005167491198375283,
0.009027431421446384,0.012933098788938783,
0.009077306733167083,0.00293414067857503,
0.00912718204488778,0.01365511199673716,
0.00917705735660848,-0.0014904226942901873,
0.009226932668329177,-0.033951037065763405,
0.009276807980049876,-0.025871546325785314,
0.009326683291770574,-0.01102365042318117,
0.009376558603491271,-0.005958949336512012,
0.00942643391521197,0.004142877582604253,
0.009476309226932668,0.0034175647148197465,
0.009526184538653367,-0.007046974379426213,
0.009576059850374064,0.010517677467343044,
0.009625935162094763,-0.009828118317236689,
0.00967581047381546,0.0017947061904906214,
0.00972568578553616,0.003740116794211767,
0.009775561097256857,0.011942020653878515,
0.009825436408977557,-0.00912427076652288,
0.009875311720698254,0.009247976452926346,
0.009925187032418953,0.0144631432809892,
0.00997506234413965,-0.005117727036611248,
0.01002493765586035,0.005828685717700266,
0.010074812967581047,-0.023830256826221207,
0.010124688279301746,-0.010539127559321234,
0.010174563591022444,-0.020296679912555612,
0.010224438902743141,0.019656761399776203,
0.01027431421446384,-0.003609951504172723,
0.010324189526184538,0.0013392704617635927,
0.010374064837905237,0.005942014036316475,
0.010423940149625935,0.006532663060331632,
0.010473815461346634,0.00976151899586913,
0.010523690773067331,-0.0195283038706413,
0.01057356608478803,-0.0031619391858116845,
0.010623441396508728,-0.031280480726612776,
0.010673316708229427,-0.018584387434991346,
0.010723192019950124,0.010052942449208568,
0.010773067331670824,-0.009866641356265814,
0.010822942643391521,-0.0016799895692497834,
0.01087281795511222,0.00403151227193073,
0.010922693266832918,-0.01297579279056927,
0.010972568578553617,-0.020467405315618838,
0.011022443890274314,-0.007579603857775004,
0.011072319201995013,-0.009710496695361868,
0.01112219451371571,-0.014658729265151757,
0.011172069825436408,0.0013183058348143675,
0.011221945137157107,-0.018741366259450852,
0.011271820448877805,0.0024654091756394787,
0.011321695760598504,-0.009988487916757912,
0.011371571072319201,-0.02231982951607349,
0.0114214463840399,-0.02147437906989793,
0.011471321695760598,-0.011185728944578954,
0.011521197007481297,-0.012155376318279228,
0.011571072319201995,-0.028880573416469747,
0.011620947630922694,-0.01321918393347005,
0.011670822942643391,0.014928266833038188,
0.01172069825436409,0.006413625042433178,
0.011770573566084788,0.009546824187258955,
0.011820448877805487,-0.015016857223675227,
0.011870324189526184,-0.028128248582191658,
0.011920199501246884,0.0014506115056997608,
0.011970074812967581,-7.43275115927828e-05,
0.012019950124688279,-0.009913534347656763,
0.012069825436408978,-0.0031925930446364027,
0.012119700748129675,-0.014418485520660773,
0.012169576059850374,-0.010138783527988533,
0.012219451371571072,0.0028871933687848964,
0.012269326683291771,0.0036849709386202033,
0.012319201995012468,-0.017013993447275624,
0.012369077306733168,-0.010782722530662335,
0.012418952618453865,-0.013349003423780561,
0.012468827930174564,-0.017034912296813105,
0.012518703241895262,-0.020606697910360308,
0.01256857855361596,-0.0055142200845487155,
0.012618453865336658,-0.006509575265966374,
0.012668329177057357,-0.007022112558157729,
0.012718204488778055,-0.029308191939034903,
0.012768079800498754,-0.03409885922382143,
0.012817955112219451,-0.022997405316478692,
0.012867830423940149,-0.03400608322938796,
0.012917705735660848,-0.012020254952262374,
0.012967581047381545,-0.004923899285145155,
0.013017456359102245,-0.011220716997266116,
0.013067331670822942,-0.02471200883019615,
0.013117206982543641,0.002640470796589918,
0.013167082294264339,-0.03875039638944419,
0.013216957605985038,-0.0030722302909163696,
0.013266832917705735,-0.008782642543706642,
0.013316708229426434,-0.00609096256097901,
0.013366583541147132,-0.00476018967295338,
0.013416458852867831,-0.009420719436260841,
0.013466334164588529,-0.020956864071879647,
0.013516209476309228,-0.003434051331320959,
0.013566084788029925,-0.023605538999800908,
0.013615960099750624,-0.012951818818396493,
0.013665835411471322,-0.03876557266829272,
0.01371571072319202,-0.023715910819896657,
0.013765586034912718,-0.0331280505322637,
0.013815461346633416,-0.027310942460854304,
0.013865336658354115,0.0022328413263941298,
0.013915211970074812,-0.03829986161817798,
0.013965087281795512,0.01568799153445425,
0.014014962593516209,-0.016040475359636718,
0.014064837905236908,-0.04198218529735316,
0.014114713216957606,-0.02713091698793427,
0.014164588528678305,-0.02833505644481313,
0.014214463840399002,-0.019748465651429563,
0.014264339152119701,-0.01603397382964397,
0.014314214463840399,-0.016121404224902,
0.014364089775561098,-0.0022564607667710096,
0.014413965087281795,-0.019445785725475208,
0.014463840399002495,-0.035244106865005245,
0.014513715710723192,-0.018619548528428276,
0.01456359102244389,-0.017873938923002295,
0.014613466334164589,-0.014742362846499713,
0.014663341645885286,-0.036523225230147865,
0.014713216957605985,0.004052998240395945,
0.014763092269326683,-0.022049167526486953,
0.014812967581047382,0.013153573241835258,
0.01486284289276808,-0.025648180723074586,
0.014912718204488778,-0.011232817014402093,
0.014962593516209476,-0.03156303006484969,
0.015012468827930175,-0.004295157520694277,
0.015062344139650873,-0.03686615363430146,
0.015112219451371572,-0.024405841856665257,
0.01516209476309227,0.0027727054905938298,
0.015211970074812968,-0.02525345806440154,
0.015261845386533666,-0.05648616586502948,
0.015311720698254365,-0.027053852682489818,
0.015361596009975062,-0.054118217627850074,
0.01541147132169576,-0.018553762416238538,
0.015461346633416459,-0.01736092918902581,
0.015511221945137156,-0.0054906243068873605,
0.015561097256857856,0.0046313436781908884,
0.015610972568578553,0.0006417388894498464,
0.015660847880299252,-0.030224819286707248,
0.01571072319201995,-0.015061809200565261,
0.015760598503740647,-0.003912243813245548,
0.015810473815461346,-0.01612337849572647,
0.015860349127182045,-0.01618455360981888,
0.015910224438902745,-0.03957785646203238,
0.01596009975062344,0.009140395876008265,
0.01600997506234414,-0.011441801661140453,
0.01605985037406484,-0.015248029614523413,
0.016109725685785538,-0.029648471993160626,
0.016159600997506234,-0.016147914947238683,
0.016209476309226933,-0.026459834562231825,
0.016259351620947632,-0.010288319674795779,
0.016309226932668328,0.007587947702232357,
0.016359102244389027,-0.017978636582719223,
0.016408977556109726,0.02670939603223161,
0.016458852867830425,-0.012562372811020414,
0.01650872817955112,0.0010995174325051232,
0.01655860349127182,-0.022285721585000546,
0.01660847880299252,-0.01632018338002753,
0.01665835411471322,0.005256797396797198,
0.016708229426433914,0.011395026412238506,
0.016758104738154613,-0.027621751196708826,
0.016807980049875312,-0.038560857767329995,
0.01685785536159601,-0.013348053599043843,
0.016907730673316707,-0.015888136403001275,
0.016957605985037406,0.00150650376191536,
0.017007481296758106,-0.021583461123647424,
0.0170573566084788,-0.012176534050268166,
0.0171072319201995,-0.007589874026777006,
0.0171571072319202,-0.01594947129906327,
0.0172069825436409,0.005890573345307827,
0.017256857855361595,-0.029228348701019997,
0.017306733167082294,-0.023571491619536034,
0.017356608478802993,0.006248039317524143,
0.017406483790523692,-0.012408578914255782,
0.017456359102244388,-0.02369445620607756,
0.017506234413965087,0.015489872346861642,
0.017556109725685786,-0.008838003936017021,
0.017605985037406485,-0.00764886804463973,
0.01765586034912718,-0.018221719150817016,
0.01770573566084788,-0.0309178973331821,
0.01775561097256858,-0.0006551930146041877,
0.01780548628428928,-0.04751987930274956,
0.017855361596009974,-0.0003422023468599156,
0.017905236907730673,0.01368273681849177,
0.017955112219451373,-0.02661415652995678,
0.018004987531172068,0.009638212395518023,
0.018054862842892767,0.01551655992430128,
0.018104738154613467,-0.027213021567558525,
0.018154613466334166,0.006355483773118458,
0.01820448877805486,0.005495919524577236,
0.01825436408977556,-0.0005363949623819883,
0.01830423940149626,-0.006933852171639233,
0.01835411471321696,-0.0016161930841625018,
0.018403990024937655,0.011490590353490102,
0.018453865336658354,-0.018808304786422387,
0.018503740648379053,-0.0005477087085266731,
0.018553615960099752,-0.019481558636222775,
0.018603491271820448,-0.000982308428874673,
0.018653366583541147,-0.015364788181435045,
0.018703241895261846,0.01118770630776017,
0.018753117206982542,-0.014945573755330795,
0.01880299251870324,-0.000938515903553034,
0.01885286783042394,-0.029942614203770073,
0.01890274314214464,0.002472387494967065,
0.018952618453865335,-0.004157007284981078,
0.019002493765586034,0.0004969666254637736,
0.019052369077306733,-0.0010589809648137495,
0.019102244389027433,-0.011390053846410819,
0.01915211970074813,-0.021042260000353048,
0.019201995012468828,0.016493644955341842,
0.019251870324189527,0.016184186426148068,
0.019301745635910226,0.01717065178598631,
0.01935162094763092,0.006084076835412502,
0.01940149625935162,0.00993675568567265,
0.01945137157107232,0.016174550737909712,
0.01950124688279302,-0.005441732861862175,
0.019551122194513715,0.022576042352440883,
0.019600997506234414,0.009564095025908081,
0.019650872817955113,0.022493241687053998,
0.01970074812967581,0.009301659821368212,
0.019750623441396508,-0.006384369020116879,
0.019800498753117207,-0.009157532356715292,
0.019850374064837906,0.01647697219392125,
0.019900249376558602,-0.0011956586218066266,
0.0199501246882793,-0.010753181474217848,
0.02,0.008253018263926725,
0.0200498753117207,0.030360032710206406,
0.020099750623441395,-0.011439016611869832,
0.020149625935162094,-0.006080250984456917,
0.020199501246882794,0.01575278037370143,
0.020249376558603493,0.004751518098134084,
0.02029925187032419,0.03627842821792678,
0.020349127182044888,-0.01561367480692303,
0.020399002493765587,-0.017490573201274215,
0.020448877805486283,0.016287879797817113,
0.02049875311720698,0.013407809855904392,
0.02054862842892768,0.009289340167900298,
0.02059850374064838,-0.007902499457146701,
0.020648379052369076,-0.0073313674089916705,
0.020698254364089775,0.0021002401703510464,
0.020748129675810474,0.023166934442095565,
0.020798004987531173,0.009413046353080172,
0.02084788029925187,0.01617243953057981,
0.020897755610972568,0.0341637538295734,
0.020947630922693267,-0.00110227690678826,
0.020997506234413967,0.01818798194489318,
0.021047381546134662,-0.00432214778751281,
0.02109725685785536,0.009888271635987196,
0.02114713216957606,0.006254624873810622,
0.02119700748129676,-0.009466669121149471,
0.021246882793017455,0.009101226230293788,
0.021296758104738155,-0.01014075863935603,
0.021346633416458854,0.033754792879107265,
0.02139650872817955,-0.010887918677843247,
0.02144638403990025,0.038610577709742834,
0.021496259351620948,0.009241250221367767,
0.021546134663341647,0.008505871804498893,
0.021596009975062343,-0.01624349045639457,
0.021645885286783042,0.022973991313419005,
0.02169576059850374,0.029754470705046304,
0.02174563591022444,0.010624325513283805,
0.021795511221945136,0.026434704714985505,
0.021845386533665835,-0.0019436865305484108,
0.021895261845386534,0.025765266950781865,
0.021945137157107233,0.026061818839845947,
0.02199501246882793,0.025885839318590342,
0.02204488778054863,0.0004172376077388792,
0.022094763092269327,0.011244929430188571,
0.022144638403990027,0.025949520357093553,
0.022194513715710722,0.027624169866926826,
0.02224438902743142,0.01999231236654307,
0.02229426433915212,-0.0008546677402624415,
0.022344139650872816,0.026118581480623036,
0.022394014962593516,-0.005769238852317619,
0.022443890274314215,0.01890813587152739,
0.022493765586034914,0.023731184542293313,
0.02254364089775561,-0.00041342351564209803,
0.02259351620947631,0.04333937688170837,
0.022643391521197008,0.03255672111157247,
0.022693266832917707,0.014058319759324424,
0.022743142144638403,-0.018554215403337803,
0.022793017456359102,0.03284502939158041,
0.0228428927680798,-0.0191515271644422,
0.0228927680798005,0.001525464852419136,
0.022942643391521196,0.01586253529871128,
0.022992518703241895,0.008061455162843616,
0.023042394014962594,0.02201787310890725,
0.02309226932668329,0.02329081073461295,
0.02314214463840399,0.010237851171280813,
0.02319201995012469,0.020917618038581214,
0.023241895261845388,-0.0007076232140625187,
0.023291770573566083,0.018533038954877616,
0.023341645885286783,0.013932047468150698,
0.02339152119700748,0.03917787112557203,
0.02344139650872818,0.0444961361101445,
0.023491271820448877,0.01887161624050968,
0.023541147132169576,0.020573158128529948,
0.023591022443890275,0.03816039620223648,
0.023640897755610974,0.010695554528684594,
0.02369077306733167,0.023598303113682377,
0.02374064837905237,0.014917351856719826,
0.023790523690773068,0.019047560169700897,
0.023840399002493767,0.009428992701591955,
0.023890274314214463,0.011421719448412507,
0.023940149625935162,-0.0012536799529487656,
0.02399002493765586,0.00951396704535073,
0.024039900249376557,0.06180892993576258,
0.024089775561097256,-0.009479485006972911,
0.024139650872817955,0.07210247156634624,
0.024189526184538655,0.003755242970921592,
0.02423940149625935,0.03795477991381689,
0.02428927680798005,0.016880897699427036,
0.02433915211970075,0.002268688393385735,
0.024389027431421448,0.019306145053819706,
0.024438902743142144,0.024135703541722328,
0.024488778054862843,0.048792594682011144,
0.024538653366583542,0.026882835400098642,
0.02458852867830424,0.022161276958281996,
0.024638403990024937,0.03224860417251052,
0.024688279301745636,0.01884813483976241,
0.024738154613466335,0.04550667358619269,
0.02478802992518703,0.0037091391298488784,
0.02483790523690773,0.017386233933735503,
0.02488778054862843,0.021660398749826865,
0.02493765586034913,0.014365885675885785,
0.024987531172069824,-0.006635555361254607,
0.025037406483790523,0.020761427943580615,
0.025087281795511222,0.01837700867136,
0.02513715710723192,0.008982349511166152,
0.025187032418952617,0.03300787961374669,
0.025236907730673316,0.023058902952286464,
0.025286783042394016,0.002785350734733908,
0.025336658354114715,-0.010508358517412546,
0.02538653366583541,0.01707048887293139,
0.02543640897755611,0.0406048759805938,
0.02548628428927681,0.04818883569244356,
0.025536159600997508,0.025670793277094626,
0.025586034912718204,0.026962625449419443,
0.025635910224438903,0.027738391943267507,
0.025685785536159602,0.030506337360053797,
0.025735660847880298,0.0023409166166824397,
0.025785536159600997,0.00930492529500374,
0.025835411471321696,0.022387515003968243,
0.025885286783042395,0.045256897842085655,
0.02593516209476309,0.013310667930592188,
0.02598503740648379,0.0018347434321043903,
0.02603491271820449,0.014281271329383869,
0.02608478802992519,0.007692549012470313,
0.026134663341645884,0.010692986491854526,
0.026184538653366583,0.03244952068056838,
0.026234413965087282,0.01949523478160257,
0.02628428927680798,0.05200692785692866,
0.026334164588528677,0.008124447847608058,
0.026384039900249377,0.0010210736916630263,
0.026433915211970076,0.009765927693829415,
0.02648379052369077,0.026154559766686063,
0.02653366583541147,0.006983033080148884,
0.02658354114713217,0.022045970422381433,
0.02663341645885287,0.025814702756549932,
0.026683291770573565,0.027911838260370865,
0.026733167082294264,0.01146373107863643,
0.026783042394014963,0.02128181583455955,
0.026832917705735662,0.02298149984301488,
0.026882793017456358,0.019522580747610242,
0.026932668329177057,0.005696764426408766,
0.026982543640897756,0.008534316811855779,
0.027032418952618455,-0.006697673227274013,
0.02708229426433915,-0.0019662838731129423,
0.02713216957605985,0.008919841750279048,
0.02718204488778055,0.022790470569179815,
0.02723192019950125,0.019459227454646285,
0.027281795511221944,0.007593739553037769,
0.027331670822942643,0.009841920558209965,
0.027381546134663343,0.03195937019448443,
0.02743142144638404,0.007179297307982784,
0.027481296758104738,0.03903248794026801,
0.027531172069825437,0.011277578013913606,
0.027581047381546136,0.02083930325847126,
0.02763092269326683,0.005474141224423808,
0.02768079800498753,0.0061960320939806555,
0.02773067331670823,0.0034820299168966465,
0.02778054862842893,0.006088133715881752,
0.027830423940149625,0.03124460110250963,
0.027880299251870324,0.013207431189015875,
0.027930174563591023,0.06188549486645861,
0.027980049875311722,0.013227196883231518,
0.028029925187032418,0.021639724072311236,
0.028079800498753117,0.004856950698804461,
0.028129675810473816,0.024712708544078196,
0.028179551122194512,0.030245226266530388,
0.02822942643391521,-0.015043822970330549,
0.02827930174563591,0.013820261834409965,
0.02832917705735661,0.025280127328336628,
0.028379052369077305,0.030346776037644744,
0.028428927680798004,0.023202438512643468,
0.028478802992518704,0.0013035604644564425,
0.028528678304239403,0.019773293199134703,
0.0285785536159601,0.0019953738857419875,
0.028628428927680798,-0.0007784103125352184,
0.028678304239401497,-0.000952170108944347,
0.028728179551122196,0.022864207889033192,
0.02877805486284289,-0.016968670771460533,
0.02882793017456359,0.009890833671080046,
0.02887780548628429,0.02826489620102018,
0.02892768079800499,-0.011652204318021168,
0.028977556109725685,-0.03916790282167856,
0.029027431421446384,0.01121504797753248,
0.029077306733167083,-0.021572663145186504,
0.02912718204488778,0.0007610327823042926,
0.029177057356608478,0.008365398450541829,
0.029226932668329177,-0.013168990559003961,
0.029276807980049877,0.0015973401533782524,
0.029326683291770572,0.014070818582772227,
0.02937655860349127,0.0214680739800135,
0.02942643391521197,0.002441746942376481,
0.02947630922693267,-0.00496097660455626,
0.029526184538653365,-0.002585021199472341,
0.029576059850374065,0.0041534819157499105,
0.029625935162094764,0.005466314095818829,
0.029675810473815463,0.0014222381018335413,
0.02972568578553616,-0.04097444099462621,
0.029775561097256858,-0.03121407618854726,
0.029825436408977557,-0.011290240662202241,
0.029875311720698253,-0.010667717585756825,
0.029925187032418952,-0.0014042032184598667,
0.02997506234413965,0.006995412752776478,
0.03002493765586035,-0.00834775505223469,
0.030074812967581046,0.013322175743339885,
0.030124688279301745,-0.008276612950851539,
0.030174563591022444,0.013819746846922111,
0.030224438902743143,0.011003323628768354,
0.03027431421446384,-0.011364881313530114,
0.03032418952618454,0.0037999547709401766,
0.030374064837905237,0.012710527790233109,
0.030423940149625937,0.002081307690311352,
0.030473815461346632,0.0027518154414361558,
0.03052369077306733,0.02507463904050361,
0.03057356608478803,-0.004749121464567274,
0.03062344139650873,0.004494504080101443,
0.030673316708229426,-0.017785789879007866,
0.030723192019950125,0.000922467119127462,
0.030773067331670824,-0.00599501571712799,
0.03082294264339152,-0.0073656849202189305,
0.03087281795511222,-0.022991592809471967,
0.030922693266832918,-0.003369176636828734,
0.030972568578553617,-0.013877781990588558,
0.031022443890274313,-0.001422942618726425,
0.031072319201995012,-0.002046447500179064,
0.03112219451371571,-0.010265246781521983,
0.03117206982543641,-0.017288506716236975,
0.031221945137157106,-0.01791747508049843,
0.03127182044887781,0.000649971977225822,
0.031321695760598504,-0.003642804213137114,
0.0313715710723192,-0.025234700252513155,
0.0314214463840399,-0.007067943805994158,
0.0314713216957606,-0.011857762321739186,
0.031521197007481294,-0.003057687152845617,
0.031571072319202,0.01644122433389738,
0.03162094763092269,-0.018899271452186374,
0.03167082294264339,-0.023887712443068865,
0.03172069825436409,-0.015058593299722589,
0.03177057356608479,-0.016200215504928096,
0.03182044887780549,-0.0021618332985758014,
0.031870324189526185,-0.021306135938555723,
0.03192019950124688,0.012608073028273749,
0.03197007481296758,-0.023417388891414898,
0.03201995012468828,-0.03677275582931448,
0.032069825436408975,-0.022613691105268847,
0.03211970074812968,0.004335956725327756,
0.03216957605985037,-0.03430940578848777,
0.032219451371571076,0.0004137499075654201,
0.03226932668329177,-0.018148020880751167,
0.03231920199501247,-0.01677684526454385,
0.03236907730673317,-0.011272181107148246,
0.032418952618453865,-0.03067260195943103,
0.03246882793017456,0.005393964338784633,
0.032518703241895264,-0.012872480995549324,
0.03256857855361596,7.182074572199479e-05,
0.032618453865336655,-0.02055139312620587,
0.03266832917705736,-0.014163416505848181,
0.032718204488778053,-0.0408835415932938,
0.032768079800498756,-0.012760370416882815,
0.03281795511221945,-0.03215613181107093,
0.03286783042394015,-0.0005687697634326975,
0.03291770573566085,-0.002394328239816163,
0.032967581047381546,-0.03400994039954136,
0.03301745635910224,-0.0014989268375241033,
0.033067331670822944,-0.01805962499114932,
0.03311720698254364,-0.01174978680586737,
0.03316708229426434,-0.023544071714131296,
0.03321695760598504,-0.02074652390264677,
0.033266832917705734,-0.026265129214680265,
0.03331670822942644,-0.002981715574975721,
0.03336658354114713,-0.016233753025348963,
0.03341645885286783,-0.011655955676355884,
0.03346633416458853,-0.01785453629413445,
0.033516209476309226,-0.016372589780577925,
0.03356608478802992,-0.0311479419462607,
0.033615960099750625,-0.03725692748807533,
0.03366583541147132,0.0003012116028720778,
0.03371571072319202,-0.0038406842094755034,
0.03376558603491272,-0.014409700550380402,
0.033815461346633414,-0.0030683976308439383,
0.03386533665835412,-0.012881216298846788,
0.03391521197007481,-0.007705412655405834,
0.03396508728179551,0.00916808029705191,
0.03401496259351621,-0.022976398682572154,
0.03406483790523691,-0.03202683227209505,
0.0341147132169576,-0.01575088541865069,
0.034164588528678305,-0.01985666086997395,
0.034214463840399,-0.01722346808691442,
0.034264339152119704,-0.011501018196354186,
0.0343142144638404,-0.015752985533706174,
0.034364089775561095,-0.008210606929095754,
0.0344139650872818,-0.02850386470122849,
0.03446384039900249,-0.03556985095615893,
0.03451371571072319,0.00760164117218733,
0.03456359102244389,-0.010268816069014352,
0.03461346633416459,-0.011991864148825328,
0.03466334164588529,-0.01689005213971576,
0.034713216957605986,-0.0076993723056826245,
0.03476309226932668,-0.013721311460559549,
0.034812967581047384,-0.015048979480493375,
0.03486284289276808,-0.04640555973817523,
0.034912718204488775,0.004119170729432003,
0.03496259351620948,-0.02087216797743574,
0.035012468827930174,-0.020761261889920772,
0.03506234413965087,-0.03449668737282802,
0.03511221945137157,-0.0045770512003622255,
0.03516209476309227,-0.008912007208371231,
0.03521197007481297,-0.03109641258993442,
0.035261845386533666,-0.024670401899358096,
0.03531172069825436,-0.0040580909015165405,
0.035361596009975065,-0.015094989135110471,
0.03541147132169576,-0.031381094897006405,
0.035461346633416456,-0.0171169556210123,
0.03551122194513716,-0.013888860364140207,
0.035561097256857854,-0.024946902720242324,
0.03561097256857856,-0.05871928117286445,
0.03566084788029925,-0.008791765863259433,
0.03571072319201995,-0.001604119974145904,
0.03576059850374065,-0.01870827379436692,
0.03581047381546135,-0.03869185563715253,
0.03586034912718204,-0.011008062748983923,
0.035910224438902745,-0.014455097767828147,
0.03596009975062344,-0.011030333565759377,
0.036009975062344136,-0.039480774786805964,
0.03605985037406484,-0.01575879834702774,
0.036109725685785535,0.006909408036831677,
0.03615960099750624,-0.007295737677570732,
0.03620947630922693,0.009829286785160724,
0.03625935162094763,0.002035346403393824,
0.03630922693266833,-0.03784011974032289,
0.03635910224438903,-0.010712280747780469,
0.03640897755610972,-0.030277167778106354,
0.036458852867830426,-0.021079990641404714,
0.03650872817955112,-0.006858505752859046,
0.036558603491271824,-0.008126138574282446,
0.03660847880299252,-0.011886324400813374,
0.036658354114713215,-0.013100710989150149,
0.03670822942643392,0.010576765822733286,
0.036758104738154614,0.00035365449805101895,
0.03680798004987531,0.0004590810343214381,
0.03685785536159601,-0.018022572293978273,
0.03690773067331671,0.005409411119969867,
0.0369576059850374,-0.020927410696654866,
0.037007481296758106,0.009583434779168912,
0.0370573566084788,-0.016667594572206873,
0.037107231920199504,-0.018037020813056776,
0.0371571072319202,-0.006521188135856074,
0.037206982543640896,-0.008603295409250752,
0.0372568578553616,0.010709394491024394,
0.037306733167082294,-0.017535930504665388,
0.03735660847880299,-0.020549766807806437,
0.03740648379052369,0.006379817040490784,
0.03745635910224439,-0.006311870262908923,
0.037506234413965084,-0.019715854432625815,
0.037556109725685786,0.005943197565740037,
0.03760598503740648,-0.03987578613858293,
0.037655860349127185,-0.012340003158296555,
0.03770573566084788,-0.009358440193659699,
0.037755610972568576,0.01314320151889284,
0.03780548628428928,-0.015636529540623466,
0.037855361596009975,-0.017225991571077306,
0.03790523690773067,-0.00540871320006011,
0.03795511221945137,0.011986973200197414,
0.03800498753117207,-0.003946756509387953,
0.03805486284289277,-0.02905100783295624,
0.03810473815461347,0.010764399237219292,
0.03815461346633416,0.023229400432790134,
0.038204488778054865,-0.013112093090531353,
0.03825436408977556,-0.009738079043188921,
0.03830423940149626,0.009838382775015071,
0.03835411471321696,-0.017630647683898642,
0.038403990024937655,-0.01412790245887567,
0.03845386533665835,-0.049433316697320144,
0.03850374064837905,0.013776581892434619,
0.03855361596009975,0.010529734686022831,
0.03860349127182045,-0.009399182680116212,
0.03865336658354115,0.016364041809618583,
0.03870324189526184,0.017907533201117303,
0.038753117206982546,-0.008932903191511334,
0.03880299251870324,-0.0006113326876429137,
0.03885286783042394,0.00894193384330598,
0.03890274314214464,0.015764019745250653,
0.038952618453865336,-0.015587289320674495,
0.03900249376558604,0.00034253003804338145,
0.039052369077306734,-0.003942432541506633,
0.03910224438902743,-0.03182878551659611,
0.03915211970074813,0.01832480352423808,
0.03920199501246883,0.010678415041369287,
0.039251870324189524,0.002981141068423462,
0.039301745635910226,0.019918234439245727,
0.03935162094763092,-0.0017960477738889007,
0.03940149625935162,-0.011065834734227837,
0.03945137157107232,0.023343333301740453,
0.039501246882793016,-0.02140109218397302,
0.03955112219451372,0.0020075107457244723,
0.039600997506234414,0.015146048219340656,
0.03965087281795511,0.007308435014737635,
0.03970074812967581,0.007712095973276867,
0.03975062344139651,0.021416850427728926,
0.039800498753117204,-0.0061656318482021044,
0.03985037406483791,0.013798363872118795,
0.0399002493765586,0.01700246246221939,
0.039950124688279305,0.025906701342528468,
0.04,0.012152189947565582,
0.0400498753117207,-0.010425487690979281,
0.0400997506234414,-0.005239760896782774,
0.040149625935162095,0.006560585209261623,
0.04019950124688279,0.010092497109739532,
0.04024937655860349,-0.006819643784800109,
0.04029925187032419,-0.014150058531396146,
0.040349127182044885,-0.008225166348507468,
0.04039900249376559,0.029123546117320813,
0.04044887780548628,0.03706759976040655,
0.040498753117206986,0.014497506852171875,
0.04054862842892768,0.011052982899967131,
0.04059850374064838,0.01354409518825469,
0.04064837905236908,-0.0034537673568269724,
0.040698254364089775,0.0182986598300707,
0.04074812967581047,0.010152767120559826,
0.040798004987531174,0.02699318257065871,
0.04084788029925187,0.021651630337644542,
0.040897755610972565,0.00976485607602725,
0.04094763092269327,0.010081981064678041,
0.04099750623441396,0.0021721207406200805,
0.041047381546134666,-0.0037618253742614533,
0.04109725685785536,0.009864768943646025,
0.04114713216957606,0.028417098176025026,
0.04119700748129676,-0.0033527597554500674,
0.041246882793017456,-0.008772871434849804,
0.04129675810473815,0.015856449821260922,
0.041346633416458854,0.02595557046201177,
0.04139650872817955,0.011649905504111623,
0.04144638403990025,0.04607600251374416,
0.04149625935162095,0.034529816914061914,
0.041546134663341644,0.008362040972598628,
0.04159600997506235,0.0042091077773279695,
0.04164588528678304,-0.0024112291078534423,
0.04169576059850374,0.022833568075291914,
0.04174563591022444,0.006852698286990566,
0.041795511221945136,0.015441600621902777,
0.04184538653366583,0.03194710966708273,
0.041895261845386535,0.02318816290223551,
0.04194513715710723,0.027689335121744103,
0.04199501246882793,0.02241746490243628,
0.04204488778054863,0.007368872205781904,
0.042094763092269324,0.02838771299243463,
0.04214463840399003,0.02896049630263815,
0.04219451371571072,0.018976023504139256,
0.04224438902743142,0.0034411718965932994,
0.04229426433915212,0.005377519862138035,
0.04234413965087282,0.020299708182584187,
0.04239401496259352,0.008186219863496826,
0.042443890274314215,0.038244280442914474,
0.04249376558603491,0.02746000555256142,
0.042543640897755614,0.01750584867126026,
0.04259351620947631,0.031407635001139286,
0.042643391521197005,0.0583123485722864,
0.04269326683291771,0.03193123497512117,
0.0427431421446384,0.04161797814437365,
0.0427930174563591,0.03142482585240557,
0.0428428927680798,0.039999883641694975,
0.0428927680798005,0.02057440159087739,
0.0429426433915212,0.0025091184559453937,
0.042992518703241896,0.03772505381173795,
0.04304239401496259,0.033715516591967316,
0.043092269326683294,0.008628877548372278,
0.04314214463840399,0.028566282264926877,
0.043192019950124685,0.0008185978167696804,
0.04324189526184539,0.012206112987804368,
0.043291770573566084,0.01821297248807554,
0.043341645885286786,0.035262367432143185,
0.04339152119700748,0.00828988825478746,
0.04344139650872818,-0.003705932282659037,
0.04349127182044888,0.01980495264497874,
0.043541147132169576,0.038696301838932565,
0.04359102244389027,0.019725840240234094,
0.043640897755610975,0.01739273717559897,
0.04369077306733167,0.004344293141481954,
0.043740648379052366,0.02088657363652988,
0.04379052369077307,0.03326903312535116,
0.043840399002493764,0.03581282055772812,
0.04389027431421447,0.013865574373731959,
0.04394014962593516,-0.014191196040764867,
0.04399002493765586,0.016408855445219233,
0.04403990024937656,0.035964559361712,
0.04408977556109726,0.0551438595466456,
0.04413965087281795,0.031381231071706366,
0.044189526184538655,0.0099967926566566,
0.04423940149625935,0.03514453860062352,
0.04428927680798005,0.04253546729705926,
0.04433915211970075,0.032505223084005865,
0.044389027431421445,-0.0011413419581186232,
0.04443890274314215,0.033246169579066794,
0.04448877805486284,0.025275895503101803,
0.04453865336658354,0.023585785876384064,
0.04458852867830424,0.012103286076814155,
0.04463840399002494,0.01667538704221259,
0.04468827930174563,0.03996415051353916,
0.044738154613466335,-0.0030196939815971165,
0.04478802992518703,0.03468026105487066,
0.044837905236907734,0.00996103384929532,
0.04488778054862843,0.04178356309270509,
0.044937655860349125,0.007574969916055305,
0.04498753117206983,0.01258103266925,
0.045037406483790524,0.007791438088419294,
0.04508728179551122,0.04202500323701246,
0.04513715710723192,0.021138256992890053,
0.04518703241895262,0.027090465028731546,
0.04523690773067331,0.008303669740612534,
0.045286783042394016,0.0015776572826847017,
0.04533665835411471,0.018187315627623837,
0.045386533665835414,0.014822426724257593,
0.04543640897755611,0.027299255305497424,
0.045486284289276806,-0.013178710909449786,
0.04553615960099751,0.010096541909136504,
0.045586034912718204,0.05904400890131195,
0.0456359102244389,0.02788100359142095,
0.0456857855361596,-0.008722550650135746,
0.0457356608478803,0.03603164800099599,
0.045785536159601,0.035010652028674774,
0.045835411471321696,0.02108850386787391,
0.04588528678304239,0.024086407697213617,
0.045935162094763095,0.003765358192432896,
0.04598503740648379,0.012325952675289078,
0.046034912718204486,0.0043115011089543895,
0.04608478802992519,0.02772911712050373,
0.046134663341645885,0.03481093653170377,
0.04618453865336658,0.01821886854996722,
0.04623441396508728,0.013831790188328507,
0.04628428927680798,0.030838486419412746,
0.04633416458852868,0.05315357614422388,
0.04638403990024938,0.0028087858405470914,
0.04643391521197007,0.002192086106128154,
0.046483790523690775,-0.03028516740093176,
0.04653366583541147,0.0014350066719395864,
0.04658354114713217,0.003905881495026438,
0.04663341645885287,-0.020706586093287047,
0.046683291770573565,0.022526723940959007,
0.04673316708229427,0.040337269128014275,
0.04678304239401496,0.04923775842742756,
0.04683291770573566,0.012359676100017973,
0.04688279301745636,0.021328367859019662,
0.04693266832917706,0.028066036331702196,
0.04698254364089775,0.03622778426459475,
0.047032418952618456,0.03627025121313456,
0.04708229426433915,0.015318021865247678,
0.04713216957605985,0.02753243630455726,
0.04718204488778055,0.03993916696645913,
0.047231920199501246,0.016207036712861025,
0.04728179551122195,0.0034026039022498553,
0.047331670822942644,0.014447681895843636,
0.04738154613466334,0.008285512574021745,
0.04743142144638404,0.01944180914092759,
0.04748129675810474,0.013713555479149545,
0.047531172069825434,0.002104312744259113,
0.047581047381546136,-0.005121481329862301,
0.04763092269326683,0.021134277732845198,
0.047680798004987535,0.017718970517811076,
0.04773067331670823,0.023911967550042067,
0.047780548628428926,0.021035814826038002,
0.04783042394014963,0.016871235076625045,
0.047880299251870324,0.008159821271960101,
0.04793017456359102,0.014231561917521373,
0.04798004987531172,-0.00038266104984869924,
0.04802992518703242,0.024256153304114923,
0.048079800498753114,0.016420331581612477,
0.04812967581047382,0.014179419513753195,
0.04817955112219451,0.0207090077948278,
0.048229426433915215,0.019698381464419407,
0.04827930174563591,-0.003535694061162397,
0.048329177057356607,0.019753385807463327,
0.04837905236907731,0.009788186521738778,
0.048428927680798005,-0.004353350653252845,
0.0484788029925187,0.004638178446608935,
0.0485286783042394,-0.0016568236697677118,
0.0485785536159601,0.008691115907876239,
0.048628428927680795,0.004067030580477268,
0.0486783042394015,0.004936275709764386,
0.04872817955112219,0.0031429339903624844,
0.048778054862842896,0.01761449084828107,
0.04882793017456359,0.014401049471923368,
0.04887780548628429,0.0018105111085492918,
0.04892768079800499,0.005937514133619666,
0.048977556109725685,0.015186363658751569,
0.04902743142144638,0.02048362928761412,
0.049077306733167084,0.005173574391298803,
0.04912718204488778,0.0023531721930065965,
0.04917705735660848,0.01582050876656773,
0.04922693266832918,0.017028164655580325,
0.04927680798004987,-0.02481274566983059,
0.049326683291770576,0.007871765845560659,
0.04937655860349127,-0.0059245862543536015,
0.04942643391521197,-0.06339957237384446,
0.04947630922693267,0.022728852726059387,
0.049526184538653366,0.005307945895207719,
0.04957605985037406,0.02664210883488546,
0.049625935162094764,0.00021287013924611246,
0.04967581047381546,-0.03669512528499339,
0.04972568578553616,0.007469375203202639,
0.04977556109725686,0.02164569073542682,
0.049825436408977554,0.003939145603663755,
0.04987531172069826,0.006909441593427726,
0.04992518703241895,0.0076525595119709775,
0.04997506234413965,0.020660144423424957,
0.05002493765586035,0.02289219788446907,
0.050074812967581046,0.005775626834106819,
0.05012468827930175,-0.02866404998340787,
0.050174563591022445,-0.023744716721644236,
0.05022443890274314,-0.0190864978522557,
0.05027431421446384,-0.0034985850800907043,
0.05032418952618454,0.008328458338063106,
0.050374064837905234,-0.0018702383966117792,
0.05042394014962594,-0.0019518480701826147,
0.05047381546134663,0.011518693014760236,
0.05052369077306733,0.014191988210112128,
0.05057356608478803,-0.008657822121161866,
0.05062344139650873,-0.01675303946072189,
0.05067331670822943,-0.011527075516208352,
0.050723192019950125,0.010034771231101853,
0.05077306733167082,0.013213931953352805,
0.050822942643391524,-0.010073638263931727,
0.05087281795511222,-0.023359395477651215,
0.050922693266832915,-0.011453525655462296,
0.05097256857855362,-0.0010155187142256387,
0.05102244389027431,-0.01967392082382592,
0.051072319201995016,0.00711965132739204,
0.05112219451371571,0.006627130358543978,
0.05117206982543641,-0.020236712106202877,
0.05122194513715711,-0.014844310788517483,
0.051271820448877806,-0.0116343777689977,
0.0513216957605985,0.008129133209080408,
0.051371571072319204,0.0034395246173419304,
0.0514214463840399,-0.02617314326984299,
0.051471321695760595,-0.0016289466156907632,
0.0515211970074813,-0.029681897431170313,
0.051571072319201994,-0.012302208455121057,
0.051620947630922696,-0.005895992984875488,
0.05167082294264339,-0.019139176262418706,
0.05172069825436409,-0.010399315736272953,
0.05177057356608479,0.000370725933001817,
0.051820448877805486,0.00862077612943975,
0.05187032418952618,0.009986223618210898,
0.051920199501246884,-0.00917166905888911,
0.05197007481296758,-0.021766385994691863,
0.052019950124688276,-0.023510118174011746,
0.05206982543640898,-0.0003707352578201893,
0.052119700748129674,-0.007435939368008914,
0.05216957605985038,-0.014425598939551879,
0.05221945137157107,-0.01263343356606416,
0.05226932668329177,-0.004549022448270051,
0.05231920199501247,-0.017315811569222912,
0.05236907730673317,-0.02306756323944768,
0.05241895261845386,-0.010410488005475168,
0.052468827930174565,0.015100078559147228,
0.05251870324189526,0.022226177305276235,
0.05256857855361596,-0.0013122783280038967,
0.05261845386533666,-0.0032950229547780447,
0.052668329177057355,0.0009454169050765928,
0.05271820448877806,-0.01575601046708847,
0.05276807980049875,0.0027811147743187076,
0.05281795511221945,-0.021433941645112038,
0.05286783042394015,-0.0028994885088320984,
0.05291770573566085,-0.028774294109900317,
0.05296758104738154,-0.0425588939123287,
0.053017456359102245,-0.03227566632149574,
0.05306733167082294,-0.017716041669024227,
0.053117206982543644,-0.00793752746332942,
0.05316708229426434,-0.00939365755610732,
0.053216957605985035,-0.0016429509079063775,
0.05326683291770574,-0.012617702671649451,
0.053316708229426434,0.01832007977844556,
0.05336658354114713,-0.019651232818623715,
0.05341645885286783,-0.011605311876459492,
0.05346633416458853,-0.010510624014728617,
0.05351620947630923,-0.007216157103391657,
0.053566084788029926,-0.02845428205806757,
0.05361596009975062,-0.0016325004417483639,
0.053665835411471324,-0.02003812647053055,
0.05371571072319202,0.005872847998349466,
0.053765586034912716,-0.012436800077667613,
0.05381546134663342,-0.013722539741293362,
0.053865336658354114,-0.01330760909708364,
0.05391521197007481,-0.016917739517318096,
0.05396508728179551,0.011470606741029548,
0.05401496259351621,-0.01217254398498142,
0.05406483790523691,-0.008303261292621572,
0.054114713216957606,-0.01699318241262905,
0.0541645885286783,0.006262099495931192,
0.054214463840399005,-0.026045292448472868,
0.0542643391521197,-0.028268271306876154,
0.054314214463840396,-0.026132546905976488,
0.0543640897755611,-0.039219922257737294,
0.054413965087281795,-0.010141708927646091,
0.0544638403990025,-0.01815966682130974,
0.05451371571072319,-0.01946792824704549,
0.05456359102244389,-0.02974869206305205,
0.05461346633416459,-0.0188534443140445,
0.05466334164588529,-0.04687226432286913,
0.05471321695760598,-0.049103405881232715,
0.054763092269326685,-0.025981716706839474,
0.05481296758104738,-0.007878762784863689,
0.05486284289276808,-0.024119864453752582,
0.05491271820448878,-0.052276639162276095,
0.054962593516209475,-0.0018743004581999439,
0.05501246882793018,-0.017061663511368386,
0.05506234413965087,-0.016046605744039048,
0.05511221945137157,-0.0013262013723032134,
0.05516209476309227,0.00513544803069268,
0.05521197007481297,-0.03782879461684144,
0.05526184538653366,-0.017655070121726863,
0.055311720698254366,-0.04048932339083171,
0.05536159600997506,-0.03177663524818463,
0.05541147132169576,-0.04978528994245766,
0.05546134663341646,-0.015388120619291717,
0.055511221945137156,-0.040141240916546014,
0.05556109725685786,0.01812083073964498,
0.055610972568578554,-0.03175072583238483,
0.05566084788029925,-0.00600254862600683,
0.05571072319201995,0.001810554988965712,
0.05576059850374065,-0.010688391006804425,
0.055810473815461344,-0.014882856164624812,
0.055860349127182046,-0.00017197374624603606,
0.05591022443890274,-0.008328379897033474,
0.055960099750623445,-0.013955933919804335,
0.05600997506234414,-0.0071883463773855195,
0.056059850374064836,-0.013055785581717895,
0.05610972568578554,-0.038454936308892886,
0.056159600997506234,-0.024780842760521997,
0.05620947630922693,0.015007770224008208,
0.05625935162094763,-0.012972891952534635,
0.05630922693266833,-0.02904411914965789,
0.056359102244389024,-0.011645230293957433,
0.05640897755610973,0.017261642869784516,
0.05645885286783042,0.002823539022662686,
0.056508728179551125,0.025865851637514245,
0.05655860349127182,-0.005525074876873538,
0.056608478802992516,-0.032418391404904635,
0.05665835411471322,-0.011018345125317313,
0.056708229426433915,0.022330763379747806,
0.05675810473815461,-0.041411493357465856,
0.05680798004987531,-0.015507582538855494,
0.05685785536159601,-0.021749402892699846,
0.05690773067331671,-0.014896072050145225,
0.05695760598503741,-0.008785590695635356,
0.0570074812967581,-0.02635089514724716,
0.057057356608478806,-0.01270341648968001,
0.0571072319201995,-0.006946469660781794,
0.0571571072319202,0.028373468730610155,
0.0572069825436409,0.007088928468262286,
0.057256857855361595,-0.022025304147430987,
0.05730673316708229,-0.023496895781802963,
0.057356608478802994,-0.04254889589613676,
0.05740648379052369,-0.023595476412504434,
0.05745635910224439,-0.020910716420413332,
0.05750623441396509,-0.011540928582103916,
0.05755610972568578,0.0023498382728610887,
0.057605985037406486,-0.03375951628028025,
0.05765586034912718,0.0030520913793276047,
0.05770573566084788,0.00427228114286191,
0.05775561097256858,-0.019189643708418278,
0.057805486284289276,0.035091233401144346,
0.05785536159600998,0.005960983039424085,
0.057905236907730674,-0.010326722395699487,
0.05795511221945137,0.012649849066283254,
0.05800498753117207,-0.00845512677608461,
0.05805486284289277,-0.004842087024465307,
0.058104738154613464,-0.012464787523654807,
0.05815461346633417,0.010844320075918335,
0.05820448877805486,0.0009608947347037461,
0.05825436408977556,-0.029866396453984055,
0.05830423940149626,-0.019939174511947134,
0.058354114713216956,-0.011554096365210006,
0.05840399002493766,0.015653008731032616,
0.058453865336658355,-0.01138243563868793,
0.05850374064837905,-0.00010600997128054211,
0.05855361596009975,-0.01638267833399204,
0.05860349127182045,-0.01398006261156742,
0.058653366583541144,-0.013655214166109956,
0.05870324189526185,0.0059621975503768064,
0.05875311720698254,-0.0011847405872433506,
0.05880299251870324,-0.017411788218421497,
0.05885286783042394,-0.007934820454560853,
0.05890274314214464,-0.011980172737080566,
0.05895261845386534,-0.023757689488001,
0.059002493765586035,-0.00650203851920126,
0.05905236907730673,0.003123834040829973,
0.059102244389027433,0.014728777712138125,
0.05915211970074813,0.021952474623726154,
0.059201995012468825,-0.013627551833979342,
0.05925187032418953,-0.007191459475997381,
0.05930174563591022,0.03804691813588321,
0.059351620947630926,0.011506242866155194,
0.05940149625935162,0.022981560603768502,
0.05945137157107232,0.022106008986132585,
0.05950124688279302,0.021931192282267212,
0.059551122194513716,0.0031850185033666803,
0.05960099750623441,0.025021917019874357,
0.059650872817955114,0.011601210060396988,
0.05970074812967581,0.002619053651744517,
0.059750623441396505,0.008026117649260922,
0.05980049875311721,0.017789355583380406,
0.059850374064837904,0.006379298826933732,
0.059900249376558606,0.0050324095825129405,
0.0599501246882793,0.011947467561937482,
0.06,-0.006361517034510362,
0.0600498753117207,0.041760105525416265,
0.060099750623441396,0.026469413353123583,
0.06014962593516209,0.017884536933725572,
0.060199501246882794,0.018757723500676976,
0.06024937655860349,0.009251330152497673,
0.06029925187032419,0.008152980011178116,
0.06034912718204489,0.016282975874634648,
0.060399002493765584,0.00502698980205139,
0.06044887780548629,0.030626245155505022,
0.06049875311720698,0.003262142219796569,
0.06054862842892768,0.01242679919375878,
0.06059850374064838,0.009145330001157739,
0.06064837905236908,-0.0024731264492336823,
0.06069825436408977,0.002933109458981918,
0.060748129675810475,0.00010044155711430754,
0.06079800498753117,0.0037710339426872373,
0.06084788029925187,-0.023577705979582614,
0.06089775561097257,-0.029117870829832897,
0.060947630922693265,-0.005982526007259422,
0.06099750623441397,0.02266301624358271,
0.06104738154613466,-0.013898042638561868,
0.06109725685785536,0.02030835548362031,
0.06114713216957606,0.00651972612671679,
0.06119700748129676,-0.004164678168800114,
0.06124688279301746,0.012723380537577579,
0.061296758104738155,0.01464148916280244,
0.06134663341645885,0.007480528050277952,
0.061396508728179554,0.011634674151436809,
0.06144638403990025,0.03502940831089013,
0.061496259351620945,0.012293886228782039,
0.06154613466334165,0.02633751254136828,
0.061596009975062344,0.017933224265963308,
0.06164588528678304,0.028178969102787287,
0.06169576059850374,0.02814567813422808,
0.06174563591022444,0.02311845946657919,
0.06179551122194514,0.01800808070448145,
0.061845386533665836,0.043987710995083085,
0.06189526184538653,-0.00020418971208923525,
0.061945137157107234,0.0041453636165876846,
0.06199501246882793,-0.009288815151609096,
0.062044887780548626,0.03575453692295228,
0.06209476309226933,0.011748744438354037,
0.062144638403990024,0.021583751011727957,
0.06219451371571072,-0.0058148000768727635,
0.06224438902743142,0.02892673224585992,
0.06229426433915212,0.013362006229869796,
0.06234413965087282,0.03371078104675983,
0.062394014962593516,0.022303983981945687,
0.06244389027431421,0.006661257463794073,
0.062493765586034915,0.0194059610835834,
0.06254364089775562,0.040706590029785744,
0.06259351620947631,0.03154556253305718,
0.06264339152119701,0.04068911453769402,
0.0626932668329177,0.017274196956958508,
0.0627431421446384,0.003701349282214536,
0.0627930174563591,0.04139487395758571,
0.0628428927680798,0.047597490502081896,
0.0628927680798005,0.016855397777651538,
0.0629426433915212,0.013346261573170084,
0.06299251870324189,0.03546910532862149,
0.06304239401496259,0.031868862617314246,
0.0630922693266833,0.029060777960316565,
0.063142144638404,0.03574435392503331,
0.06319201995012469,0.0334006520453751,
0.06324189526184539,0.01709828193267092,
0.06329177057356608,0.02467953983391244,
0.06334164588528678,-0.015940369130503864,
0.06339152119700749,0.03513016575204708,
0.06344139650872818,0.02495607707019801,
0.06349127182044888,0.030665785352625017,
0.06354114713216957,0.02775442839547537,
0.06359102244389027,0.020165223256353396,
0.06364089775561098,0.03438008869551817,
0.06369077306733167,0.051771621024189494,
0.06374064837905237,0.03148641323530445,
0.06379052369077307,0.008146329599490128,
0.06384039900249376,0.025584363732305847,
0.06389027431421446,0.029143568191538242,
0.06394014962593517,0.01789319441850649,
0.06399002493765586,0.006996368569160211,
0.06403990024937656,0.010649153237157467,
0.06408977556109725,0.0548212856489788,
0.06413965087281795,0.015028021529124424,
0.06418952618453866,0.06566961381219928,
0.06423940149625935,-0.0055960823436146424,
0.06428927680798005,0.018023992479271216,
0.06433915211970075,0.04856686770859376,
0.06438902743142144,0.03537294756828279,
0.06443890274314215,0.0030029481343972035,
0.06448877805486285,0.016506312408074868,
0.06453865336658354,0.0062095296992778284,
0.06458852867830424,0.013569017477690726,
0.06463840399002493,0.01266618291754691,
0.06468827930174563,0.04837003858300061,
0.06473815461346634,0.033529103537112234,
0.06478802992518704,0.0072144969394139745,
0.06483790523690773,0.03093287754517161,
0.06488778054862843,0.019303179388415734,
0.06493765586034912,0.008322708393487435,
0.06498753117206983,0.014596689209439677,
0.06503740648379053,0.04013939763405177,
0.06508728179551122,0.030895067195895357,
0.06513715710723192,0.043937396726286,
0.06518703241895261,0.044337034371727174,
0.06523690773067331,0.03915367692341775,
0.06528678304239402,0.0024119390358964404,
0.06533665835411472,0.0069323632708241725,
0.06538653366583541,0.022066565715894652,
0.06543640897755611,0.008054772147595719,
0.0654862842892768,0.024746466695233,
0.06553615960099751,0.019488917390584094,
0.06558603491271821,0.01691349728651023,
0.0656359102244389,0.02259080871372465,
0.0656857855361596,0.008401890852169932,
0.0657356608478803,0.02877366426513016,
0.06578553615960099,0.011329247009352953,
0.0658354114713217,0.017876900488778345,
0.0658852867830424,-0.016301124282416583,
0.06593516209476309,0.011342445269292331,
0.06598503740648379,0.02673955133681769,
0.06603491271820448,-0.006451667172676218,
0.06608478802992519,0.04544468877326162,
0.06613466334164589,0.0037730262964597028,
0.06618453865336658,0.012974484155458214,
0.06623441396508728,0.004444272938987935,
0.06628428927680798,0.0419172698881088,
0.06633416458852869,0.006706815215218001,
0.06638403990024938,0.03157266600808046,
0.06643391521197008,0.019015882921263324,
0.06648379052369077,0.01654471686695647,
0.06653366583541147,0.03510851138953699,
0.06658354114713216,0.049091295599014304,
0.06663341645885287,0.0328977937329306,
0.06668329177057357,0.01585518625897701,
0.06673316708229426,0.03031438073055361,
0.06678304239401496,0.029965200496250295,
0.06683291770573566,0.030016490338707954,
0.06688279301745637,-0.0004909198855824783,
0.06693266832917706,-0.009390020782308033,
0.06698254364089776,-0.013292810608558716,
0.06703241895261845,0.03585601890577155,
0.06708229426433915,-0.0028518618289713644,
0.06713216957605984,0.00906414586302509,
0.06718204488778055,-0.003498261807050318,
0.06723192019950125,0.003809040200117398,
0.06728179551122195,-0.001775755750344686,
0.06733167082294264,0.025193925263590898,
0.06738154613466334,0.0201230629633107,
0.06743142144638405,0.04364021564899703,
0.06748129675810474,0.00325822658047014,
0.06753117206982544,0.02780237202269599,
0.06758104738154613,0.03583488027291656,
0.06763092269326683,-0.005387527626196126,
0.06768079800498752,0.026451199608391332,
0.06773067331670823,0.011950833026733693,
0.06778054862842893,0.04827302969636801,
0.06783042394014963,0.01623125907755809,
0.06788029925187032,0.003479704791649871,
0.06793017456359102,-0.0017883995987162914,
0.06798004987531173,0.0027348767797598737,
0.06802992518703242,0.03350793872227033,
0.06807980049875312,0.034883173379836756,
0.06812967581047381,0.030637481096393557,
0.06817955112219451,0.009598669006889209,
0.0682294264339152,-0.029126818438910667,
0.06827930174563591,0.020012404208860798,
0.06832917705735661,0.012248384249204564,
0.0683790523690773,0.012373942226272116,
0.068428927680798,0.020853818650478608,
0.0684788029925187,0.015459632235689233,
0.06852867830423941,0.024850021476718165,
0.0685785536159601,-0.02865021975264553,
0.0686284289276808,0.016938474851652792,
0.0686783042394015,-0.03330449191442868,
0.06872817955112219,0.002018605373406533,
0.0687780548628429,0.0030790128201598314,
0.0688279301745636,0.03105739431065211,
0.06887780548628429,0.007272498937477182,
0.06892768079800499,0.03218676907620173,
0.06897755610972568,0.022578391742279554,
0.06902743142144638,0.029389282908077262,
0.06907730673316709,-0.015510696465478268,
0.06912718204488778,-0.01720150789591591,
0.06917705735660848,0.005525716738586394,
0.06922693266832917,0.023446524571262936,
0.06927680798004987,0.040995559236501715,
0.06932668329177058,0.00570859035169716,
0.06937655860349128,0.010963162219368149,
0.06942643391521197,7.398358132031449e-06,
0.06947630922693267,0.011421122011758572,
0.06952618453865336,-0.022891752608532025,
0.06957605985037406,0.028466357169038337,
0.06962593516209477,0.0004775248439988144,
0.06967581047381546,0.0077462012362605245,
0.06972568578553616,0.008590996388701401,
0.06977556109725686,0.04080812670475874,
0.06982543640897755,-0.0016288849146831423,
0.06987531172069826,0.022275196898368696,
0.06992518703241896,0.00019296347791065852,
0.06997506234413965,-0.03237473111526056,
0.07002493765586035,0.015026078485273405,
0.07007481296758104,0.02977586789378322,
0.07012468827930174,-0.013043874571829154,
0.07017456359102245,0.0001931497388211632,
0.07022443890274314,0.013235724135113345,
0.07027431421446384,-0.020173456234676312,
0.07032418952618454,-0.027242680313347815,
0.07037406483790523,-0.025601973195041747,
0.07042394014962594,-0.02276124113922214,
0.07047381546134664,-0.014134578442759532,
0.07052369077306733,0.010415307508012634,
0.07057356608478803,0.01008866452341934,
0.07062344139650872,0.016830691216359883,
0.07067331670822943,-0.020123498842659793,
0.07072319201995013,-0.00493359962442105,
0.07077306733167082,-0.008021468802984988,
0.07082294264339152,-0.027285196349035055,
0.07087281795511222,-0.033986379660086205,
0.07092269326683291,0.004179967512335912,
0.07097256857855362,0.004756587038774548,
0.07102244389027432,-0.0005716041078159271,
0.07107231920199501,-0.015350000736954705,
0.07112219451371571,-0.03219114937530303,
0.0711720698254364,0.0016486569073788137,
0.07122194513715711,4.1843499601619365e-05,
0.07127182044887781,-0.02522617994793791,
0.0713216957605985,-0.02546233035207454,
0.0713715710723192,-0.004114081276379585,
0.0714214463840399,0.0008051469423670382,
0.07147132169576059,-0.013216822330351525,
0.0715211970074813,0.016706201978121105,
0.071571072319202,-0.008574990712763412,
0.0716209476309227,0.016939207940145744,
0.07167082294264339,-0.0007390228436142026,
0.07172069825436408,0.034619499989798956,
0.0717705735660848,-0.013489131724789306,
0.07182044887780549,-0.03295809867401662,
0.07187032418952619,0.021236912662855566,
0.07192019950124688,-0.014087950323494098,
0.07197007481296758,0.022069526710186173,
0.07201995012468827,-0.03910686715638864,
0.07206982543640898,0.03291665391306972,
0.07211970074812968,0.005098667138653925,
0.07216957605985037,-0.008521641429210967,
0.07221945137157107,-0.03227498797105563,
0.07226932668329177,-0.007824256280765886,
0.07231920199501247,-0.0022966567855895277,
0.07236907730673317,-0.005891320124789878,
0.07241895261845387,-0.014593973693375426,
0.07246882793017456,-0.014861688382705596,
0.07251870324189526,-0.02274635600808128,
0.07256857855361595,0.006394016932694802,
0.07261845386533666,0.010873968880022414,
0.07266832917705736,-0.01824859554408164,
0.07271820448877805,0.0009314562775472445,
0.07276807980049875,-0.011445642094804528,
0.07281795511221945,-0.004978617346852418,
0.07286783042394016,-0.05088398180596812,
0.07291770573566085,-0.024198786624682205,
0.07296758104738155,-0.030357504302780475,
0.07301745635910224,0.002362718269191386,
0.07306733167082294,-0.006919688099484621,
0.07311720698254365,-0.022945808374753192,
0.07316708229426434,-0.020547873093147685,
0.07321695760598504,-0.03173277070426235,
0.07326683291770573,-0.01697578931722525,
0.07331670822942643,-0.001982981389784897,
0.07336658354114713,-0.016967499663938367,
0.07341645885286784,-0.0448319871700088,
0.07346633416458853,-0.002624191661383937,
0.07351620947630923,-0.009316984500718599,
0.07356608478802992,-0.00696895883524154,
0.07361596009975062,0.01305737525452779,
0.07366583541147133,-0.015476465658859124,
0.07371571072319202,0.01176867602599484,
0.07376558603491272,0.00042131489502618413,
0.07381546134663342,-0.00037618407841511457,
0.07386533665835411,-0.023623291450459143,
0.0739152119700748,-0.029320574358831744,
0.07396508728179552,-0.0009762379512551645,
0.07401496259351621,-0.016597849371636445,
0.07406483790523691,-0.01589753400457897,
0.0741147132169576,-0.003606659304880095,
0.0741645885286783,-0.013168892577724906,
0.07421446384039901,-0.023647459202578144,
0.0742643391521197,-0.02350570672166293,
0.0743142144638404,-0.022603730849331736,
0.0743640897755611,-0.023419177915147978,
0.07441396508728179,-0.0022787682498197695,
0.07446384039900249,-0.025342602991179863,
0.0745137157107232,-0.01108617437769284,
0.07456359102244389,-0.0006208041655975469,
0.07461346633416459,-0.009193349990548244,
0.07466334164588528,-0.011576475451324474,
0.07471321695760598,-0.0016410006219158748,
0.07476309226932669,0.00425631712019724,
0.07481296758104738,0.0262289456948972,
0.07486284289276808,-0.006548491618168556,
0.07491271820448878,-0.01738017890101705,
0.07496259351620947,-0.027940325065490115,
0.07501246882793017,-0.009999057308686738,
0.07506234413965088,-0.012284849012475898,
0.07511221945137157,-0.024159080835927143,
0.07516209476309227,-0.004402597779428063,
0.07521197007481296,-0.00919532875235555,
0.07526184538653366,-0.015795752515875627,
0.07531172069825437,-0.022385269296577033,
0.07536159600997507,-0.02012421643964949,
0.07541147132169576,-0.028294147943534975,
0.07546134663341646,-0.03188559815547802,
0.07551122194513715,-0.0422839847149752,
0.07556109725685786,-0.04259444963621589,
0.07561097256857856,-0.005499916665239626,
0.07566084788029925,-0.004837746520718698,
0.07571072319201995,-0.027169005546679025,
0.07576059850374064,-0.018450771609690393,
0.07581047381546134,0.0027289645932163688,
0.07586034912718205,-0.02270497948548105,
0.07591022443890275,-0.015510580581045947,
0.07596009975062344,-0.005059665296398961,
0.07600997506234414,-0.022491265556783886,
0.07605985037406483,-0.01586498634564097,
0.07610972568578554,-0.017121006090928557,
0.07615960099750624,-0.008602475071854982,
0.07620947630922693,-0.023697556983232636,
0.07625935162094763,-0.006541480153755606,
0.07630922693266833,-0.027283221040028345,
0.07635910224438902,-0.004703868483368292,
0.07640897755610973,-0.007338549893799338,
0.07645885286783043,-0.020720438783019757,
0.07650872817955112,-0.0025235698028072944,
0.07655860349127182,-0.019314422244463732,
0.07660847880299251,-0.011720006068061206,
0.07665835411471322,-0.015432675297410174,
0.07670822942643392,-0.009813147232776093,
0.07675810473815461,-0.010438682456003122,
0.07680798004987531,0.006865440251554892,
0.076857855361596,-0.013983227434883064,
0.0769077306733167,-0.007950309432864117,
0.07695760598503741,-0.03955151674725442,
0.0770074812967581,-0.00198517402733751,
0.0770573566084788,-0.028403155794995,
0.0771072319201995,-0.011966346464238473,
0.0771571072319202,-0.0189194041070399,
0.0772069825436409,-0.019927673877291826,
0.0772568578553616,0.009497929226036542,
0.0773067331670823,-0.028847762260243652,
0.07735660847880299,-0.003788185958088855,
0.07740648379052369,-0.002714221103656888,
0.0774563591022444,0.02340231817793279,
0.07750623441396509,-0.018505503796875242,
0.07755610972568579,0.011752892771715925,
0.07760598503740648,-0.0313444616103425,
0.07765586034912718,-0.00591191922315639,
0.07770573566084787,6.577022300753837e-05,
0.07775561097256858,-0.010109299225292898,
0.07780548628428928,-0.005739118296735411,
0.07785536159600998,-0.012795270033623692,
0.07790523690773067,-0.00312405233849003,
0.07795511221945137,0.01554383597822784,
0.07800498753117208,-0.0059670404748726575,
0.07805486284289277,0.01348155948135494,
0.07810473815461347,-0.015755398709606856,
0.07815461346633416,0.03144410887903082,
0.07820448877805486,-0.010238725270025128,
0.07825436408977555,-0.009475050906495117,
0.07830423940149626,-0.0287879834767539,
0.07835411471321696,-0.00361301426997402,
0.07840399002493766,-0.009961166060302938,
0.07845386533665835,-0.002483062034793231,
0.07850374064837905,0.003620184464253759,
0.07855361596009976,0.002501804170462345,
0.07860349127182045,-0.007447197534921482,
0.07865336658354115,0.014024805511123416,
0.07870324189526184,-0.02899169291458855,
0.07875311720698254,-0.013940120086602968,
0.07880299251870324,0.013379941731945089,
0.07885286783042394,0.018740753128018255,
0.07890274314214464,0.00899250253957705,
0.07895261845386534,0.0026254117625722196,
0.07900249376558603,0.02007593961991047,
0.07905236907730673,-0.009900327991645013,
0.07910224438902744,0.0005220611900133647,
0.07915211970074813,0.004609446426474788,
0.07920199501246883,-0.002065667915456001,
0.07925187032418952,-0.002077885263212932,
0.07930174563591022,-0.0030570456971026417,
0.07935162094763092,0.0426707031319549,
0.07940149625935163,-0.004587442798580787,
0.07945137157107232,-0.010692039239616168,
0.07950124688279302,0.0219580732600588,
0.07955112219451371,-0.018988288088905254,
0.07960099750623441,-0.003844429274550325,
0.07965087281795512,2.6813564589992477e-05,
0.07970074812967581,-0.003981377044691979,
0.07975062344139651,0.022888416023099715,
0.0798004987531172,0.004056406002106043,
0.0798503740648379,0.00940465933474274,
0.07990024937655861,-0.006056004693727565,
0.0799501246882793,0.025362220285339968,
0.08,0.010423390893911125,
0.0800498753117207,0.008790423924395538,
0.0800997506234414,0.004102228890635605,
0.08014962593516209,0.022601615118365385,
0.0801995012468828,0.015889313701964503,
0.0802493765586035,0.020811540494747423,
0.08029925187032419,0.000796214669946501,
0.08034912718204489,0.0016258268017945773,
0.08039900249376558,0.02097022917932164,
0.08044887780548629,0.018388074381877242,
0.08049875311720699,0.016774971343734787,
0.08054862842892768,0.030712330635625278,
0.08059850374064838,0.009783450963332569,
0.08064837905236907,-0.0011755809245658378,
0.08069825436408977,0.005586793346552387,
0.08074812967581048,-0.0028094840143669635,
0.08079800498753117,-0.007169318098699858,
0.08084788029925187,0.046752352722549004,
0.08089775561097257,0.015533740630795408,
0.08094763092269326,0.012871815530496166,
0.08099750623441397,0.00529441871449644,
0.08104738154613467,0.04229545193351647,
0.08109725685785536,0.032863537208765864,
0.08114713216957606,0.02340821526349906,
0.08119700748129675,0.01733605275120863,
0.08124688279301745,0.028155431484496014,
0.08129675810473816,0.0013659380652702013,
0.08134663341645886,0.02459284515108827,
0.08139650872817955,0.014354641983875809,
0.08144638403990025,0.009795633929915698,
0.08149625935162094,0.021310248087412862,
0.08154613466334165,0.0325945995181052,
0.08159600997506235,0.015016074277943008,
0.08164588528678304,0.04419073597599037,
0.08169576059850374,0.02724762764305049,
0.08174563591022443,0.024346879647908028,
0.08179551122194513,-0.002218778409368207,
0.08184538653366584,0.017018325811849953,
0.08189526184538654,0.022836267929734495,
0.08194513715710723,0.01122560912221531,
0.08199501246882793,0.004207872303366833,
0.08204488778054862,0.031160941344458952,
0.08209476309226933,0.00836551155146075,
0.08214463840399003,0.01594199368081075,
0.08219451371571072,0.02709343742981596,
0.08224438902743142,0.05140841750110492,
0.08229426433915212,0.05372551701152022,
0.08234413965087282,0.019260929661744756,
0.08239401496259352,0.03682552904202975,
0.08244389027431422,0.0655740480106223,
0.08249376558603491,0.040764836666008206,
0.08254364089775561,0.03298924179604523,
0.0825935162094763,0.026407100386860116,
0.08264339152119701,0.024403264517251434,
0.08269326683291771,0.05515296136090923,
0.0827431421446384,-0.006640127466131081,
0.0827930174563591,0.04361827462130344,
0.0828428927680798,0.007758421767816468,
0.0828927680798005,0.024723935734431983,
0.0829426433915212,0.01957492977857727,
0.0829925187032419,0.006821148404321086,
0.08304239401496259,0.00345033498120376,
0.08309226932668329,0.037780954303259465,
0.08314214463840398,0.014438425648320985,
0.0831920199501247,0.022195109251373794,
0.08324189526184539,0.016338787458430058,
0.08329177057356608,0.00836419830166791,
0.08334164588528678,0.028192539021644782,
0.08339152119700748,0.028359814091865575,
0.08344139650872819,0.020556498539699854,
0.08349127182044888,0.044494706403069906,
0.08354114713216958,0.0015032678376386728,
0.08359102244389027,0.0395389083563738,
0.08364089775561097,0.01184561097788406,
0.08369077306733166,0.027621763504840913,
0.08374064837905237,0.02513714437475417,
0.08379052369077307,0.03545865963666967,
0.08384039900249377,0.025875632779334305,
0.08389027431421446,-0.009932479102096919,
0.08394014962593516,0.03928218652981489,
0.08399002493765587,0.02034233876929428,
0.08403990024937656,0.00020619062771215849,
0.08408977556109726,0.026839583205715226,
0.08413965087281795,0.023967741019651566,
0.08418952618453865,0.029876994378865894,
0.08423940149625936,0.04069219148141235,
0.08428927680798005,0.03939614873395517,
0.08433915211970075,0.029286323002956735,
0.08438902743142145,0.007486497199351318,
0.08443890274314214,0.00721243075292554,
0.08448877805486284,0.02298398248596785,
0.08453865336658355,0.031174886413016627,
0.08458852867830424,0.01992331436757868,
0.08463840399002494,0.04365191058429428,
0.08468827930174563,0.02357069732896133,
0.08473815461346633,0.008554090797849856,
0.08478802992518704,0.02544111856373179,
0.08483790523690773,-0.0014033595884212872,
0.08488778054862843,0.019755272539199592,
0.08493765586034913,0.016034711879784336,
0.08498753117206982,0.01793783672622829,
0.08503740648379052,0.008676439667925626,
0.08508728179551123,0.02742877861732283,
0.08513715710723192,0.027825860467304453,
0.08518703241895262,0.046393850136828334,
0.08523690773067331,0.05734221818495461,
0.08528678304239401,0.0016699943354910873,
0.08533665835411472,0.006377509772413099,
0.08538653366583542,0.01952729934037311,
0.08543640897755611,0.01776905533072108,
0.0854862842892768,0.038561664758577766,
0.0855361596009975,0.02969029517004357,
0.0855860349127182,0.0438502932620531,
0.08563591022443891,0.020575807150493796,
0.0856857855361596,0.03792756313500223,
0.0857356608478803,0.01830953983126485,
0.085785536159601,0.04266992927421983,
0.08583541147132169,0.05200667383535477,
0.0858852867830424,0.033670477086108506,
0.0859351620947631,0.04185191284750109,
0.08598503740648379,0.02080294755383144,
0.08603491271820449,0.010218750279604782,
0.08608478802992518,-0.002159394518262237,
0.08613466334164588,0.007736435778048053,
0.08618453865336659,0.03690388823159153,
0.08623441396508728,0.010677894706767058,
0.08628428927680798,0.032851049011257356,
0.08633416458852868,0.027038789346525156,
0.08638403990024937,0.037950211976160844,
0.08643391521197008,0.022992885268721182,
0.08648379052369078,0.029961092364274248,
0.08653366583541147,0.014010391657122265,
0.08658354114713217,0.051798224345994355,
0.08663341645885286,0.002048889066518275,
0.08668329177057357,-0.004248766893079334,
0.08673316708229427,0.011304362122263267,
0.08678304239401496,0.04177231728608817,
0.08683291770573566,0.02925334539854035,
0.08688279301745636,0.024926869927998373,
0.08693266832917705,0.0016328675699889515,
0.08698254364089776,0.021257021263886376,
0.08703241895261846,0.02073914154283669,
0.08708229426433915,0.022614561045222574,
0.08713216957605985,0.012120107459473613,
0.08718204488778054,0.017158900868968773,
0.08723192019950125,0.028467045834589366,
0.08728179551122195,0.0071624403215857745,
0.08733167082294264,0.0027910008068809354,
0.08738154613466334,0.01749311692710506,
0.08743142144638404,0.03743133794941339,
0.08748129675810473,0.03948294625733513,
0.08753117206982544,0.026492955013869487,
0.08758104738154614,-0.0019845247914674798,
0.08763092269326683,0.010462977448250244,
0.08768079800498753,0.040370002764461864,
0.08773067331670822,0.0037885533427266683,
0.08778054862842893,0.014907579771912559,
0.08783042394014963,0.026552319838803844,
0.08788029925187033,0.041295513571905244,
0.08793017456359102,0.013052054413595816,
0.08798004987531172,0.010452524084600364,
0.08802992518703241,0.02685616451858995,
0.08807980049875312,-0.004220797672799061,
0.08812967581047382,0.006244963392324625,
0.08817955112219451,0.02535751387741269,
0.08822942643391521,0.012162266018412145,
0.0882793017456359,0.01175972156431666,
0.08832917705735661,0.010910161150418434,
0.08837905236907731,0.03726412857411606,
0.088428927680798,0.02876404541558544,
0.0884788029925187,0.0071222365344588935,
0.0885286783042394,0.005383438269359667,
0.0885785536159601,0.01709218252859234,
0.0886284289276808,-0.01043034303031317,
0.0886783042394015,0.013640201557261932,
0.0887281795511222,0.04106229037114955,
0.08877805486284289,0.0038165464934866427,
0.08882793017456359,0.003067297155338709,
0.0888778054862843,0.019311876244622356,
0.08892768079800499,0.008364465705484053,
0.08897755610972569,-0.0026639000182144337,
0.08902743142144638,0.029955688558793478,
0.08907730673316708,0.0156921253089817,
0.08912718204488779,-0.0009953014960797958,
0.08917705735660848,0.02634291251576676,
0.08922693266832918,0.018709385348708283,
0.08927680798004987,-2.1884683946180733e-05,
0.08932668329177057,0.0015486018186897654,
0.08937655860349127,0.013868360277714792,
0.08942643391521198,0.009494637446481978,
0.08947630922693267,-0.01026206185529058,
0.08952618453865337,0.01512058128617705,
0.08957605985037406,0.015784848287243844,
0.08962593516209476,0.02215394683314057,
0.08967581047381547,-0.024757258198839692,
0.08972568578553616,0.01612636423574536,
0.08977556109725686,0.002577793537762032,
0.08982543640897755,0.027872533187899555,
0.08987531172069825,0.008409900072980188,
0.08992518703241895,0.02540868805562876,
0.08997506234413966,0.003589401544452892,
0.09002493765586035,0.010562243847669042,
0.09007481296758105,0.012598241908786926,
0.09012468827930174,-0.005427855924037845,
0.09017456359102244,-0.0010608334815269535,
0.09022443890274315,-0.0010377635683226274,
0.09027431421446384,-0.0032520982336995416,
0.09032418952618454,0.0035625883836994015,
0.09037406483790524,-0.02802539149437636,
0.09042394014962593,0.0033956165030737825,
0.09047381546134663,-0.0034330991606281577,
0.09052369077306734,-0.001244271922490756,
0.09057356608478803,-0.014387913203969278,
0.09062344139650873,-0.03326109010590208,
0.09067331670822942,0.004856431486190675,
0.09072319201995012,0.014188564147837484,
0.09077306733167083,0.010071013073306916,
0.09082294264339152,0.01686618902077584,
0.09087281795511222,0.012176694613576955,
0.09092269326683292,0.0146490518800692,
0.09097256857855361,-0.01947650163239873,
0.09102244389027432,-0.008995789274242522,
0.09107231920199502,-0.005196811570606016,
0.09112219451371571,-0.017929416305482317,
0.09117206982543641,0.005848998885993296,
0.0912219451371571,-0.02757218534303564,
0.0912718204488778,0.027378129223323548,
0.09132169576059851,-0.004305315809546459,
0.0913715710723192,-0.021912469783731868,
0.0914214463840399,-0.015596194301580168,
0.0914713216957606,-0.02201293868388704,
0.09152119700748129,-0.0062618253187992435,
0.091571072319202,-0.024435979542479468,
0.0916209476309227,-0.028470441779248963,
0.09167082294264339,-0.021406734021388634,
0.09172069825436409,-0.019132999641436367,
0.09177057356608478,0.017196893583067748,
0.09182044887780548,0.003882392452208383,
0.09187032418952619,-0.009058239965659954,
0.09192019950124689,-0.035282347511834365,
0.09197007481296758,-0.009861189594037078,
0.09201995012468828,-0.020329081993054415,
0.09206982543640897,-0.01058120272707521,
0.09211970074812968,-0.04044288048014445,
0.09216957605985038,-0.00538845866419035,
0.09221945137157107,-0.004644865970873168,
0.09226932668329177,-0.023175950550790685,
0.09231920199501246,-0.0015092407297916137,
0.09236907730673316,0.01340338378426277,
0.09241895261845387,-0.0013887833133304026,
0.09246882793017457,-0.008112681851512463,
0.09251870324189526,-0.008528419818110807,
0.09256857855361596,0.0016016097951460327,
0.09261845386533665,-0.012447478935777686,
0.09266832917705736,0.001538913278971165,
0.09271820448877806,-0.024619125258556116,
0.09276807980049875,-0.02350407232353998,
0.09281795511221945,0.01949962621971541,
0.09286783042394015,-0.013540372143562388,
0.09291770573566084,-0.02211221132492571,
0.09296758104738155,-0.02674574473366303,
0.09301745635910225,0.004563044576503831,
0.09306733167082294,0.004233849989444916,
0.09311720698254364,-0.019676406080053548,
0.09316708229426433,-0.02216855498320389,
0.09321695760598504,-0.011786397617595914,
0.09326683291770574,0.0126862095673634,
0.09331670822942643,-0.0011458001153567994,
0.09336658354114713,-0.03649196556880697,
0.09341645885286783,-0.01566956978584433,
0.09346633416458854,-0.022569281817952265,
0.09351620947630923,0.0014094895001219628,
0.09356608478802993,-0.01169656338858837,
0.09361596009975062,-0.0204767665562529,
0.09366583541147132,-0.026395332468168893,
0.09371571072319201,-0.004745948883196884,
0.09376558603491272,-0.001172783373385432,
0.09381546134663342,-0.015069900636959892,
0.09386533665835411,0.005734774501287308,
0.09391521197007481,-0.015841660207536835,
0.0939650872817955,0.010939842210855283,
0.09401496259351622,0.001423668982362505,
0.09406483790523691,-0.002546436098080706,
0.09411471321695761,-0.012103697278587788,
0.0941645885286783,-0.028540611613905153,
0.094214463840399,-0.050179468098901565,
0.0942643391521197,-0.006092286384625013,
0.0943142144638404,-0.00575750658272411,
0.0943640897755611,0.01069151974757963,
0.0944139650872818,0.0048732412977890716,
0.09446384039900249,-0.02876610682076424,
0.09451371571072319,-0.0016198134116736478,
0.0945635910224439,0.019259008717871912,
0.09461346633416459,-0.007841535836715933,
0.09466334164588529,-0.010781979836555489,
0.09471321695760598,0.00038689937470660733,
0.09476309226932668,-0.030705446052329572,
0.09481296758104737,-0.007698252497515034,
0.09486284289276808,-0.024241048617515356,
0.09491271820448878,-0.0033197507594169007,
0.09496259351620948,-0.043425779871838065,
0.09501246882793017,-0.033344464010300806,
0.09506234413965087,-0.0285003835760656,
0.09511221945137158,-0.004190938713568506,
0.09516209476309227,-0.0036238489566362345,
0.09521197007481297,-0.004704149688616722,
0.09526184538653366,-0.03608131672877925,
0.09531172069825436,-0.006978679949144964,
0.09536159600997507,-0.014738931695659672,
0.09541147132169576,-0.009285897085371881,
0.09546134663341646,-0.04736520060656956,
0.09551122194513716,0.0020322870473857783,
0.09556109725685785,0.018731300219349246,
0.09561097256857855,-0.011366687890878266,
0.09566084788029926,0.010603377026921313,
0.09571072319201995,-0.011825190451893132,
0.09576059850374065,-0.006206689107957927,
0.09581047381546134,-0.00994888124711778,
0.09586034912718204,-0.008694720225843475,
0.09591022443890275,-0.02452721617644136,
0.09596009975062345,-0.027839979832624737,
0.09600997506234414,-0.003543985668069058,
0.09605985037406484,-0.029282304639117754,
0.09610972568578553,-0.0014514085778134633,
0.09615960099750623,-0.01599386560320395,
0.09620947630922694,0.009638180491519948,
0.09625935162094763,-0.008818286981278895,
0.09630922693266833,-0.022259589707337525,
0.09635910224438902,-0.03168902487646137,
0.09640897755610972,-0.008088814220282117,
0.09645885286783043,-0.017984641742764026,
0.09650872817955113,0.0015857624383284925,
0.09655860349127182,0.009879366019032871,
0.09660847880299252,-0.0025288591945516956,
0.09665835411471321,0.008333492370179895,
0.09670822942643391,-0.01688226502793993,
0.09675810473815462,0.017746281122350105,
0.09680798004987531,0.005929845440380636,
0.09685785536159601,-0.004781460350692985,
0.0969077306733167,-0.00501992648238083,
0.0969576059850374,-0.018547390729143493,
0.09700748129675811,-0.0016033779945478811,
0.0970573566084788,-0.015816304772263243,
0.0971072319201995,-0.0005620575088623901,
0.0971571072319202,0.002790982422769133,
0.0972069825436409,-0.006459967809561659,
0.09725685785536159,-0.007962245435037305,
0.0973067331670823,0.027725039774858042,
0.097356608478803,-0.01025429298204448,
0.09740648379052369,0.001426657879203712,
0.09745635910224439,-0.0174522462114434,
0.09750623441396508,0.0016397392928593144,
0.09755610972568579,0.007238313710115671,
0.09760598503740649,-0.0141480944127668,
0.09765586034912718,0.00899602081409732,
0.09770573566084788,-0.006037282916544746,
0.09775561097256857,0.00875258427732078,
0.09780548628428928,-0.010516522378670387,
0.09785536159600998,-0.012528145994272086,
0.09790523690773068,0.031666489812440114,
0.09795511221945137,0.0006216596305767754,
0.09800498753117207,-0.010638564939364485,
0.09805486284289276,0.016603802496040206,
0.09810473815461347,0.0068741629503389174,
0.09815461346633417,-0.0004924757571612816,
0.09820448877805486,-0.024137073970302507,
0.09825436408977556,-0.006474442457023621,
0.09830423940149625,-0.013250669128980277,
0.09835411471321696,0.011031634971633009,
0.09840399002493766,0.0008316854682466267,
0.09845386533665836,0.0033322151080470387,
0.09850374064837905,0.00309584029114973,
0.09855361596009975,0.043055251910221054,
0.09860349127182044,0.0006816190638946353,
0.09865336658354115,0.014026877176174863,
0.09870324189526185,0.014992577999215826,
0.09875311720698254,0.0019194730288017159,
0.09880299251870324,0.016879807573788225,
0.09885286783042393,0.0031550755876419627,
0.09890274314214464,0.021370889074346814,
0.09895261845386534,0.005436052884603313,
0.09900249376558604,0.020962170034825436,
0.09905236907730673,-0.0004414078557467829,
0.09910224438902743,0.01001898373238528,
0.09915211970074812,0.01509666848641675,
0.09920199501246883,0.019478295977410475,
0.09925187032418953,0.004011749466984789,
0.09930174563591022,-0.004743699379986355,
0.09935162094763092,-0.038924435146378215,
0.09940149625935162,0.013699998038472315,
0.09945137157107233,0.01783309104005063,
0.09950124688279302,-0.004834058117300905,
0.09955112219451372,0.005415796878773669,
0.09960099750623441,0.01451262539671271,
0.09965087281795511,-0.018788930946023283,
0.0997007481296758,0.030492461677296755,
0.09975062344139651,-0.004279693278916367,
0.09980049875311721,0.00368904229939498,
0.0998503740648379,0.022540754944644012,
0.0999002493765586,0.011566753362294619,
0.0999501246882793,0.016044139726984936,
0.1,0.02125116834034393,
0.1000498753117207,-0.009209580530570569,
0.1000997506234414,0.020716998753505692,
0.10014962593516209,0.01773538557997727,
0.10019950124688279,0.0021728278916309067,
0.1002493765586035,0.012999012054907517,
0.1002992518703242,-0.008314852968411739,
0.10034912718204489,-0.0059464164291813705,
0.10039900249376559,0.027387345226280953,
0.10044887780548628,0.005178015934676667,
0.10049875311720698,0.036620842941565965,
0.10054862842892769,0.01487004823745945,
0.10059850374064838,0.020537503023809193,
0.10064837905236908,0.007094694623850741,
0.10069825436408977,0.012880848581036507,
0.10074812967581047,0.02486221841206448,
0.10079800498753118,0.0306223961953635,
0.10084788029925187,-0.006087147800876869,
0.10089775561097257,0.0015827797971573292,
0.10094763092269327,-0.005997645478277407,
0.10099750623441396,0.0318832716730722,
0.10104738154613466,0.011283857817041307,
0.10109725685785537,0.027043671590917633,
0.10114713216957606,0.037484693607986584,
0.10119700748129676,0.0018822751318552412,
0.10124688279301745,-0.001989774099382044,
0.10129675810473815,0.011822874492686921,
0.10134663341645886,0.014181465137681214,
0.10139650872817955,0.018433650549416092,
0.10144638403990025,0.043065173065099716,
0.10149625935162095,0.014546750635595487,
0.10154613466334164,-0.003808668735776014,
0.10159600997506234,0.000697389600375499,
0.10164588528678305,0.02874554312551037,
0.10169576059850374,0.025799722597037618,
0.10174563591022444,0.03491028583935872,
0.10179551122194513,0.035427160027300224,
0.10184538653366583,0.03997928039364414,
0.10189526184538654,-0.004550545643649585,
0.10194513715710724,0.0024292780308474322,
0.10199501246882793,0.04881816593338687,
0.10204488778054863,0.03072259048562544,
0.10209476309226932,0.02242483630874951,
0.10214463840399003,0.012094963487746309,
0.10219451371571073,0.06807034495079849,
0.10224438902743142,0.018721191294145175,
0.10229426433915212,-0.004090450892247816,
0.10234413965087281,0.03247129919049404,
0.10239401496259351,0.03894777941759054,
0.10244389027431422,0.02223437128216598,
0.10249376558603492,0.033174649733809784,
0.10254364089775561,0.015619847132268607,
0.10259351620947631,0.04138683960127411,
0.102643391521197,0.04519655529242655,
0.10269326683291771,0.01971779386048044,
0.10274314214463841,0.0191445372911072,
0.1027930174563591,0.049311372740138595,
0.1028428927680798,0.021767856958495112,
0.1028927680798005,0.013607009520967717,
0.10294264339152119,0.018328664248577778,
0.1029925187032419,0.015039681425479628,
0.1030423940149626,0.030087937927427203,
0.10309226932668329,-0.030683597369260053,
0.10314214463840399,0.021699505719015022,
0.10319201995012468,0.01382562870717283,
0.10324189526184539,0.04000462614307692,
0.10329177057356609,0.015226565667634452,
0.10334164588528678,0.04513272774311172,
0.10339152119700748,0.019617250318000115,
0.10344139650872818,0.02058162923703647,
0.10349127182044887,0.047061553268609425,
0.10354114713216958,0.03452977989931739,
0.10359102244389028,0.013171872954538321,
0.10364089775561097,0.017104724245093864,
0.10369077306733167,0.043160971638998305,
0.10374064837905236,0.004315213511626864,
0.10379052369077307,0.004368275748597095,
0.10384039900249377,0.04095815973323136,
0.10389027431421446,0.02099942703091932,
0.10394014962593516,0.058011723407997755,
0.10399002493765586,-0.004769778535035754,
0.10403990024937655,0.02514636910734997,
0.10408977556109726,0.0128244858549986,
0.10413965087281796,0.007175476522275383,
0.10418952618453865,0.021125960567572773,
0.10423940149625935,0.03755099939885484,
0.10428927680798004,0.014141714294501354,
0.10433915211970075,0.03596366478667818,
0.10438902743142145,0.0032008324790481733,
0.10443890274314215,0.01934596870631136,
0.10448877805486284,-0.0042188544887966015,
0.10453865336658354,0.04015877774239615,
0.10458852867830425,0.05455424445709176,
0.10463840399002494,0.03828139716850188,
0.10468827930174564,0.02708991866211665,
0.10473815461346633,0.029242939814965653,
0.10478802992518703,0.03369644040436257,
0.10483790523690772,0.05447394425131655,
0.10488778054862843,0.026771571422795862,
0.10493765586034913,0.02686328747151365,
0.10498753117206983,-0.010417960061913104,
0.10503740648379052,0.05895210107046587,
0.10508728179551122,0.025217508889814562,
0.10513715710723193,0.044289380177950324,
0.10518703241895262,0.0203757807248703,
0.10523690773067332,0.03416677648034352,
0.10528678304239401,0.021354901351580576,
0.10533665835411471,0.05012004393072005,
0.1053865336658354,0.02332704895407855,
0.10543640897755611,0.002916964172329152,
0.10548628428927681,0.023349621584415912,
0.1055361596009975,0.025693970680846473,
0.1055860349127182,0.029284717362800902,
0.1056359102244389,0.014651985377580213,
0.10568578553615961,0.03421595597284439,
0.1057356608478803,0.04560673357945787,
0.105785536159601,0.035725275939170145,
0.1058354114713217,-0.0024133350515466515,
0.10588528678304239,0.04448955699990555,
0.10593516209476309,0.05149676337231021,
0.1059850374064838,0.022379569777849585,
0.10603491271820449,0.024649361645818234,
0.10608478802992519,0.05505557524194912,
0.10613466334164588,0.0240290390540342,
0.10618453865336658,0.02874528064366287,
0.10623441396508729,-0.005612793830350054,
0.10628428927680798,0.03242466717543972,
0.10633416458852868,0.013232671867363153,
0.10638403990024937,0.018429796375971755,
0.10643391521197007,0.001957524195541297,
0.10648379052369077,0.022943040506341786,
0.10653366583541148,0.0301496154948078,
0.10658354114713217,0.03877566837097964,
0.10663341645885287,0.022510748848852846,
0.10668329177057356,0.03839877364102924,
0.10673316708229426,0.051011898190456775,
0.10678304239401497,0.016938613808464016,
0.10683291770573566,0.03497334081643805,
0.10688279301745636,0.027350895674436583,
0.10693266832917706,0.019847478515775896,
0.10698254364089775,0.02585529555111296,
0.10703241895261846,-0.010018929534690448,
0.10708229426433916,-0.0019139648151220157,
0.10713216957605985,-0.0018851568568265635,
0.10718204488778055,0.0157866219111518,
0.10723192019950124,0.019502235361891235,
0.10728179551122194,0.017457452654364013,
0.10733167082294265,0.005690929618917,
0.10738154613466334,0.025217484747648306,
0.10743142144638404,0.00817457350171371,
0.10748129675810474,0.04343626931297404,
0.10753117206982543,0.00813163932233547,
0.10758104738154614,0.029970806668801073,
0.10763092269326684,0.003922589754232035,
0.10768079800498753,0.035186031571646986,
0.10773067331670823,-0.0027951919558012114,
0.10778054862842892,0.02224225455935895,
0.10783042394014962,0.035162099125131976,
0.10788029925187033,0.02402811513982278,
0.10793017456359102,0.023527010079559756,
0.10798004987531172,0.013022285047171504,
0.10802992518703242,0.012130939434528424,
0.10807980049875311,0.03029241499460442,
0.10812967581047382,0.02015150596283937,
0.10817955112219452,0.005640489225666918,
0.10822942643391521,0.025302597287999305,
0.10827930174563591,0.027799873599025922,
0.1083291770573566,0.01748849918241938,
0.1083790523690773,0.021217904063741126,
0.10842892768079801,0.007816401232351078,
0.1084788029925187,0.009235759221079063,
0.1085286783042394,0.016626670339915,
0.1085785536159601,0.020425269003640736,
0.10862842892768079,-0.004908722249462885,
0.1086783042394015,0.00249634066848858,
0.1087281795511222,0.017935154228539047,
0.1087780548628429,0.007439809850150727,
0.10882793017456359,0.0006635368022346062,
0.10887780548628428,-0.0014844566287248086,
0.108927680798005,0.021410595039173533,
0.10897755610972569,0.016805578267070426,
0.10902743142144639,-0.0074533481873408775,
0.10907730673316708,0.00574652449613378,
0.10912718204488778,0.006120319730701054,
0.10917705735660847,0.018135122359626863,
0.10922693266832918,0.036961669964991145,
0.10927680798004988,0.04243958225758983,
0.10932668329177057,0.020762697290675633,
0.10937655860349127,0.011961349587606925,
0.10942643391521197,0.003604232305239938,
0.10947630922693267,0.03160483880048823,
0.10952618453865337,0.020420296493426533,
0.10957605985037407,-0.010585772853589514,
0.10962593516209476,-0.0024480192323481434,
0.10967581047381546,0.023756569513198135,
0.10972568578553615,-0.017010664392554515,
0.10977556109725686,0.009239374491348621,
0.10982543640897756,0.01696144897983128,
0.10987531172069825,0.010935807849028357,
0.10992518703241895,0.0023787656989853107,
0.10997506234413965,0.022306178416967186,
0.11002493765586036,-0.005938891094808319,
0.11007481296758105,-0.0016381591458185145,
0.11012468827930175,-0.003275960303653242,
0.11017456359102244,0.002238415879850986,
0.11022443890274314,-0.014700474603407673,
0.11027431421446383,0.014645069173186233,
0.11032418952618454,-0.024961055058162186,
0.11037406483790524,0.008947656932023401,
0.11042394014962593,0.008335570682011734,
0.11047381546134663,-0.0007640518327586342,
0.11052369077306733,-0.005256919665839651,
0.11057356608478804,-0.007855704750153547,
0.11062344139650873,0.0037333294604620015,
0.11067331670822943,0.0002251869796742118,
0.11072319201995012,0.0010340607053403645,
0.11077306733167082,0.009832985431959543,
0.11082294264339151,-0.010302933407770967,
0.11087281795511222,-0.0118277936550664,
0.11092269326683292,0.000903698158501425,
0.11097256857855362,-0.006742965906134332,
0.11102244389027431,-0.028556767572889497,
0.111072319201995,-0.007468124882248436,
0.11112219451371572,-0.004127229012556794,
0.11117206982543641,-0.03231525798501008,
0.11122194513715711,-0.01801112720667949,
0.1112718204488778,0.014195357387618634,
0.1113216957605985,-0.006374969311638468,
0.11137157107231921,-0.005009117796528094,
0.1114214463840399,-0.004835819151836433,
0.1114713216957606,-0.01780214018232127,
0.1115211970074813,-0.016117777297736693,
0.11157107231920199,0.0024545285286606613,
0.11162094763092269,0.01958107306677864,
0.1116708229426434,-0.027260963330024823,
0.11172069825436409,-0.03130639888878775,
0.11177057356608479,-0.02128842895994259,
0.11182044887780548,-0.007976965602395907,
0.11187032418952618,0.00711717125021376,
0.11192019950124689,-0.00029096442890600826,
0.11197007481296758,0.009026038134826317,
0.11201995012468828,0.01981168909277162,
0.11206982543640898,-0.005897270041985275,
0.11211970074812967,-0.007097160022297902,
0.11216957605985037,0.0060975557701826374,
0.11221945137157108,-0.011285903535311441,
0.11226932668329177,0.025688614674104885,
0.11231920199501247,-0.003622460611280455,
0.11236907730673316,0.0008286525276343538,
0.11241895261845386,0.0075567782411962055,
0.11246882793017457,-0.023058903959366175,
0.11251870324189527,-0.0020245382178368443,
0.11256857855361596,-0.014914502295478464,
0.11261845386533666,0.027450779811537748,
0.11266832917705735,0.01934288420029886,
0.11271820448877805,-0.012305308483998068,
0.11276807980049876,-0.021378133043471408,
0.11281795511221945,-0.005234577381918045,
0.11286783042394015,0.003041407179601819,
0.11291770573566084,-0.01110766727676401,
0.11296758104738154,0.0022546148060780934,
0.11301745635910225,0.004139203689336748,
0.11306733167082295,0.018977403117627183,
0.11311720698254364,-0.01954616824834518,
0.11316708229426434,-0.010445073485300204,
0.11321695760598503,-0.02531241640969108,
0.11326683291770574,-0.005013213349528703,
0.11331670822942644,0.011572988379108693,
0.11336658354114713,-0.02742457966471186,
0.11341645885286783,0.0006582614792253073,
0.11346633416458853,-0.019011899943219585,
0.11351620947630922,-0.064489539082269,
0.11356608478802993,0.0036599159526758823,
0.11361596009975063,-0.006241969936509863,
0.11366583541147132,-0.006809855402870047,
0.11371571072319202,-0.01517702712027004,
0.11376558603491271,-0.004325177231672822,
0.11381546134663342,-0.020667710489910385,
0.11386533665835412,0.01631496035618469,
0.11391521197007481,-0.012941831747617281,
0.11396508728179551,-0.019734289318393113,
0.1140149625935162,-0.011613235283352792,
0.1140648379052369,-0.02911858146812423,
0.11411471321695761,-0.006135581289274813,
0.1141645885286783,-0.004484906534349377,
0.114214463840399,-0.008586897390379024,
0.1142643391521197,0.022355403957855725,
0.1143142144638404,-0.022203347028301804,
0.1143640897755611,-0.031602750027808796,
0.1144139650872818,-0.012590985753183697,
0.1144638403990025,-0.019971862597179944,
0.11451371571072319,-0.0027586016692235215,
0.11456359102244389,-0.0034366231490700148,
0.11461346633416458,-0.0033093106600823423,
0.11466334164588529,0.009399142660817799,
0.11471321695760599,-0.02375238705567963,
0.11476309226932668,-0.025499749609294124,
0.11481296758104738,-0.04625756395997821,
0.11486284289276807,-0.015005549511895488,
0.11491271820448878,0.001181848000260494,
0.11496259351620948,-0.041049749277481826,
0.11501246882793018,0.006948717841410943,
0.11506234413965087,0.014692935613188409,
0.11511221945137157,-0.0035741149170208522,
0.11516209476309226,0.0007277400943378025,
0.11521197007481297,0.0042010347630431506,
0.11526184538653367,-0.006776003663041495,
0.11531172069825436,-0.03003580248826202,
0.11536159600997506,-0.012480575051803016,
0.11541147132169575,0.005690659100443149,
0.11546134663341646,-0.0027009008415826872,
0.11551122194513716,-0.009746686079825819,
0.11556109725685786,-0.0176155198609596,
0.11561097256857855,-0.005993760395372527,
0.11566084788029925,0.03060065615274688,
0.11571072319201996,0.0006490959445153363,
0.11576059850374065,-0.01089067299982777,
0.11581047381546135,-0.006872070948193086,
0.11586034912718204,0.0074268237712563304,
0.11591022443890274,-0.008252642237802966,
0.11596009975062344,0.0004470816907509341,
0.11600997506234415,-0.036570951426227585,
0.11605985037406484,-0.015391084300662376,
0.11610972568578554,-0.007520717668607971,
0.11615960099750623,-0.0036671333151840537,
0.11620947630922693,-0.004007803826536584,
0.11625935162094764,0.010556275062812636,
0.11630922693266833,-0.024354981159818705,
0.11635910224438903,-0.002451665552305227,
0.11640897755610972,-0.006242146756665023,
0.11645885286783042,-0.010131936910525193,
0.11650872817955112,0.005600007493936465,
0.11655860349127183,-0.004044342059042937,
0.11660847880299252,-0.004473221150327611,
0.11665835411471322,0.0020862528173459897,
0.11670822942643391,-0.03412711561019997,
0.11675810473815461,-0.018895927704428987,
0.11680798004987532,-0.03707840843383241,
0.11685785536159601,-0.021210746926845617,
0.11690773067331671,-0.010231702876828555,
0.1169576059850374,-0.0024217749236594564,
0.1170074812967581,-0.01398984721007968,
0.1170573566084788,0.013063577924227594,
0.1171072319201995,0.004171196781409639,
0.1171571072319202,-0.016302977308542917,
0.1172069825436409,-0.003437950483396144,
0.1172568578553616,-0.02495823042590861,
0.11730673316708229,-0.008009945644839925,
0.117356608478803,-0.03210001192377596,
0.1174064837905237,0.0009004077027445568,
0.11745635910224439,0.008820481165148442,
0.11750623441396509,0.0031763473800106076,
0.11755610972568578,0.018183213126565505,
0.11760598503740648,0.011020229485627203,
0.11765586034912719,0.0019768210795184423,
0.11770573566084788,-0.027339925271888686,
0.11775561097256858,-0.007064396211138573,
0.11780548628428927,0.017969602348853086,
0.11785536159600997,0.0001226009815427484,
0.11790523690773068,-0.0071946553493034094,
0.11795511221945137,0.003110565307262876,
0.11800498753117207,0.004829914813457213,
0.11805486284289277,0.01882009586564822,
0.11810473815461346,0.01575628983180583,
0.11815461346633417,-0.02082776835068345,
0.11820448877805487,0.01797029338490043,
0.11825436408977556,-0.0024245760209850287,
0.11830423940149626,0.002903841009078538,
0.11835411471321695,-0.020850422600560612,
0.11840399002493765,-0.004273202064548084,
0.11845386533665836,-0.003090215050278639,
0.11850374064837906,-0.0066544905021002805,
0.11855361596009975,-0.009524386854126975,
0.11860349127182045,0.010003900820771596,
0.11865336658354114,-0.00919553652315688,
0.11870324189526185,0.00622326130725755,
0.11875311720698255,0.004874988827200097,
0.11880299251870324,0.007312891564493669,
0.11885286783042394,0.013090773306761488,
0.11890274314214463,0.009616193955017689,
0.11895261845386533,0.000668903269864931,
0.11900249376558604,0.018994817978201416,
0.11905236907730674,-0.005153162229770487,
0.11910224438902743,0.0015700996344617316,
0.11915211970074813,0.03622750974442614,
0.11920199501246882,-0.006665666324515611,
0.11925187032418953,-0.003806170493876159,
0.11930174563591023,0.018640683240070247,
0.11935162094763092,-0.014816031508353889,
0.11940149625935162,0.02172408420491741,
0.11945137157107232,0.013219873824147854,
0.11950124688279301,0.007489014253942726,
0.11955112219451372,-0.011106763179003106,
0.11960099750623442,-0.0013179590971521618,
0.11965087281795511,0.029587633703422926,
0.11970074812967581,0.015109089902617712,
0.1197506234413965,-0.03045828458039529,
0.11980049875311721,0.033592662864360315,
0.11985037406483791,0.0067818942517998875,
0.1199002493765586,-0.0013654545255690643,
0.1199501246882793,-0.003590676397140131,
0.12,-0.010500531011014426,
0.1200498753117207,0.015212192872502415,
0.1200997506234414,0.0029981684819137405,
0.1201496259351621,-0.0077575896735173205,
0.12019950124688279,0.012999848237806453,
0.12024937655860349,0.019268009441106203,
0.12029925187032418,0.03265484886399801,
0.1203491271820449,0.0038090962788827672,
0.12039900249376559,0.025136812803111884,
0.12044887780548628,0.027801495612573956,
0.12049875311720698,0.033488515409358724,
0.12054862842892768,-0.004037687580780975,
0.12059850374064839,0.012601796372816707,
0.12064837905236908,-0.004335917429860919,
0.12069825436408978,0.014477551544862906,
0.12074812967581047,0.018430162810700305,
0.12079800498753117,0.006958334542921538,
0.12084788029925186,0.008338849263886455,
0.12089775561097257,0.017201740264721908,
0.12094763092269327,0.05341359899838907,
0.12099750623441397,0.0010829070834198658,
0.12104738154613466,0.005188709033479826,
0.12109725685785536,0.024597765631403895,
0.12114713216957607,-0.010231113732079664,
0.12119700748129676,0.0006742986048271678,
0.12124688279301746,0.0239744969606439,
0.12129675810473815,0.021633742029846813,
0.12134663341645885,0.038918188969764234,
0.12139650872817954,0.027846031200983452,
0.12144638403990025,-0.00993413661124777,
0.12149625935162095,0.016218746281163664,
0.12154613466334165,0.02867875948679633,
0.12159600997506234,0.03953760315908674,
0.12164588528678304,0.023771396005737404,
0.12169576059850375,0.011211444167140804,
0.12174563591022444,0.05941562533256649,
0.12179551122194514,0.024354818248861532,
0.12184538653366583,0.020260219889442314,
0.12189526184538653,0.02543808791234744,
0.12194513715710723,0.049047108094686834,
0.12199501246882793,-0.009952879634322252,
0.12204488778054863,0.012665690022470769,
0.12209476309226933,0.042913625278053535,
0.12214463840399002,0.04095583692707071,
0.12219451371571072,0.03635697366987137,
0.12224438902743143,0.022621145894514583,
0.12229426433915212,0.04458618893204699,
0.12234413965087282,0.001724313272981868,
0.12239401496259351,0.01678279755993694,
0.12244389027431421,0.003948573630070985,
0.12249376558603492,0.04760052730045085,
0.12254364089775562,0.01850416044830467,
0.12259351620947631,0.024247772601485487,
0.122643391521197,0.053536614475610395,
0.1226932668329177,0.02358861578629703,
0.1227431421446384,0.023159907954156178,
0.12279301745635911,0.020051622958827203,
0.1228428927680798,0.04685502574183487,
0.1228927680798005,0.02436961420418691,
0.1229426433915212,0.04232264966691458,
0.12299251870324189,0.051423182421731786,
0.1230423940149626,0.052512556249003764,
0.1230922693266833,0.009933162171397867,
0.12314214463840399,0.034532370766451465,
0.12319201995012469,-0.004978160724225515,
0.12324189526184538,0.0370157763536689,
0.12329177057356608,0.03250777158726062,
0.12334164588528679,0.03663682028785836,
0.12339152119700748,0.0278599566147833,
0.12344139650872818,0.03201238378255296,
0.12349127182044888,0.022935583356668888,
0.12354114713216957,0.01234322601876129,
0.12359102244389028,0.02576019112346587,
0.12364089775561098,0.014454241141458043,
0.12369077306733167,0.016056518488569663,
0.12374064837905237,0.04698115788174455,
0.12379052369077306,0.05430567896458112,
0.12384039900249376,0.014562841271790096,
0.12389027431421447,0.036752535989083325,
0.12394014962593516,0.03202189621420541,
0.12399002493765586,0.023822423391834248,
0.12403990024937656,0.01985891727930236,
0.12408977556109725,0.0267513955401726,
0.12413965087281796,-0.0017407758683573374,
0.12418952618453866,0.04590949145046631,
0.12423940149625935,0.054110588031319726,
0.12428927680798005,0.014263517718472413,
0.12433915211970074,0.04835787630161108,
0.12438902743142144,0.022158789699323687,
0.12443890274314215,0.042393170628563806,
0.12448877805486284,0.0425584295309587,
0.12453865336658354,0.05204746796021065,
0.12458852867830424,0.024975998470392377,
0.12463840399002493,0.040677271703568496,
0.12468827930174564,0.023544925492564678,
0.12473815461346634,0.03280768623651168,
0.12478802992518703,-0.0003303702109801396,
0.12483790523690773,0.030626670472759045,
0.12488778054862842,0.027875056771180844,
0.12493765586034913,0.003465224196714578,
0.12498753117206983,0.024415331780586712,
0.12503740648379053,0.006477936689337237,
0.12508728179551123,0.0349876327155048,
0.12513715710723192,0.04117090673424988,
0.12518703241895263,0.002173452827797545,
0.1252369077306733,0.04072154771678322,
0.12528678304239402,0.02282331005086134,
0.1253366583541147,0.028741758702247867,
0.1253865336658354,0.030084951379662876,
0.12543640897755612,0.017709648063404776,
0.1254862842892768,0.02096060892518106,
0.1255361596009975,0.03957803405740046,
0.1255860349127182,0.011978787315977034,
0.1256359102244389,0.022338771089450912,
0.1256857855361596,0.02398133266609751,
0.1257356608478803,-0.0035570198038433337,
0.125785536159601,0.027081229131435815,
0.12583541147132168,0.011256677446854213,
0.1258852867830424,0.02585408182681632,
0.1259351620947631,0.027378266180335075,
0.12598503740648379,0.013539135715785041,
0.1260349127182045,0.02322067889376278,
0.12608478802992518,0.01886582783623033,
0.1261346633416459,0.034620708559337986,
0.1261845386533666,0.02105398764397013,
0.12623441396508728,0.02971169501333947,
0.126284289276808,0.02487079623838028,
0.12633416458852867,0.015941160600550532,
0.12638403990024938,0.02529336744904469,
0.1264339152119701,0.04708905581403444,
0.12648379052369077,0.01893314187528967,
0.12653366583541148,0.017706193423153844,
0.12658354114713216,0.027042086491020578,
0.12663341645885287,0.02373956738212172,
0.12668329177057355,0.041141915706375404,
0.12673316708229426,0.020652142827979503,
0.12678304239401497,0.02754707182302369,
0.12683291770573565,0.037166096132979456,
0.12688279301745636,0.03262677987140431,
0.12693266832917705,0.032916728054710985,
0.12698254364089775,0.014010098725536964,
0.12703241895261846,0.02776535387328755,
0.12708229426433915,0.012692380653196328,
0.12713216957605986,0.014830506692716948,
0.12718204488778054,0.01893505201846183,
0.12723192019950125,0.006038795245282277,
0.12728179551122196,0.0036868092510493958,
0.12733167082294264,0.031706919929699304,
0.12738154613466335,0.038778631541593014,
0.12743142144638403,0.013714190865805817,
0.12748129675810474,0.01669513678155001,
0.12753117206982545,0.018919502629670407,
0.12758104738154613,0.002180787409172595,
0.12763092269326684,0.015033125955652815,
0.12768079800498752,0.024617160564267635,
0.12773067331670823,0.048378358828123955,
0.1277805486284289,0.029030246804512022,
0.12783042394014962,0.01365365812326315,
0.12788029925187033,0.027167223595393218,
0.12793017456359101,0.01064177332748264,
0.12798004987531172,0.029759047203319143,
0.1280299251870324,-0.005217263681791002,
0.12807980049875312,0.027492560496197284,
0.12812967581047383,0.052728489203285926,
0.1281795511221945,0.01800280528005612,
0.12822942643391522,-0.0001135242444353958,
0.1282793017456359,0.020654518117670967,
0.1283291770573566,-0.004999166937042769,
0.12837905236907732,0.018272798684916262,
0.128428927680798,0.02051614366032797,
0.1284788029925187,-0.009284184614668851,
0.1285286783042394,0.018919791283130247,
0.1285785536159601,0.011778751676084935,
0.1286284289276808,0.021560562051534393,
0.1286783042394015,-0.008952133120398928,
0.1287281795511222,-0.0035102611396966438,
0.12877805486284288,0.028346664264288366,
0.1288279301745636,0.04126510764713569,
0.1288778054862843,0.01681359646427522,
0.12892768079800498,0.0050847390768218766,
0.1289775561097257,0.025818321292585218,
0.12902743142144638,0.0036987616503520327,
0.12907730673316709,-0.006475395610793756,
0.12912718204488777,0.024733166409244327,
0.12917705735660848,0.009105072014484862,
0.1292269326683292,0.02620776385766356,
0.12927680798004987,0.004021974371635469,
0.12932668329177058,0.02970434480140941,
0.12937655860349126,0.017311343497501554,
0.12942643391521197,-0.004499058214426635,
0.12947630922693268,0.0014013168387848468,
0.12952618453865336,-0.010381767975806096,
0.12957605985037407,-0.008885750220202061,
0.12962593516209475,0.009731672299576562,
0.12967581047381546,0.019923556664559715,
0.12972568578553617,0.010602787681194532,
0.12977556109725685,0.007051460304089789,
0.12982543640897756,0.011065344645043091,
0.12987531172069824,-0.0033002506179736204,
0.12992518703241895,-0.010711372398388997,
0.12997506234413966,0.024617315367730735,
0.13002493765586035,0.016905666968256006,
0.13007481296758105,-0.005444818526321988,
0.13012468827930174,0.014419497630299009,
0.13017456359102245,0.03948827383415954,
0.13022443890274316,0.0041083994197689076,
0.13027431421446384,0.009030736807554073,
0.13032418952618455,0.007341563907544325,
0.13037406483790523,0.01971291122811903,
0.13042394014962594,-0.021672040660871566,
0.13047381546134662,0.004045429263679572,
0.13052369077306733,-5.160877385388882e-06,
0.13057356608478804,-0.01291460203032611,
0.13062344139650872,0.004967166469202835,
0.13067331670822943,-0.04607739965407403,
0.1307231920199501,-0.011054045649716234,
0.13077306733167082,0.014215335817399116,
0.13082294264339153,0.006687382894416317,
0.13087281795511221,0.00933545001653394,
0.13092269326683292,0.002053682848385298,
0.1309725685785536,0.017105300318729925,
0.13102244389027431,-0.0136015954960236,
0.13107231920199502,-0.014738117611781424,
0.1311221945137157,0.011779629013209742,
0.13117206982543642,-0.012568053192341786,
0.1312219451371571,-0.012672761336998042,
0.1312718204488778,-0.013003836033155022,
0.13132169576059852,-0.0007682199513830916,
0.1313715710723192,0.002379042149707996,
0.1314214463840399,0.004929701044807121,
0.1314713216957606,0.0023766721315027807,
0.1315211970074813,-0.005671479579859657,
0.13157107231920198,-0.017791239419094523,
0.1316209476309227,0.0014972299540540607,
0.1316708229426434,0.004147039710067605,
0.13172069825436408,-0.02457117233898882,
0.1317705735660848,0.022906503003083327,
0.13182044887780547,-0.0008142398906189371,
0.13187032418952618,0.024322920834240636,
0.1319201995012469,-0.0007168469101731692,
0.13197007481296757,-0.007316471595130195,
0.13201995012468828,-0.009228744817634214,
0.13206982543640897,0.005032681105494961,
0.13211970074812968,0.015451439673754877,
0.13216957605985039,-0.014087636026244986,
0.13221945137157107,0.02545432722090795,
0.13226932668329178,-0.0024628358795450145,
0.13231920199501246,0.0005090049290463559,
0.13236907730673317,-0.009370799915304337,
0.13241895261845388,-0.014658258218612167,
0.13246882793017456,0.011121493870767557,
0.13251870324189527,-0.040070895475625846,
0.13256857855361595,0.004715266079693137,
0.13261845386533666,-0.010875087339529264,
0.13266832917705737,-0.02012184421225381,
0.13271820448877805,0.034817163222975456,
0.13276807980049876,0.0197642544332143,
0.13281795511221944,-0.01850005787000658,
0.13286783042394015,0.0055175990204169145,
0.13291770573566083,-0.020028746233234203,
0.13296758104738154,-0.008204558969676517,
0.13301745635910225,0.03512381800638728,
0.13306733167082294,-0.010130644299768737,
0.13311720698254365,-0.013196515970224247,
0.13316708229426433,-0.006418631641793109,
0.13321695760598504,-0.0010588947047281763,
0.13326683291770575,-0.03514628353101155,
0.13331670822942643,0.01038871958497983,
0.13336658354114714,-0.008461295277360052,
0.13341645885286782,-0.030128366187693732,
0.13346633416458853,0.00377650226283114,
0.13351620947630924,-0.0015678172521143823,
0.13356608478802992,0.005290724586446353,
0.13361596009975063,-0.03126023707523039,
0.1336658354114713,-0.022757131119807927,
0.13371571072319202,-0.048052252303498265,
0.13376558603491273,-0.03954306556957064,
0.1338154613466334,-0.021237939745244506,
0.13386533665835412,-0.010042045438575948,
0.1339152119700748,-0.000332935200092312,
0.13396508728179551,-0.01063280864900127,
0.1340149625935162,0.0048988780024803846,
0.1340648379052369,-0.021646085838576374,
0.13411471321695762,-0.02902828952351949,
0.1341645885286783,-0.03716969981538547,
0.134214463840399,-0.04213009714598834,
0.1342643391521197,0.012196567321678906,
0.1343142144638404,0.0015413223864774728,
0.1343640897755611,0.012316164382416483,
0.1344139650872818,0.003207165009510262,
0.1344638403990025,-0.018343023007024478,
0.13451371571072318,0.0007145726675179161,
0.1345635910224439,-0.005328970779933763,
0.1346134663341646,-0.02061708665330246,
0.13466334164588528,-0.021361534745486598,
0.134713216957606,-0.005338322925117891,
0.13476309226932667,-0.017104817916065964,
0.13481296758104738,0.017307043731012592,
0.1348628428927681,-0.030630673796366716,
0.13491271820448877,0.0020405412892398594,
0.13496259351620948,-0.011236545598751669,
0.13501246882793017,0.0011805637458945969,
0.13506234413965088,-0.0151023361829907,
0.13511221945137158,-0.01851089990853643,
0.13516209476309227,-0.012791414331713937,
0.13521197007481298,-0.0058699668768618036,
0.13526184538653366,-0.005727533391849276,
0.13531172069825437,6.664710951860206e-05,
0.13536159600997505,-0.015544686520305235,
0.13541147132169576,-0.035925037369740495,
0.13546134663341647,-0.01757710481657932,
0.13551122194513715,-0.01021687788505332,
0.13556109725685786,0.0028066221831558533,
0.13561097256857854,0.0004953392303033103,
0.13566084788029925,-0.014133212697201145,
0.13571072319201996,-0.008465452162498685,
0.13576059850374064,0.006160810963310623,
0.13581047381546135,0.00823216576640595,
0.13586034912718203,-0.0035981685647001284,
0.13591022443890274,-0.004678207096776712,
0.13596009975062345,-0.02030994417784828,
0.13600997506234414,-0.003881850343155269,
0.13605985037406484,-0.006186785877175414,
0.13610972568578553,0.010629723659654608,
0.13615960099750624,-0.01809174847906251,
0.13620947630922695,0.018809816123989388,
0.13625935162094763,-0.03380572133627437,
0.13630922693266834,-0.016742162326017558,
0.13635910224438902,0.0010641466795195528,
0.13640897755610973,-0.0027718244561964257,
0.1364588528678304,-0.008326011277780224,
0.13650872817955112,-0.004192034432186957,
0.13655860349127183,-0.0006198756662973617,
0.1366084788029925,-0.003934115529863827,
0.13665835411471322,-0.009228977846378352,
0.1367082294264339,-0.017683562765600503,
0.1367581047381546,-0.024073009066687637,
0.13680798004987532,0.0062448857645625595,
0.136857855361596,0.01768620861465297,
0.1369077306733167,-0.005993054243771902,
0.1369576059850374,-0.009665536615476146,
0.1370074812967581,0.004584341106966892,
0.13705735660847881,-0.017312577660937124,
0.1371072319201995,-0.023467517984993424,
0.1371571072319202,-0.0018469069599590892,
0.1372069825436409,0.013202374410216516,
0.1372568578553616,-0.028145182089586614,
0.1373067331670823,-0.010830397324619651,
0.137356608478803,-0.004156740874992654,
0.1374064837905237,0.019205948217619943,
0.13745635910224438,-0.020094552175964467,
0.1375062344139651,-0.0007870156456802999,
0.1375561097256858,-0.019977899133148316,
0.13760598503740648,-0.018318098610122756,
0.1376558603491272,-0.0061475628445362964,
0.13770573566084787,0.009010899174056931,
0.13775561097256858,0.006710878899459587,
0.13780548628428926,-0.003196082414565928,
0.13785536159600997,0.00755479897739552,
0.13790523690773068,0.015538912675075173,
0.13795511221945136,0.0071354810967992266,
0.13800498753117207,0.03432718166147146,
0.13805486284289276,0.008823745660503805,
0.13810473815461347,0.010491783347141745,
0.13815461346633418,-0.008360221163235208,
0.13820448877805486,0.0023352750525660907,
0.13825436408977557,0.0078022466196111424,
0.13830423940149625,0.014507981567592275,
0.13835411471321696,0.02512728771144387,
0.13840399002493767,-0.016153050541125608,
0.13845386533665835,0.01879171051443957,
0.13850374064837906,0.0020473411402881347,
0.13855361596009974,0.016215027263922235,
0.13860349127182045,0.02503936967608299,
0.13865336658354116,-0.001136776745921519,
0.13870324189526184,0.007860061747654001,
0.13875311720698255,0.001749968924140169,
0.13880299251870323,0.02416762279114706,
0.13885286783042394,-0.01421280415727958,
0.13890274314214462,0.0010046785597258778,
0.13895261845386533,0.018004041049922332,
0.13900249376558604,-0.01352250822861141,
0.13905236907730673,0.03093018845516464,
0.13910224438902744,0.03983947775625934,
0.13915211970074812,0.004746776425561907,
0.13920199501246883,0.02386424549476344,
0.13925187032418954,0.015896306720621034,
0.13930174563591022,0.026018700339981306,
0.13935162094763093,-0.0053648505053349015,
0.1394014962593516,0.019721280111413324,
0.13945137157107232,-0.006907223584390247,
0.13950124688279303,-0.009324548932246058,
0.1395511221945137,0.008268401649914114,
0.13960099750623442,0.012531026915864829,
0.1396508728179551,0.015006044438548166,
0.1397007481296758,-0.001881330990589885,
0.13975062344139652,0.03839011030524411,
0.1398004987531172,-0.010527427517524552,
0.1398503740648379,-0.0018528366731248094,
0.1399002493765586,0.006105553881021628,
0.1399501246882793,-0.013716881394570737,
0.14,0.0058079062035167545,
0.1400498753117207,0.00498652129314041,
0.1400997506234414,0.02100789790921996,
0.1401496259351621,0.021675530590820762,
0.1401995012468828,0.01815369608938678,
0.14024937655860348,0.04506642273146641,
0.1402992518703242,0.0024212533190094403,
0.1403491271820449,0.027602100489747386,
0.14039900249376558,0.017247710691445768,
0.1404488778054863,-0.0013307589122823413,
0.14049875311720697,0.01919165994296792,
0.14054862842892768,-0.005182250235614742,
0.1405985037406484,0.010384758269868814,
0.14064837905236907,-0.014527454844610172,
0.14069825436408978,0.03676383597443531,
0.14074812967581046,0.008321093942344468,
0.14079800498753117,-0.010824168500273155,
0.14084788029925188,0.01594140984504943,
0.14089775561097256,0.04290796273696426,
0.14094763092269327,0.04265657727385457,
0.14099750623441396,0.04495840563330918,
0.14104738154613466,0.015914111899055616,
0.14109725685785537,0.02641332045304634,
0.14114713216957606,0.041066144993226916,
0.14119700748129677,0.036109486169155144,
0.14124688279301745,0.04201093358914587,
0.14129675810473816,0.030686471001566497,
