time,amplitude,label
0.0,-0.006679010798692276,
4.987531172069826e-05,-0.02314400596883275,
9.975062344139652e-05,-0.04112687498560723,
0.00014962593516209475,-0.029241540245180078,
0.00019950124688279303,0.013724677594434753,
0.00024937655860349125,-0.008085104535350947,
0.0002992518703241895,-0.02506838709086373,
0.00034912718204488776,-0.026541013292667566,
0.00039900249376558606,-0.036671596287070125,
0.0004488778054862843,-0.009071498780464989,
0.0004987531172069825,-0.03433922024398249,
0.0005486284289276808,0.009171200556681504,
0.000598503740648379,-0.018786556803219032,
0.0006483790523690773,-0.024678482784988978,
0.0006982543640897755,-0.002686528603383113,
0.0007481296758104738,0.0012363682805393156,
0.0007980049875311721,-0.01867487964799166,
0.0008478802992518703,-0.02205498935606997,
0.0008977556109725686,-0.057135392426491634,
0.0009476309226932668,-0.027097687436362056,
0.000997506234413965,-0.024939309114991107,
0.0010473815461346633,0.002242787488967909,
0.0010972568578553616,-0.0006722195063150541,
0.00114713216957606,-0.0044520578983023185,
0.001197007481296758,-0.0470945956263843,
0.0012468827930174563,-0.020273487893427394,
0.0012967581047381546,-0.03368865055784194,
0.001346633416458853,-0.0041936576302879485,
0.001396508728179551,-0.02018888652947042,
0.0014463840399002493,-0.004902518008709819,
0.0014962593516209476,-0.009104583382758987,
0.001546134663341646,-0.03062345019498982,
0.0015960099750623442,-0.011530369508769202,
0.0016458852867830423,-0.005878649085053577,
0.0016957605985037406,-0.008858904013963624,
0.001745635910224439,0.0012499807031837555,
0.0017955112219451373,0.00949974019313778,
0.0018453865336658353,-0.03580409544755302,
0.0018952618453865336,-0.018111812423100244,
0.001945137157107232,-0.0274056509826053,
0.00199501246882793,-0.016290218026040696,
0.0020448877805486283,-0.03617637848648482,
0.0020947630922693266,-0.04708963497295811,
0.002144638403990025,-0.019332662918165464,
0.0021945137157107233,-0.026404393573017753,
0.0022443890274314216,-0.027007302640118948,
0.00229426433915212,-0.015012165034759762,
0.0023441396508728177,0.007693234491973296,
0.002394014962593516,-0.0010555328598789507,
0.0024438902743142144,-0.027041086861681475,
0.0024937655860349127,-0.034842047768826226,
0.002543640897755611,-0.007612879344151734,
0.0025935162094763093,-0.04576427483946542,
0.0026433915211970076,-0.011389616565888234,
0.002693266832917706,-9.130304337126235e-05,
0.002743142144638404,-0.038540660567758005,
0.002793017456359102,-0.027727661687411406,
0.0028428927680798004,-0.022527705402349905,
0.0028927680798004987,-0.02492066100906185,
0.002942643391521197,-0.020600227623099432,
0.0029925187032418953,-0.017444374630470178,
0.0030423940149625936,-0.014509446674909745,
0.003092269326683292,-0.01295157844394335,
0.00314214463840399,-0.05213389486854046,
0.0031920199501246885,-0.024719814337837563,
0.0032418952618453864,0.0126229012592524,
0.0032917705735660847,-0.02565328672410731,
0.003341645885286783,-0.029939417918425144,
0.0033915211970074813,-0.014175632896093466,
0.0034413965087281796,-0.004805793677727701,
0.003491271820448878,0.002952454643712174,
0.003541147132169576,-0.029251680424952513,
0.0035910224438902745,-0.0005923663685599607,
0.0036408977556109724,-0.017931243764647633,
0.0036907730673316707,-0.04718779459232547,
0.003740648379052369,-0.008322672424972425,
0.0037905236907730673,-0.01640381480526793,
0.0038403990024937656,-0.020601622935012612,
0.003890274314214464,-0.019330723273675653,
0.003940149625935162,-0.028509422067098562,
0.00399002493765586,-0.05664222864547667,
0.004039900249376558,0.0023481244527284173,
0.004089775561097257,-0.0026589202842691242,
0.004139650872817955,-0.04614685797863807,
0.004189526184538653,-0.006188795978697368,
0.004239401496259352,-0.023686275038678425,
0.00428927680798005,-0.0027436288191685435,
0.004339152119700748,-0.005647806525222324,
0.0043890274314214465,-0.01641220928605023,
0.004438902743142145,-0.022120141805193907,
0.004488778054862843,-0.023601048945691296,
0.004538653366583541,-0.011251247252237247,
0.00458852867830424,-0.00738106453134146,
0.004638403990024938,-0.028130623336857237,
0.0046882793017456355,-0.0005036694416273857,
0.004738154613466334,-0.008593554613283712,
0.004788029925187032,-0.02487059427511279,
0.00483790523690773,-0.002202577963210892,
0.004887780548628429,-0.012431262359932593,
0.004937655860349127,-0.014258474346668892,
0.004987531172069825,-0.003481998811193217,
0.005037406483790524,-0.024832152842751577,
0.005087281795511222,-0.011212907008130463,
0.00513715710723192,-0.010969648943345532,
0.0051870324189526185,-0.02706119452246253,
0.005236907730673317,-0.023632868238747523,
0.005286783042394015,-0.02199597401152641,
0.0053366583541147134,-0.005544124459946636,
0.005386533665835412,-0.022857857674369646,
0.00543640897755611,-0.022380568162227173,
0.005486284289276808,-0.002988815600344358,
0.005536159600997507,0.008974123858509476,
0.005586034912718204,-0.00047807654709065145,
0.005635910224438902,0.004279808336513823,
0.005685785536159601,-0.009005986935197503,
0.005735660847880299,-0.036919270771235135,
0.005785536159600997,-0.02809482065916579,
0.005835411471321696,-0.006254626119200021,
0.005885286783042394,0.0036135862310001064,
0.005935162094763092,-0.00932593840855505,
0.0059850374064837905,-0.027405505402899842,
0.006034912718204489,-0.013007210562990734,
0.006084788029925187,-0.038166308287118096,
0.0061346633416458855,-0.0035151945921665304,
0.006184538653366584,-0.024781157100737222,
0.006234413965087282,-0.027832240219598486,
0.00628428927680798,0.0045972041977199955,
0.006334164588528679,-0.013276757067401947,
0.006384039900249377,0.006311398798556822,
0.006433915211970074,-0.0057985845104592945,
0.006483790523690773,-0.028876163890680394,
0.006533665835411471,-0.0021378252168491353,
0.006583541147132169,-0.00439126027258261,
0.006633416458852868,0.0036023525572379967,
0.006683291770573566,-0.012464974776167596,
0.006733167082294264,-0.021982128341754698,
0.0067830423940149626,-0.022219050785096485,
0.006832917705735661,-0.03182059579884685,
0.006882793017456359,-0.0204788211261867,
0.0069326683291770575,-0.003818103485651048,
0.006982543640897756,-0.017458447894529203,
0.007032418952618454,-0.014486904917801267,
0.007082294264339152,0.006101621829870733,
0.007132169576059851,-0.009459021271046447,
0.007182044887780549,-0.02760603737003717,
0.007231920199501247,0.003976483338749507,
0.007281795511221945,-0.020050334514632694,
0.007331670822942643,0.011226181049018319,
0.007381546134663341,-0.02192685129441199,
0.00743142144638404,0.007656492636428939,
0.007481296758104738,-0.03367198577829892,
0.007531172069825436,0.0033481543526595135,
0.007581047381546135,0.0077982133095647116,
0.007630922693266833,-0.013695719118797361,
0.007680798004987531,-0.00019080212067172902,
0.0077306733167082295,-0.0010702213315997673,
0.007780548628428928,0.0027317768571970416,
0.007830423940149626,0.003576697820766932,
0.007880299251870324,-0.0010784174602327553,
0.007930174563591023,0.013853570410377717,
0.00798004987531172,-0.003977793271590487,
0.00802992518703242,-0.016490485902435795,
0.008079800498753117,-0.01384788675979843,
0.008129675810473816,0.016938636278966746,
0.008179551122194513,-0.01944835029394167,
0.008229426433915213,0.0175864988622087,
0.00827930174563591,0.009467465138169274,
0.00832917705735661,-0.0016473255521820965,
0.008379052369077307,-0.0023594264658778467,
0.008428927680798006,0.00505020777330198,
0.008478802992518703,0.007965732309759782,
0.0085286783042394,-0.007500961045473582,
0.0085785536159601,0.025564986023015736,
0.008628428927680797,0.005104885243618989,
0.008678304239401496,0.03672557178246861,
0.008728179551122194,0.031244799420710116,
0.008778054862842893,0.0027301277682973226,
0.00882793017456359,0.011277607989002108,
0.00887780548628429,0.0013969154674476326,
0.008927680798004987,-0.009461539958986662,
0.008977556109725686,-0.005205803714377798,
0.009027431421446384,0.016732982190510642,
0.009077306733167083,0.009057342624987558,
0.00912718204488778,0.027333235023931677,
0.00917705735660848,-0.000397530403593218,
0.009226932668329177,0.02751248376432868,
0.009276807980049876,0.007447663963895194,
0.009326683291770574,0.004149447381491872,
0.009376558603491271,-0.007801366209584975,
0.00942643391521197,-0.009533212292095888,
0.009476309226932668,-0.0031005913279614026,
0.009526184538653367,0.021517401719105197,
0.009576059850374064,0.01465459462872708,
0.009625935162094763,0.020533398343744996,
0.00967581047381546,0.013941313864565267,
0.00972568578553616,0.00663043254798484,
0.009775561097256857,0.005305808365124469,
0.009825436408977557,0.023848790098411767,
0.009875311720698254,0.023424442905185815,
0.009925187032418953,0.023942640890827194,
0.00997506234413965,0.022830549039886322,
0.01002493765586035,0.021636760726524956,
0.010074812967581047,0.028488284445263697,
0.010124688279301746,0.021525462558367944,
0.010174563591022444,0.021311888182888487,
0.010224438902743141,0.0027272911629798464,
0.01027431421446384,0.027965061309910867,
0.010324189526184538,0.004665973490192619,
0.010374064837905237,0.018442517663657284,
0.010423940149625935,0.02867292199578296,
0.010473815461346634,0.006896597802767991,
0.010523690773067331,0.01983730899209616,
0.01057356608478803,0.0382937103710844,
0.010623441396508728,0.01617854695256983,
0.010673316708229427,0.02782796491799232,
0.010723192019950124,0.012577053584033254,
0.010773067331670824,0.019196547221623096,
0.010822942643391521,0.010571759757188087,
0.01087281795511222,0.008808067072257095,
0.010922693266832918,0.004814432770431039,
0.010972568578553617,0.03465305515540196,
0.011022443890274314,0.031058154872303883,
0.011072319201995013,0.009659364176657689,
0.01112219451371571,0.01920576872119223,
0.011172069825436408,-0.005389642557482338,
0.011221945137157107,0.021660683391695357,
0.011271820448877805,0.0366758015260889,
0.011321695760598504,-0.0005426933986773658,
0.011371571072319201,-0.005203662173661475,
0.0114214463840399,0.0010109232263141553,
0.011471321695760598,0.004278742296492449,
0.011521197007481297,0.008881768708551199,
0.011571072319201995,0.016861166073563725,
0.011620947630922694,-0.00195766839965799,
0.011670822942643391,0.014285309730296198,
0.01172069825436409,0.010923640740608961,
0.011770573566084788,-0.0017054067744941212,
0.011820448877805487,0.0321542650629555,
0.011870324189526184,-0.0007019523703953832,
0.011920199501246884,0.01628599519988283,
0.011970074812967581,0.006897746093658379,
0.012019950124688279,0.015388427103516964,
0.012069825436408978,0.02992561730794075,
0.012119700748129675,0.015530008941631578,
0.012169576059850374,0.023917355616993378,
0.012219451371571072,0.012672975855387708,
0.012269326683291771,0.017721321714353897,
0.012319201995012468,0.0106741868051071,
0.012369077306733168,0.030612395386261648,
0.012418952618453865,0.010235858066105063,
0.012468827930174564,0.026820399468472596,
0.012518703241895262,0.016633832715140216,
0.01256857855361596,0.04720523156079884,
0.012618453865336658,-0.00021168177212924771,
0.012668329177057357,0.034127335444161605,
0.012718204488778055,0.007502031365231313,
0.012768079800498754,0.00489886746646765,
0.012817955112219451,0.008915375902471288,
0.012867830423940149,0.026566855806083443,
0.012917705735660848,0.07104207378166416,
0.012967581047381545,0.014252964893661027,
0.013017456359102245,0.03429677186046372,
0.013067331670822942,0.007977673888367929,
0.013117206982543641,0.001836410545034823,
0.013167082294264339,0.020245168261410366,
0.013216957605985038,4.284297542529042e-05,
0.013266832917705735,0.033927305208468525,
0.013316708229426434,0.010639101266328636,
0.013366583541147132,0.018346168074967573,
0.013416458852867831,-0.010130777773997835,
0.013466334164588529,0.018713253147024947,
0.013516209476309228,0.02279183439154106,
0.013566084788029925,0.020913374461494053,
0.013615960099750624,0.02625575717862446,
0.013665835411471322,-0.005968720891244807,
0.01371571072319202,0.037697969837096126,
0.013765586034912718,0.020280651624155138,
0.013815461346633416,0.012100186566377824,
0.013865336658354115,0.04402622429464634,
0.013915211970074812,0.029234038316868452,
0.013965087281795512,0.04709243934871235,
0.014014962593516209,0.03230826625766858,
0.014064837905236908,0.06430753995152884,
0.014114713216957606,0.003929838776294849,
0.014164588528678305,0.05571885107436002,
0.014214463840399002,0.008629167158732964,
0.014264339152119701,0.023549114812212998,
0.014314214463840399,0.01887777402399006,
0.014364089775561098,0.003994866694077479,
0.014413965087281795,0.01859805531308504,
0.014463840399002495,0.008275519659801417,
0.014513715710723192,0.0350183545379929,
0.01456359102244389,0.022117303473368717,
0.014613466334164589,0.019812473842659932,
0.014663341645885286,0.016002872314183136,
0.014713216957605985,0.02749371062551345,
0.014763092269326683,0.02641742156113813,
0.014812967581047382,0.05134888199339102,
0.01486284289276808,0.003459002256538172,
0.014912718204488778,0.0057322482130299016,
0.014962593516209476,0.00223327999382069,
0.015012468827930175,0.03444466569652828,
0.015062344139650873,0.0023723112566928495,
0.015112219451371572,0.030838138052652043,
0.01516209476309227,0.01914506636295279,
0.015211970074812968,0.007401731019030626,
0.015261845386533666,0.02873215644117081,
0.015311720698254365,0.007816197497175114,
0.015361596009975062,0.025817907391877153,
0.01541147132169576,0.012558136760209587,
0.015461346633416459,0.0163869186294013,
0.015511221945137156,0.010374600262064222,
0.015561097256857856,0.04838535110139766,
0.015610972568578553,0.008337004886747316,
0.015660847880299252,-0.001807599143514995,
0.01571072319201995,-0.004073182726391615,
0.015760598503740647,0.025584323556451995,
0.015810473815461346,0.026064290756009724,
0.015860349127182045,0.03252641629826642,
0.015910224438902745,0.026610909508340105,
0.01596009975062344,0.01586078666789635,
0.01600997506234414,0.012296042838372389,
0.01605985037406484,0.02505052193453202,
0.016109725685785538,0.02401159825132798,
0.016159600997506234,0.004333107554464593,
0.016209476309226933,0.029776148122252093,
0.016259351620947632,0.01231843798984382,
0.016309226932668328,0.014532520772266501,
0.016359102244389027,0.027853804080793604,
0.016408977556109726,0.001995616719089325,
0.016458852867830425,-0.010062744742892905,
0.01650872817955112,0.0035112688196355085,
0.01655860349127182,0.007066728439428953,
0.01660847880299252,-0.009427888505748433,
0.01665835411471322,0.009652237488068708,
0.016708229426433914,-0.013360579681395444,
0.016758104738154613,-0.02972147731550303,
0.016807980049875312,0.004627454884761768,
0.01685785536159601,-0.00939201669710029,
0.016907730673316707,0.012278712931090542,
0.016957605985037406,0.01668844132783804,
0.017007481296758106,0.044958537443048036,
0.0170573566084788,0.01628789922284259,
0.0171072319201995,0.0026107342095502,
0.0171571072319202,0.0021838090180400184,
0.0172069825436409,0.015091101749595357,
0.017256857855361595,-0.0058403455304459565,
0.017306733167082294,0.010097445082336369,
0.017356608478802993,-0.040733612085135415,
0.017406483790523692,0.013942529949825179,
0.017456359102244388,0.005914130423848865,
0.017506234413965087,0.045081656601933875,
0.017556109725685786,-0.00025282466662286413,
0.017605985037406485,0.013166746345963315,
0.01765586034912718,0.0071124410586252285,
0.01770573566084788,-0.0008227321474277823,
0.01775561097256858,-0.016312913777707716,
0.01780548628428928,0.028405783108441874,
0.017855361596009974,0.0041470410862535145,
0.017905236907730673,0.006612151359366261,
0.017955112219451373,0.005647300825588593,
0.018004987531172068,0.005112074039159345,
0.018054862842892767,0.02299592666369415,
0.018104738154613467,0.017387804864287863,
0.018154613466334166,-0.007171947709883735,
0.01820448877805486,0.003401284430540091,
0.01825436408977556,-0.026188149952558762,
0.01830423940149626,-0.010459196080935058,
0.01835411471321696,0.020126345783023556,
0.018403990024937655,-0.023089700983695137,
0.018453865336658354,-0.02570108968864558,
0.018503740648379053,-0.035303252715811174,
0.018553615960099752,0.02217953286744717,
0.018603491271820448,-0.00732167688936602,
0.018653366583541147,-0.00547717726276323,
0.018703241895261846,0.017152927253261688,
0.018753117206982542,0.0024457624068638527,
0.01880299251870324,-0.011148902511876908,
0.01885286783042394,-0.005297864344095544,
0.01890274314214464,-0.002122991636152825,
0.018952618453865335,0.008312641229350307,
0.019002493765586034,-0.0025993655929950612,
0.019052369077306733,0.0022565897709269037,
0.019102244389027433,-0.0009799343649374442,
0.01915211970074813,-0.004148598956734528,
0.019201995012468828,-0.012535684541192223,
0.019251870324189527,-0.015024540911573465,
0.019301745635910226,-0.009223366422159289,
0.01935162094763092,0.010884831917185579,
0.01940149625935162,-0.02766189202729652,
0.01945137157107232,0.01632094262252947,
0.01950124688279302,0.025263325034997265,
0.019551122194513715,-0.01712921207772419,
0.019600997506234414,-0.001180005025200697,
0.019650872817955113,-0.023372757518741925,
0.01970074812967581,-0.016730035617281126,
0.019750623441396508,0.001615415001167339,
0.019800498753117207,0.0018732871481642,
0.019850374064837906,0.0018138708681113272,
0.019900249376558602,0.001145126098316858,
0.0199501246882793,0.0012816650572716132,
0.02,-0.023577827523940192,
0.0200498753117207,-0.03546458326464924,
0.020099750623441395,0.026607948907389798,
0.020149625935162094,0.009881613144170897,
0.020199501246882794,-0.015261292374997251,
0.020249376558603493,-0.012138250498442981,
0.02029925187032419,-0.004052592448222956,
0.020349127182044888,0.0010067788445168712,
0.020399002493765587,0.011080539063023864,
0.020448877805486283,0.0161146919859262,
0.02049875311720698,-0.011878227739583386,
0.02054862842892768,-0.0006859220917189348,
0.02059850374064838,-0.035524595596371895,
0.020648379052369076,-0.00720112692415238,
0.020698254364089775,-0.008066402285812343,
0.020748129675810474,-0.012939596036887742,
0.020798004987531173,-0.016946329178358886,
0.02084788029925187,0.0005117523616382513,
0.020897755610972568,-0.039971039571511435,
0.020947630922693267,-0.004045935998773715,
0.020997506234413967,-0.028992215023498625,
0.021047381546134662,-0.012633077612772438,
0.02109725685785536,-0.018698196927888724,
0.02114713216957606,-0.00740329101601582,
0.02119700748129676,-0.0100698039927305,
0.021246882793017455,-0.014591922416389274,
0.021296758104738155,-0.013812537303914175,
0.021346633416458854,-0.009133846390465316,
0.02139650872817955,-0.02469597211438358,
0.02144638403990025,-0.0020451636177686444,
0.021496259351620948,-8.635157726658016e-06,
0.021546134663341647,-0.027222311862726972,
0.021596009975062343,-0.020283123144198386,
0.021645885286783042,0.011550355638928504,
0.02169576059850374,0.03181192134122792,
0.02174563591022444,-0.05114104676878621,
0.021795511221945136,-0.022737062643546625,
0.021845386533665835,-0.0034814823786256735,
0.021895261845386534,-0.010902208370850187,
0.021945137157107233,-0.03216486422235357,
0.02199501246882793,0.0034674995248003652,
0.02204488778054863,-0.0017186684911604019,
0.022094763092269327,-0.018765392431465723,
0.022144638403990027,-0.015000460499687179,
0.022194513715710722,0.007507500800323391,
0.02224438902743142,0.005142310161517213,
0.02229426433915212,-0.011400519415602522,
0.022344139650872816,0.011473628660633037,
0.022394014962593516,-0.01736652640491676,
0.022443890274314215,0.004406809791438027,
0.022493765586034914,-0.044289105788699705,
0.02254364089775561,-0.013930879669615592,
0.02259351620947631,-0.018019872942750623,
0.022643391521197008,-0.016274419761879263,
0.022693266832917707,-0.03544572150785833,
0.022743142144638403,-0.0013521100161549005,
0.022793017456359102,-0.04102535419056155,
0.0228428927680798,-0.06051957375631706,
0.0228927680798005,-0.036013522011948115,
0.022942643391521196,-0.008809154372618727,
0.022992518703241895,-0.04299198806397119,
0.023042394014962594,-0.009159094794440825,
0.02309226932668329,-0.009002382052223189,
0.02314214463840399,-0.011248967539260224,
0.02319201995012469,-0.0030316701925809358,
0.023241895261845388,-0.0212997801969542,
0.023291770573566083,-0.0032005676422367686,
0.023341645885286783,-0.011634463033854705,
0.02339152119700748,-0.009412550210857733,
0.02344139650872818,-0.02915838289389719,
0.023491271820448877,-0.0012799462363210293,
0.023541147132169576,-0.010352733714974456,
0.023591022443890275,-0.029243709712219786,
0.023640897755610974,-0.04560703644414617,
0.02369077306733167,-0.021144364815138268,
0.02374064837905237,-0.03588183646343957,
0.023790523690773068,-0.025606554654503552,
0.023840399002493767,-0.007263581387294308,
0.023890274314214463,0.01276109047873571,
0.023940149625935162,-0.006047424138899025,
0.02399002493765586,0.015853317283394053,
0.024039900249376557,-0.03666714012865284,
0.024089775561097256,-0.013147487022386491,
0.024139650872817955,-0.02053552053960714,
0.024189526184538655,0.005517106960656031,
0.02423940149625935,-0.03140693811237706,
0.02428927680798005,-0.006095335715779995,
0.02433915211970075,-0.024898466404445894,
0.024389027431421448,-0.0007028523737699702,
0.024438902743142144,-0.012124254943034355,
0.024488778054862843,-0.01647343314429512,
0.024538653366583542,-0.01069851813913107,
0.02458852867830424,-0.01907534778218742,
0.024638403990024937,-0.0326846534153131,
0.024688279301745636,-0.04949515455389157,
0.024738154613466335,-0.02486765382522505,
0.02478802992518703,-0.011944577726934861,
0.02483790523690773,-0.00907954991751383,
0.02488778054862843,-0.004102974161257763,
0.02493765586034913,0.001903509027612535,
0.024987531172069824,-0.0029765637480100478,
0.025037406483790523,-0.006913877349357984,
0.025087281795511222,0.03062715235615525,
0.02513715710723192,-0.01599181889802145,
0.025187032418952617,0.0087340495979537,
0.025236907730673316,-0.02645424687283702,
0.025286783042394016,0.003054077581996488,
0.025336658354114715,-0.027026059304194567,
0.02538653366583541,-0.010985450106222512,
0.02543640897755611,-0.014431600468130293,
0.02548628428927681,-0.02990178821354944,
0.025536159600997508,-0.000980663903165823,
0.025586034912718204,-0.02103657804569876,
0.025635910224438903,0.019293599764968257,
0.025685785536159602,0.009185513242487819,
0.025735660847880298,-0.007091130910698781,
0.025785536159600997,-0.037894600353516175,
0.025835411471321696,-0.007337496794642503,
0.025885286783042395,-0.027725863398491632,
0.02593516209476309,0.0007903704459208821,
0.02598503740648379,-0.0070565035542231,
0.02603491271820449,-0.005231278281232409,
0.02608478802992519,-0.022492124584324896,
0.026134663341645884,0.011453624296716453,
0.026184538653366583,0.0006983360877988176,
0.026234413965087282,-0.01919897190803847,
0.02628428927680798,-0.030729792363280273,
0.026334164588528677,0.011843064302555722,
0.026384039900249377,0.010561562442848935,
0.026433915211970076,-0.02168052125085823,
0.02648379052369077,-0.006245287723785105,
0.02653366583541147,-0.001273636458379808,
0.02658354114713217,-0.013380465679798326,
0.02663341645885287,-0.014075352472336284,
0.026683291770573565,-0.04621023700781253,
0.026733167082294264,-0.03166211112172737,
0.026783042394014963,-0.008531508459923563,
0.026832917705735662,0.02020568278827695,
0.026882793017456358,-0.011786976272558102,
0.026932668329177057,-0.006415218653779682,
0.026982543640897756,-0.007872517272792905,
0.027032418952618455,0.00684811178078526,
0.02708229426433915,-0.008757300677641461,
0.02713216957605985,-0.012364722509892241,
0.02718204488778055,-0.0011890416009354308,
0.02723192019950125,-0.012480984002480001,
0.027281795511221944,0.008124576949450554,
0.027331670822942643,0.015391174478546864,
0.027381546134663343,-0.020909909983938758,
0.02743142144638404,-0.0027023633625674684,
0.027481296758104738,-0.004650774271687826,
0.027531172069825437,0.00022220485810629364,
0.027581047381546136,-0.010336354585072724,
0.02763092269326683,-0.010432924247545446,
0.02768079800498753,-0.0021886262705135555,
0.02773067331670823,0.004335882352469424,
0.02778054862842893,-0.02722125183965081,
0.027830423940149625,-0.0021875658331247418,
0.027880299251870324,0.0004753578840705104,
0.027930174563591023,-0.025913755038425756,
0.027980049875311722,-0.020817017362943085,
0.028029925187032418,0.01369229788218633,
0.028079800498753117,-0.005966207034291775,
0.028129675810473816,0.013145266425051202,
0.028179551122194512,-0.0012469394803071654,
0.02822942643391521,-0.017751216333927816,
0.02827930174563591,0.014647229563678088,
0.02832917705735661,0.02549407194731412,
0.028379052369077305,0.012630252467067648,
0.028428927680798004,-0.030151743019623194,
0.028478802992518704,-0.00165332691027582,
0.028528678304239403,0.012951660427368648,
0.0285785536159601,0.011858269057901355,
0.028628428927680798,-0.006424905057642287,
0.028678304239401497,-0.0020583472653098265,
0.028728179551122196,-0.0007967513984980116,
0.02877805486284289,-0.0023998108193236745,
0.02882793017456359,0.009804134804513255,
0.02887780548628429,-0.025720565054969044,
0.02892768079800499,0.0106940677542336,
0.028977556109725685,-0.012061863289354649,
0.029027431421446384,-0.016420037152847282,
0.029077306733167083,0.0031135539162709253,
0.02912718204488778,0.027433386625125327,
0.029177057356608478,-0.03471457495713767,
0.029226932668329177,-0.002901398275433162,
0.029276807980049877,0.01647114073408006,
0.029326683291770572,-0.003896080291871386,
0.02937655860349127,-0.0003965574719772911,
0.02942643391521197,0.016703928660103277,
0.02947630922693267,0.018300557177650088,
0.029526184538653365,-0.012649534572086108,
0.029576059850374065,-0.015607057969146416,
0.029625935162094764,0.016919705146498966,
0.029675810473815463,0.00042234946172627075,
0.02972568578553616,0.010621662500342723,
0.029775561097256858,0.008301527554883024,
0.029825436408977557,0.018916177226948317,
0.029875311720698253,0.02252513481586997,
0.029925187032418952,0.01705665410510478,
0.02997506234413965,0.0045026730274895215,
0.03002493765586035,0.009407388578764836,
0.030074812967581046,0.008682325142784284,
0.030124688279301745,0.029192645750791845,
0.030174563591022444,0.012239149913111674,
0.030224438902743143,0.014050271127657695,
0.03027431421446384,0.010989091951882402,
0.03032418952618454,0.024489444869428386,
0.030374064837905237,0.009803211269227752,
0.030423940149625937,0.022544613272401516,
0.030473815461346632,0.01366658006604827,
0.03052369077306733,0.005797940667712021,
0.03057356608478803,0.025558002683873315,
0.03062344139650873,-0.0076750288911415325,
0.030673316708229426,0.02337294566763949,
0.030723192019950125,0.017046868426049896,
0.030773067331670824,0.018433937619495036,
0.03082294264339152,0.013963818060538622,
0.03087281795511222,0.019192183604524456,
0.030922693266832918,0.029279927874413685,
0.030972568578553617,-0.008357045961743543,
0.031022443890274313,0.017257063272259385,
0.031072319201995012,0.02424190153876397,
0.03112219451371571,0.03360391325372101,
0.03117206982543641,0.023479762645792844,
0.031221945137157106,-0.0038117969444234553,
0.03127182044887781,1.5056619908117297e-05,
0.031321695760598504,0.007744133194626012,
0.0313715710723192,0.007990504850775614,
0.0314214463840399,0.03292375369356923,
0.0314713216957606,0.0317413821960503,
0.031521197007481294,0.030720152127094485,
0.031571072319202,0.02703818240535609,
0.03162094763092269,0.012480099288624365,
0.03167082294264339,0.031680504978662406,
0.03172069825436409,0.014253153732079284,
0.03177057356608479,0.023345569930238282,
0.03182044887780549,0.019836222152363085,
0.031870324189526185,0.00609962088118521,
0.03192019950124688,0.02312276885742842,
0.03197007481296758,0.029768561206661586,
0.03201995012468828,0.016677614749518153,
0.032069825436408975,-0.0005373855697410439,
0.03211970074812968,-0.0012251040303886997,
0.03216957605985037,0.022540156819423698,
0.032219451371571076,0.05486935595478021,
0.03226932668329177,0.03322936991119891,
0.03231920199501247,0.02469571765640675,
0.03236907730673317,-0.01712304845235241,
0.032418952618453865,0.010229664661837624,
0.03246882793017456,0.020772234640516026,
0.032518703241895264,0.008033522785601788,
0.03256857855361596,-0.012991570767319709,
0.032618453865336655,0.0402665949598522,
0.03266832917705736,0.01988036137073352,
0.032718204488778053,0.04027626083833685,
0.032768079800498756,0.02208350269218915,
0.03281795511221945,0.017777511395612667,
0.03286783042394015,0.04906163801023118,
0.03291770573566085,0.03137351637939506,
0.032967581047381546,0.019007727060739478,
0.03301745635910224,0.03541901040458832,
0.033067331670822944,0.020336567655174234,
0.03311720698254364,0.03012622425041968,
0.03316708229426434,0.02725016353286405,
0.03321695760598504,0.02946805023743732,
0.033266832917705734,0.05460229136508017,
0.03331670822942644,0.03691523913412237,
0.03336658354114713,0.03246701677738151,
0.03341645885286783,0.016435769880615122,
0.03346633416458853,0.042379616276904966,
0.033516209476309226,0.043346503167655454,
0.03356608478802992,0.01726367716630077,
0.033615960099750625,0.036891886001225824,
0.03366583541147132,0.037765660193796666,
0.03371571072319202,0.057562128407899454,
0.03376558603491272,0.028633897613214974,
0.033815461346633414,0.037410232895592845,
0.03386533665835412,0.008558816439202865,
0.03391521197007481,0.01486959261368792,
0.03396508728179551,0.013997534153596357,
0.03401496259351621,-0.0031239664809949927,
0.03406483790523691,0.008998737566046787,
0.0341147132169576,0.024148906473422955,
0.034164588528678305,0.031191383322639973,
0.034214463840399,0.023329415849879773,
0.034264339152119704,0.02046648108117109,
0.0343142144638404,0.007215390614469564,
0.034364089775561095,0.020132986856018338,
0.0344139650872818,0.05053201964102923,
0.03446384039900249,0.018177860228956455,
0.03451371571072319,0.02338821786468466,
0.03456359102244389,0.027003434536117615,
0.03461346633416459,0.03766633422789969,
0.03466334164588529,0.031394765107031555,
0.034713216957605986,0.021225612128901436,
0.03476309226932668,0.017443084682232265,
0.034812967581047384,0.0420991955732524,
0.03486284289276808,0.017452213489571378,
0.034912718204488775,0.047760671644902795,
0.03496259351620948,0.010214302836122664,
0.035012468827930174,0.01778763647494825,
0.03506234413965087,0.038970843831434926,
0.03511221945137157,0.015184741519178417,
0.03516209476309227,0.0228492657492202,
0.03521197007481297,0.029024152578230468,
0.035261845386533666,0.032992665798856055,
0.03531172069825436,0.032846815193013745,
0.035361596009975065,0.026892887326829082,
0.03541147132169576,0.0195543319217496,
0.035461346633416456,0.0315073345005768,
0.03551122194513716,0.02984316165094792,
0.035561097256857854,0.008416438422882042,
0.03561097256857856,0.012994403345739607,
0.03566084788029925,0.03447164553698166,
0.03571072319201995,0.03511367686126425,
0.03576059850374065,0.02164156651870855,
0.03581047381546135,0.007038994300182599,
0.03586034912718204,0.034709710242328926,
0.035910224438902745,-0.004046098103092581,
0.03596009975062344,0.038713343652215834,
0.036009975062344136,0.02104961230272107,
0.03605985037406484,0.02539809840246094,
0.036109725685785535,0.020262906561507463,
0.03615960099750624,0.021931892323137973,
0.03620947630922693,0.030276681401554515,
0.03625935162094763,0.018068679645140594,
0.03630922693266833,0.036098251261365025,
0.03635910224438903,0.023414926379675856,
0.03640897755610972,0.017437562358509153,
0.036458852867830426,0.04905347426774588,
0.03650872817955112,0.0005960447330084859,
0.036558603491271824,0.005513898544187799,
0.03660847880299252,0.004532659070195439,
0.036658354114713215,0.028001820333986908,
0.03670822942643392,0.0011815497947790885,
0.036758104738154614,0.04257172250480625,
0.03680798004987531,0.024202958633058626,
0.03685785536159601,0.018679711457159125,
0.03690773067331671,0.031215575477238078,
0.0369576059850374,0.02582308796057653,
0.037007481296758106,-0.0022905906865159364,
0.0370573566084788,0.011615323064999149,
0.037107231920199504,0.02125614318405409,
0.0371571072319202,0.033436413935724815,
0.037206982543640896,0.002768093899715895,
0.0372568578553616,0.008309458532276243,
0.037306733167082294,0.009214027146559502,
0.03735660847880299,0.020922004227817516,
0.03740648379052369,0.004560702049432896,
0.03745635910224439,0.021648271981650546,
0.037506234413965084,0.002376347250654519,
0.037556109725685786,-0.005321941077724303,
0.03760598503740648,-0.005919962254982425,
0.037655860349127185,0.019462855254423532,
0.03770573566084788,0.04701822638115268,
0.037755610972568576,0.027586996586503043,
0.03780548628428928,0.002808013136695383,
0.037855361596009975,0.0041967271278750065,
0.03790523690773067,0.023967912626937496,
0.03795511221945137,0.004330141561810834,
0.03800498753117207,0.007890950010850805,
0.03805486284289277,0.029981807737191026,
0.03810473815461347,0.009892090863363604,
0.03815461346633416,0.003946251484486819,
0.038204488778054865,0.03857652224632732,
0.03825436408977556,0.010769784859113986,
0.03830423940149626,0.014712138508984972,
0.03835411471321696,-0.008214078163494537,
0.038403990024937655,0.015881162105801986,
0.03845386533665835,-0.010838824016033612,
0.03850374064837905,0.0165981396039893,
0.03855361596009975,0.0020832181778490163,
0.03860349127182045,0.01617692764212441,
0.03865336658354115,-0.002428970453751929,
0.03870324189526184,0.0013678025080063846,
0.038753117206982546,0.015832104614415615,
0.03880299251870324,0.007258244027096395,
0.03885286783042394,-0.009493469283663191,
0.03890274314214464,0.005279019644327558,
0.038952618453865336,-0.016503233945497894,
0.03900249376558604,-0.011719844801711173,
0.039052369077306734,-0.004725863497474501,
0.03910224438902743,-0.013721887564157383,
0.03915211970074813,0.0031312720104492335,
0.03920199501246883,-0.005496166880664302,
0.039251870324189524,-0.02401001666941312,
0.039301745635910226,-0.023079219754341993,
0.03935162094763092,-0.0032602754451274,
0.03940149625935162,-0.005431048007357431,
0.03945137157107232,0.007820134867360076,
0.039501246882793016,0.009331192803459109,
0.03955112219451372,-0.011579210640073829,
0.039600997506234414,-0.010515270555588254,
0.03965087281795511,-0.021160731939654877,
0.03970074812967581,0.012041531624213505,
0.03975062344139651,-0.014298842891027027,
0.039800498753117204,0.007768393473728163,
0.03985037406483791,-0.007240213695226532,
0.0399002493765586,-0.02276829225572994,
0.039950124688279305,-0.009515802186677571,
0.04,-0.00022017752912924932,
0.0400498753117207,-0.005832357471756242,
0.0400997506234414,-0.01809673091585172,
0.040149625935162095,0.01547090577813467,
0.04019950124688279,-0.013507594434712448,
0.04024937655860349,-0.021609841101305087,
0.04029925187032419,-0.009734114010626602,
0.040349127182044885,-0.004004665198415703,
0.04039900249376559,0.02016960504507965,
0.04044887780548628,0.005573397055663093,
0.040498753117206986,0.01381736782622089,
0.04054862842892768,-0.013974613215043334,
0.04059850374064838,-0.011224625205301483,
0.04064837905236908,-0.0071144821349043205,
0.040698254364089775,-0.003711307437870133,
0.04074812967581047,-0.0047692274142347585,
0.040798004987531174,-0.011401164901342168,
0.04084788029925187,-0.012419205266672083,
0.040897755610972565,-0.030238467633369546,
0.04094763092269327,0.01241699502577016,
0.04099750623441396,0.004619024419401683,
0.041047381546134666,-0.01165485030926211,
0.04109725685785536,0.012049468693518584,
0.04114713216957606,-0.015866993760587957,
0.04119700748129676,-0.029960793528063058,
0.041246882793017456,-0.007468091224200343,
0.04129675810473815,-0.0033869674783290876,
0.041346633416458854,-0.009612732743489468,
0.04139650872817955,-0.0009675455953352466,
0.04144638403990025,-0.03103131029219709,
0.04149625935162095,-0.02659029551661684,
0.041546134663341644,-0.005925868719457476,
0.04159600997506235,-0.005194564599380086,
0.04164588528678304,-0.016644228346293196,
0.04169576059850374,-0.029075354287010705,
0.04174563591022444,-0.0472227109048656,
0.041795511221945136,-0.00811663098912006,
0.04184538653366583,-0.028298776447335118,
0.041895261845386535,-0.022153231663042155,
0.04194513715710723,-0.008521439999965512,
0.04199501246882793,-0.021580830467613554,
0.04204488778054863,-0.012806509679605282,
0.042094763092269324,-0.0026199324328551234,
0.04214463840399003,0.00039326551955112983,
0.04219451371571072,-0.01889308050544819,
0.04224438902743142,-0.019273816502129365,
0.04229426433915212,-0.019460774246845936,
0.04234413965087282,-0.03383487867167198,
0.04239401496259352,-0.01993188160655852,
0.042443890274314215,-0.00836690819804031,
0.04249376558603491,0.012637278515272445,
0.042543640897755614,-0.022759338189575325,
0.04259351620947631,0.01098037569072597,
0.042643391521197005,-0.03267546929828393,
0.04269326683291771,-0.009040105054308557,
0.0427431421446384,-0.003537038594765396,
0.0427930174563591,-0.041420294252267245,
0.0428428927680798,-0.042309279927085,
0.0428927680798005,-0.018997005321269432,
0.0429426433915212,-0.01845910144627988,
0.042992518703241896,-0.009378295931232647,
0.04304239401496259,0.00922396820815061,
0.043092269326683294,-0.009347948718860967,
0.04314214463840399,0.00710694040875812,
0.043192019950124685,-0.004621672322279379,
0.04324189526184539,-0.043996599009044526,
0.043291770573566084,-0.05021639923984998,
0.043341645885286786,-0.031062898170399336,
0.04339152119700748,-0.007317545389878563,
0.04344139650872818,-0.03187807845464277,
0.04349127182044888,-0.04565435554850085,
0.043541147132169576,-0.00607704750679817,
0.04359102244389027,-0.01543663004828564,
0.043640897755610975,-0.018722911804927415,
0.04369077306733167,-0.011163335987154506,
0.043740648379052366,-0.032895576445707495,
0.04379052369077307,-0.010597206598721534,
0.043840399002493764,-0.01859260055114091,
0.04389027431421447,-0.02257374805392972,
0.04394014962593516,-0.031173725248713365,
0.04399002493765586,-0.013464193829720462,
0.04403990024937656,-0.026757451137723667,
0.04408977556109726,0.004436546840075814,
0.04413965087281795,-0.03534874589327066,
0.044189526184538655,-0.01624914895323235,
0.04423940149625935,-0.010769315548348223,
0.04428927680798005,-0.03880085863487551,
0.04433915211970075,-0.012865693456379348,
0.044389027431421445,-0.002780484151963473,
0.04443890274314215,0.0023909139671597045,
0.04448877805486284,-0.03452660213499704,
0.04453865336658354,-0.005651793753235308,
0.04458852867830424,-0.010180601509025904,
0.04463840399002494,-0.025045632549566918,
0.04468827930174563,-0.030522816899698116,
0.044738154613466335,-0.030381244940996137,
0.04478802992518703,-0.0035703401963849933,
0.044837905236907734,-0.014311394227372421,
0.04488778054862843,0.01808868947640923,
0.044937655860349125,-0.01152987618098579,
0.04498753117206983,-0.00949265932738006,
0.045037406483790524,-0.006860472116575149,
0.04508728179551122,-0.031790064124445835,
0.04513715710723192,-0.028069144666298708,
0.04518703241895262,-0.03228751793364695,
0.04523690773067331,-0.024166120918234453,
0.045286783042394016,-0.0009408855114696919,
0.04533665835411471,-0.006992053130391278,
0.045386533665835414,-0.0373160555527627,
0.04543640897755611,-0.03803793654561374,
0.045486284289276806,-0.022134121927034428,
0.04553615960099751,-0.032014642887641095,
0.045586034912718204,-0.03284943911900982,
0.0456359102244389,-0.02058816580696387,
0.0456857855361596,-0.051631883385350894,
0.0457356608478803,-0.0004509561786824462,
0.045785536159601,-0.0066703454755608505,
0.045835411471321696,0.0020199105540009057,
0.04588528678304239,-0.03675281112196869,
0.045935162094763095,-0.0019590574113432895,
0.04598503740648379,-0.005790919219226785,
0.046034912718204486,-0.005595633928453338,
0.04608478802992519,-0.028739545908332217,
0.046134663341645885,-0.02568421182917449,
0.04618453865336658,0.010369045813486001,
0.04623441396508728,-0.0013118668849235807,
0.04628428927680798,-0.011495150381912608,
0.04633416458852868,-0.012951980891305379,
0.04638403990024938,-0.011287204106459815,
0.04643391521197007,-0.011119584185657566,
0.046483790523690775,0.014600622963296036,
0.04653366583541147,0.0008955255798238932,
0.04658354114713217,-0.03503620139453217,
0.04663341645885287,-0.010898578151826682,
0.046683291770573565,0.024762597660725708,
0.04673316708229427,-0.010991538276145829,
0.04678304239401496,-0.040250779647712405,
0.04683291770573566,6.600113287106094e-05,
0.04688279301745636,0.0043669720718900774,
0.04693266832917706,-0.00877399150335702,
0.04698254364089775,0.007696432926614483,
0.047032418952618456,0.021085440859335777,
0.04708229426433915,-0.0047411589031657545,
0.04713216957605985,-0.026745245398268776,
0.04718204488778055,0.006713798642527417,
0.047231920199501246,0.0038793333215084414,
0.04728179551122195,-0.004698749544966417,
0.047331670822942644,-0.008494703842134067,
0.04738154613466334,0.008477045175834958,
0.04743142144638404,-0.005512877573061015,
0.04748129675810474,0.001629600174789692,
0.047531172069825434,-0.002882652384008165,
0.047581047381546136,0.024837618799738743,
0.04763092269326683,-0.016619345855485655,
0.047680798004987535,0.015203812330379304,
0.04773067331670823,-0.006516194408493827,
0.047780548628428926,-0.003726036607959705,
0.04783042394014963,0.001480829092992593,
0.047880299251870324,-0.0019355710322117767,
0.04793017456359102,-0.032866722254811256,
0.04798004987531172,0.0018017973233209333,
0.04802992518703242,-0.01198011560032424,
0.048079800498753114,0.017151751352804178,
0.04812967581047382,0.006075729407249412,
0.04817955112219451,-0.00437059779541897,
0.048229426433915215,0.01673308260300754,
0.04827930174563591,-0.005022965723490033,
0.048329177057356607,0.02383151257769232,
0.04837905236907731,0.011064131848850968,
0.048428927680798005,-0.0024503784633094915,
0.0484788029925187,0.017417089017238752,
0.0485286783042394,0.017210356517604244,
0.0485785536159601,-0.003987887402885288,
0.048628428927680795,0.0006786732343556888,
0.0486783042394015,0.003689953953885813,
0.04872817955112219,0.0072974730828005725,
0.048778054862842896,0.01037560291171117,
0.04882793017456359,0.022004840894410876,
0.04887780548628429,-0.0010308150786067062,
0.04892768079800499,0.0017312999407415961,
0.048977556109725685,0.042304226916557865,
0.04902743142144638,0.022404084496663503,
0.049077306733167084,-0.022118046058609644,
0.04912718204488778,-0.007446716668090521,
0.04917705735660848,-0.0029611021201306036,
0.04922693266832918,-0.003809681641745572,
0.04927680798004987,0.03021235416472739,
0.049326683291770576,-0.007198466592834827,
0.04937655860349127,0.02238251819837625,
0.04942643391521197,0.0008801709388151831,
0.04947630922693267,-0.00565803368416188,
0.049526184538653366,-0.00963597008105085,
0.04957605985037406,0.012079431000428176,
0.049625935162094764,0.02927727709736902,
0.04967581047381546,0.0015993504555723674,
0.04972568578553616,0.03772341339156774,
0.04977556109725686,0.015980099660963244,
0.049825436408977554,0.009265438019503264,
0.04987531172069826,0.002347290314453335,
0.04992518703241895,0.017565400655131028,
0.04997506234413965,0.019220082045707753,
0.05002493765586035,0.008172372527814652,
0.050074812967581046,0.003796193148711125,
0.05012468827930175,-0.020716868481503115,
0.050174563591022445,0.018592311127319485,
0.05022443890274314,0.02602435540293529,
0.05027431421446384,0.0036762343791721715,
0.05032418952618454,0.027077987502334956,
0.050374064837905234,-0.00264794707269184,
0.05042394014962594,0.008298840375578872,
0.05047381546134663,0.011400878199894984,
0.05052369077306733,0.04645428071822527,
0.05057356608478803,-0.022328117190983796,
0.05062344139650873,0.01208774806347239,
0.05067331670822943,0.027917229670256512,
0.050723192019950125,0.007695378288837533,
0.05077306733167082,0.022040389562957338,
0.050822942643391524,-0.002461188949457637,
0.05087281795511222,0.0021191627311846206,
0.050922693266832915,0.01487742424137787,
0.05097256857855362,0.015269473991506412,
0.05102244389027431,0.03343243581506796,
0.051072319201995016,0.04072217826779278,
0.05112219451371571,0.03900377067049697,
0.05117206982543641,0.014129770891462005,
0.05122194513715711,0.02692323358090609,
0.051271820448877806,0.024111477526483995,
0.0513216957605985,0.048791360614024,
0.051371571072319204,0.04455719089204374,
0.0514214463840399,0.02782605373174976,
0.051471321695760595,0.03640936459079916,
0.0515211970074813,-0.01149962961261283,
0.051571072319201994,0.021239710815919844,
0.051620947630922696,0.009985891910668761,
0.05167082294264339,0.01600004619826743,
0.05172069825436409,0.028366215393494112,
0.05177057356608479,0.007597877500175581,
0.051820448877805486,0.036844897047280105,
0.05187032418952618,0.028217194276397718,
0.051920199501246884,0.016654558156599424,
0.05197007481296758,0.025037316855858673,
0.052019950124688276,0.037547713471421565,
0.05206982543640898,0.025412944918195006,
0.052119700748129674,0.0017093071602564507,
0.05216957605985038,-0.0076870476605953135,
0.05221945137157107,0.021929594672878732,
0.05226932668329177,0.013414078644354226,
0.05231920199501247,0.02034160609438626,
0.05236907730673317,0.04482089724068186,
0.05241895261845386,0.024839982414424044,
0.052468827930174565,0.00822989447293108,
0.05251870324189526,0.003564827614188148,
0.05256857855361596,0.02968970418338082,
0.05261845386533666,0.019843189009275865,
0.052668329177057355,0.04303647737883656,
0.05271820448877806,0.01367735041037243,
0.05276807980049875,0.01568964300926322,
0.05281795511221945,0.022746272997731274,
0.05286783042394015,0.027371125419836627,
0.05291770573566085,0.03731412147484659,
0.05296758104738154,0.03567942985112492,
0.053017456359102245,0.011341034938679554,
0.05306733167082294,0.0062483246338693454,
0.053117206982543644,0.04985586454842644,
0.05316708229426434,0.032976943543029616,
0.053216957605985035,0.035754491243328336,
0.05326683291770574,0.00760539678674553,
0.053316708229426434,-0.008674317565447752,
0.05336658354114713,0.0018805936704602254,
0.05341645885286783,0.025106524295211752,
0.05346633416458853,0.011577465590169438,
0.05351620947630923,0.0009414823717968542,
0.053566084788029926,-0.0019026611153900655,
0.05361596009975062,0.02778510358829213,
0.053665835411471324,0.04073915084095235,
0.05371571072319202,-0.0014438582786840681,
0.053765586034912716,0.03632356669606788,
0.05381546134663342,0.047664206875044954,
0.053865336658354114,0.01672116701967308,
0.05391521197007481,0.0163432369889658,
0.05396508728179551,0.02188872315637787,
0.05401496259351621,0.02873523580719034,
0.05406483790523691,0.01834613263367739,
0.054114713216957606,0.026530341581665028,
0.0541645885286783,0.014471037900895553,
0.054214463840399005,0.02271649002277907,
0.0542643391521197,0.0073618254431235194,
0.054314214463840396,0.009631205087353685,
0.0543640897755611,0.02292545125108729,
0.054413965087281795,0.01944057466463674,
0.0544638403990025,0.03805787086390661,
0.05451371571072319,0.04344192212446847,
0.05456359102244389,0.03354674784148303,
0.05461346633416459,0.008486283086477314,
0.05466334164588529,0.004540568872609441,
0.05471321695760598,0.028945258746954847,
0.054763092269326685,0.012387596486712745,
0.05481296758104738,0.03618394753134431,
0.05486284289276808,0.044320066044376,
0.05491271820448878,0.015388524764051371,
0.054962593516209475,-0.00444716736723498,
0.05501246882793018,0.02784923210137407,
0.05506234413965087,0.01356444723046996,
0.05511221945137157,0.030646292013790186,
0.05516209476309227,0.034035830387099356,
0.05521197007481297,0.030784599980058742,
0.05526184538653366,0.019507622810553613,
0.055311720698254366,-0.0026786131218048126,
0.05536159600997506,0.013600484055295892,
0.05541147132169576,0.03307235325835982,
0.05546134663341646,0.0005011356316009415,
0.055511221945137156,0.013691694228121104,
0.05556109725685786,0.021241363469276235,
0.055610972568578554,0.02448973719034747,
0.05566084788029925,-0.01783733009916371,
0.05571072319201995,0.02855261409682135,
0.05576059850374065,-0.00820152215538231,
0.055810473815461344,0.020474972484608528,
0.055860349127182046,0.00688582894408123,
0.05591022443890274,0.007967127700384803,
0.055960099750623445,0.03399865359598986,
0.05600997506234414,0.025489821271801504,
0.056059850374064836,0.022568865628613103,
0.05610972568578554,0.005298052008718511,
0.056159600997506234,0.028227259856967953,
0.05620947630922693,-0.0012392169899008015,
0.05625935162094763,0.03588724747297291,
0.05630922693266833,0.026023882797746714,
0.056359102244389024,0.013512954533016555,
0.05640897755610973,0.015979421133696377,
0.05645885286783042,0.02340261629557,
0.056508728179551125,0.02850004869831543,
0.05655860349127182,0.03495888963425579,
0.056608478802992516,0.01718751912319876,
0.05665835411471322,0.036890618285468475,
0.056708229426433915,0.012887622157170412,
0.05675810473815461,0.01981317583485512,
0.05680798004987531,0.03459067768278133,
0.05685785536159601,0.051545767747293816,
0.05690773067331671,0.011982466256976146,
0.05695760598503741,0.031944220426440365,
0.0570074812967581,0.036499916521496895,
0.057057356608478806,-0.0037818984367301803,
0.0571072319201995,0.008594889633798184,
0.0571571072319202,0.007419973497416316,
0.0572069825436409,0.015750368772968936,
0.057256857855361595,0.0055144483263373295,
0.05730673316708229,0.005135401577389608,
0.057356608478802994,0.02014562413924098,
0.05740648379052369,0.03094430076950751,
0.05745635910224439,0.012725041071690693,
0.05750623441396509,0.0033684551520358277,
0.05755610972568578,0.029622207610475217,
0.057605985037406486,0.02218611633205592,
0.05765586034912718,0.007919886618633356,
0.05770573566084788,-0.02228399147718201,
0.05775561097256858,0.018350631304453833,
0.057805486284289276,0.03352128996122278,
0.05785536159600998,0.023789595127853273,
0.057905236907730674,0.005211750729301761,
0.05795511221945137,-0.004417420152107478,
0.05800498753117207,-0.002697297803453661,
0.05805486284289277,0.006634336241192002,
0.058104738154613464,-0.014173256116340882,
0.05815461346633417,-0.007390000792412879,
0.05820448877805486,0.023194599454297513,
0.05825436408977556,0.020572764096670464,
0.05830423940149626,0.03891975529643366,
0.058354114713216956,0.002967473214532887,
0.05840399002493766,0.014197428678681241,
0.058453865336658355,0.014572932624423413,
0.05850374064837905,0.005510173863233121,
0.05855361596009975,0.006626474797935079,
0.05860349127182045,0.00017738013297079278,
0.058653366583541144,0.00883352222900782,
0.05870324189526185,-0.016824615964121107,
0.05875311720698254,-0.008425361683395896,
0.05880299251870324,0.012730523385302948,
0.05885286783042394,0.013445322943543675,
0.05890274314214464,0.027110471248369423,
0.05895261845386534,0.014818829560547031,
0.059002493765586035,-0.018190791576136758,
0.05905236907730673,-0.013330550787099611,
0.059102244389027433,-0.006047569817131872,
0.05915211970074813,-0.014708756407602828,
0.059201995012468825,0.014547891338410458,
0.05925187032418953,-0.013337249452925882,
0.05930174563591022,-0.005038181033195798,
0.059351620947630926,0.018468573428617845,
0.05940149625935162,0.0033769833259487273,
0.05945137157107232,-0.03176389852659087,
0.05950124688279302,-0.01900518900270912,
0.059551122194513716,-0.00011308338481163475,
0.05960099750623441,0.0028037120002939427,
0.059650872817955114,-0.0021209693814457278,
0.05970074812967581,-0.021028557624110097,
0.059750623441396505,-0.017330373974637048,
0.05980049875311721,-0.02070962073526899,
0.059850374064837904,-0.02520414365894591,
0.059900249376558606,-0.00804673269786911,
0.0599501246882793,0.01663735569833595,
0.06,-0.013950140536241088,
0.0600498753117207,-0.012560813393056668,
0.060099750623441396,-0.021147935422459335,
0.06014962593516209,-0.011002370293040877,
0.060199501246882794,0.0032945922758429577,
0.06024937655860349,-0.01612665831235407,
0.06029925187032419,-6.108321216156433e-06,
0.06034912718204489,-0.0068434289733057705,
0.060399002493765584,-0.012931102554709303,
0.06044887780548629,0.00038643398728723834,
0.06049875311720698,-0.015349627326822496,
0.06054862842892768,-0.0014340429656592452,
0.06059850374064838,0.001084720270673259,
0.06064837905236908,-0.02880064878506569,
0.06069825436408977,0.011912756648396174,
0.060748129675810475,-0.018736665203967287,
0.06079800498753117,-0.009694941016096787,
0.06084788029925187,-0.012591973814284329,
0.06089775561097257,-0.013160724668449163,
0.060947630922693265,-0.012834000525842923,
0.06099750623441397,-0.008632979381290345,
0.06104738154613466,-0.002952070434712413,
0.06109725685785536,0.010662666884415199,
0.06114713216957606,-0.02099926560726319,
0.06119700748129676,-0.009793149046028413,
0.06124688279301746,-0.01589694813575571,
0.061296758104738155,-0.006649779959606051,
0.06134663341645885,-0.021554999287863814,
0.061396508728179554,-0.022301137631965416,
0.06144638403990025,-0.0376677879023278,
0.061496259351620945,-0.01721511933002655,
0.06154613466334165,0.010192811786579077,
0.061596009975062344,0.009861604624099247,
0.06164588528678304,-0.029142859862252804,
0.06169576059850374,-0.02692700359962171,
0.06174563591022444,-0.011976923798143314,
0.06179551122194514,-0.014741747437122144,
0.061845386533665836,-0.009086449651937365,
0.06189526184538653,-0.0012325528826856724,
0.061945137157107234,-0.000965955941412704,
0.06199501246882793,-0.008174211264416018,
0.062044887780548626,-1.0959446661360298e-05,
0.06209476309226933,0.002447063164838092,
0.062144638403990024,-0.02147236188145322,
0.06219451371571072,-0.022012362643852805,
0.06224438902743142,-0.01590215118535793,
0.06229426433915212,-0.0007635842006429791,
0.06234413965087282,-0.027048041940688876,
0.062394014962593516,-0.028285744632248887,
0.06244389027431421,-0.026488231658867146,
0.062493765586034915,-0.0366868736733814,
0.06254364089775562,0.019431857900597763,
0.06259351620947631,-0.0006011159977185113,
0.06264339152119701,-0.019816148341947528,
0.0626932668329177,-0.01153320430092946,
0.0627431421446384,-0.018328954037269203,
0.0627930174563591,-0.03334896445224331,
0.0628428927680798,0.0049636432866285145,
0.0628927680798005,-0.017729078853842055,
0.0629426433915212,-0.0147912373798316,
0.06299251870324189,-0.017214699601595808,
0.06304239401496259,-0.027390730771036386,
0.0630922693266833,-0.015218037312077704,
0.063142144638404,-0.005425312098222905,
0.06319201995012469,-0.022522964764992805,
0.06324189526184539,-0.022868444033571803,
0.06329177057356608,0.0066664092468321536,
0.06334164588528678,-0.02564658134904562,
0.06339152119700749,-0.02570002656152074,
0.06344139650872818,-0.004788200854715088,
0.06349127182044888,-0.02454318073991729,
0.06354114713216957,-0.006150103684681888,
0.06359102244389027,0.006958546375257838,
0.06364089775561098,-0.008745762009143392,
0.06369077306733167,0.0036061538693286863,
0.06374064837905237,0.006186174648575739,
0.06379052369077307,-0.007215233284132851,
0.06384039900249376,-0.0036482467097836077,
0.06389027431421446,-0.015610370980947082,
0.06394014962593517,-0.017903088771739246,
0.06399002493765586,-0.034459170832252924,
0.06403990024937656,-0.008539059371465884,
0.06408977556109725,-0.0007422214188971057,
0.06413965087281795,-0.014730888881638803,
0.06418952618453866,-0.005491020206994272,
0.06423940149625935,-0.016666769515502014,
0.06428927680798005,-0.0470683728964045,
0.06433915211970075,-0.024224158307422458,
0.06438902743142144,-0.03579170795973496,
0.06443890274314215,-0.012600747213719697,
0.06448877805486285,-0.011739060801525205,
0.06453865336658354,-0.011613020740502088,
0.06458852867830424,0.007301754909444562,
0.06463840399002493,0.00014608004422638106,
0.06468827930174563,-0.030765884411214566,
0.06473815461346634,-0.007065261963220528,
0.06478802992518704,0.013453835670608674,
0.06483790523690773,-0.02407012904247728,
0.06488778054862843,-0.0008922495538781806,
0.06493765586034912,-0.018122593791645224,
0.06498753117206983,-0.026479417761203262,
0.06503740648379053,-0.015348215491595783,
0.06508728179551122,-0.02544484671581801,
0.06513715710723192,0.007389063434165961,
0.06518703241895261,-0.004102028383960017,
0.06523690773067331,0.002581168339778582,
0.06528678304239402,-0.023586988165187867,
0.06533665835411472,-0.03745460899576615,
0.06538653366583541,-0.005094449081611763,
0.06543640897755611,-0.0012149662854052824,
0.0654862842892768,-0.013594826343834777,
0.06553615960099751,-0.026604082961185126,
0.06558603491271821,-0.030128353065347953,
0.0656359102244389,-0.03578979930684931,
0.0656857855361596,-0.019521998721518146,
0.0657356608478803,-0.017719447091716075,
0.06578553615960099,0.0008799869805867881,
0.0658354114713217,-0.0166388220395549,
0.0658852867830424,-0.0069831411719319565,
0.06593516209476309,0.015443623007151285,
0.06598503740648379,-0.007438541815532777,
0.06603491271820448,-0.005637335172589955,
0.06608478802992519,-0.013014399278357635,
0.06613466334164589,0.005389602558274059,
0.06618453865336658,-0.006261501186056737,
0.06623441396508728,-0.007312692709605382,
0.06628428927680798,-0.03280060035098245,
0.06633416458852869,0.0016078941011102568,
0.06638403990024938,-0.011954134052095859,
0.06643391521197008,0.002784655012506674,
0.06648379052369077,0.023554243547487988,
0.06653366583541147,0.0032165745961507744,
0.06658354114713216,0.006837258616587779,
0.06663341645885287,0.0029748482985596835,
0.06668329177057357,-0.012136946302580422,
0.06673316708229426,0.004289682225664995,
0.06678304239401496,0.009670121210123572,
0.06683291770573566,-0.016775046942946525,
0.06688279301745637,-0.010622544094968437,
0.06693266832917706,-0.009821414741512805,
0.06698254364089776,0.005963780293110231,
0.06703241895261845,-0.01608217193634426,
0.06708229426433915,-0.007925257360702962,
0.06713216957605984,0.0025669208934501475,
0.06718204488778055,-0.008647709953650905,
0.06723192019950125,0.0213864851305377,
0.06728179551122195,-0.02048180868440757,
0.06733167082294264,-0.012742124613652397,
0.06738154613466334,0.0042106207885721945,
0.06743142144638405,-0.03448803568690352,
0.06748129675810474,-0.000789158309922734,
0.06753117206982544,-0.007673225882217832,
0.06758104738154613,0.01312897954877747,
0.06763092269326683,0.008207518567059053,
0.06768079800498752,0.0046789531958182015,
0.06773067331670823,0.014947863657431906,
0.06778054862842893,0.00808925036077466,
0.06783042394014963,0.013075522570592465,
0.06788029925187032,-0.00745028329234341,
0.06793017456359102,0.021132530074557843,
0.06798004987531173,-0.0016411618912965352,
0.06802992518703242,-0.0031742723204622215,
0.06807980049875312,0.023917985658066503,
0.06812967581047381,0.007797722176961176,
0.06817955112219451,0.00290528528608894,
0.0682294264339152,-0.02480980858792227,
0.06827930174563591,-0.040087394203632304,
0.06832917705735661,-0.013812326288757601,
0.0683790523690773,0.02769257943004086,
0.068428927680798,-0.003991363647098716,
0.0684788029925187,-0.01025631536756472,
0.06852867830423941,-0.012119784819099911,
0.0685785536159601,0.00517242631082237,
0.0686284289276808,-0.02270833322183656,
0.0686783042394015,-0.020928795502536877,
0.06872817955112219,0.012164612048960983,
0.0687780548628429,-0.016673456812677605,
0.0688279301745636,0.006390752937104067,
0.06887780548628429,0.011527244956080247,
0.06892768079800499,0.02678188531597608,
0.06897755610972568,-0.004511823886822664,
0.06902743142144638,-0.002802263177751339,
0.06907730673316709,0.010793316133722159,
0.06912718204488778,0.02391289573992921,
0.06917705735660848,0.016085646132442483,
0.06922693266832917,0.009113919679763797,
0.06927680798004987,0.0034442266110952186,
0.06932668329177058,-0.004599382330689891,
0.06937655860349128,0.021190857574726808,
0.06942643391521197,-0.003562428853454584,
0.06947630922693267,0.052645092568632146,
0.06952618453865336,0.00381362590352694,
0.06957605985037406,0.015888054520167123,
0.06962593516209477,-0.010387383672676187,
0.06967581047381546,0.006951563294018358,
0.06972568578553616,0.01658594902683502,
0.06977556109725686,0.013400951484417861,
0.06982543640897755,-0.0012288610891744486,
0.06987531172069826,0.01449094536747621,
0.06992518703241896,0.02178915824630337,
0.06997506234413965,0.013293076113081885,
0.07002493765586035,0.01781047967090246,
0.07007481296758104,0.0388675457300081,
0.07012468827930174,0.01989746624727492,
0.07017456359102245,0.0009696195261319832,
0.07022443890274314,0.026202533485159968,
0.07027431421446384,0.026071146362563184,
0.07032418952618454,0.012591219568545912,
0.07037406483790523,0.0012807403919643506,
0.07042394014962594,0.016401715650797136,
0.07047381546134664,-0.014389514885729857,
0.07052369077306733,0.023204169569942215,
0.07057356608478803,0.03199184416443272,
0.07062344139650872,0.019105968290391732,
0.07067331670822943,0.015470226994020533,
0.07072319201995013,0.019673735144997557,
0.07077306733167082,0.018241841027729164,
0.07082294264339152,0.01767430678879232,
0.07087281795511222,0.025976842409225303,
0.07092269326683291,0.036273448399703756,
0.07097256857855362,0.037385361678657546,
0.07102244389027432,0.0592083058691062,
0.07107231920199501,0.017270501515503408,
0.07112219451371571,0.03016264316669164,
0.0711720698254364,-0.01038850214284202,
0.07122194513715711,0.011703381055590158,
0.07127182044887781,-0.008940873369555916,
0.0713216957605985,0.012390472303483897,
0.0713715710723192,0.008522327077558857,
0.0714214463840399,0.03471973136587619,
0.07147132169576059,0.02815364538525942,
0.0715211970074813,0.019368130699833806,
0.071571072319202,0.02874544578808045,
0.0716209476309227,0.012340482047899759,
0.07167082294264339,0.02644298750729657,
0.07172069825436408,0.0017922114557731537,
0.0717705735660848,0.04266967131648938,
0.07182044887780549,0.033161063160674756,
0.07187032418952619,0.020672498922440337,
0.07192019950124688,0.0518840315643362,
0.07197007481296758,0.03310187439888908,
0.07201995012468827,0.020377638885881757,
0.07206982543640898,0.024095641702680148,
0.07211970074812968,0.03202058747039237,
0.07216957605985037,0.04430564768917047,
0.07221945137157107,0.04289328039223307,
0.07226932668329177,0.015288085429147155,
0.07231920199501247,0.01925076853894152,
0.07236907730673317,0.011695765338958901,
0.07241895261845387,0.018641153120369753,
0.07246882793017456,0.003500735385894335,
0.07251870324189526,0.02808364046456768,
0.07256857855361595,0.015972206516862687,
0.07261845386533666,0.0503244257569064,
0.07266832917705736,0.03215092627407309,
0.07271820448877805,0.009638387054739982,
0.07276807980049875,0.03889580994175899,
0.07281795511221945,0.034580742372788645,
0.07286783042394016,0.005302125380822188,
0.07291770573566085,0.026891730194969356,
0.07296758104738155,0.028865792078543055,
0.07301745635910224,0.037928504023784226,
0.07306733167082294,0.03460966438900125,
0.07311720698254365,-0.004267595814107936,
0.07316708229426434,0.027281539274660788,
0.07321695760598504,0.03525123625869388,
0.07326683291770573,0.03500117386495563,
0.07331670822942643,0.013010614700025938,
0.07336658354114713,0.019682931242508427,
0.07341645885286784,0.026914410326618437,
0.07346633416458853,0.038023469322508184,
0.07351620947630923,0.026940834883348908,
0.07356608478802992,0.028572850270828364,
0.07361596009975062,0.03823390832153099,
0.07366583541147133,0.057823959614547046,
0.07371571072319202,0.03940525298042462,
0.07376558603491272,0.050833084020494815,
0.07381546134663342,0.021362817711811255,
0.07386533665835411,0.03474111211196549,
0.0739152119700748,0.005226203866908908,
0.07396508728179552,0.023192219833975715,
0.07401496259351621,0.018511048798829394,
0.07406483790523691,0.018254048624414293,
0.0741147132169576,0.006906759982695573,
0.0741645885286783,0.06687183498487026,
0.07421446384039901,0.027114378657788124,
0.0742643391521197,0.014016181489944175,
0.0743142144638404,0.0329749092005127,
0.0743640897755611,0.013632056122649285,
0.07441396508728179,0.001958161437269134,
0.07446384039900249,0.02159906776747302,
0.0745137157107232,0.023039311448564647,
0.07456359102244389,0.015770996119114342,
0.07461346633416459,0.027393974899405593,
0.07466334164588528,0.041838389487225264,
0.07471321695760598,0.027882536891703842,
0.07476309226932669,0.016194546267802153,
0.07481296758104738,0.023782190718899067,
0.07486284289276808,0.029853994748704527,
0.07491271820448878,0.028041008752396974,
0.07496259351620947,0.03036704068591947,
0.07501246882793017,0.04147420396304004,
0.07506234413965088,0.016274199656289207,
0.07511221945137157,0.03248454707789597,
0.07516209476309227,0.011111946287265898,
0.07521197007481296,0.033649981236125975,
0.07526184538653366,0.014119715099943142,
0.07531172069825437,0.02635553923387768,
0.07536159600997507,0.0388192883919881,
0.07541147132169576,0.01725940969997588,
0.07546134663341646,0.010926488611191238,
0.07551122194513715,0.031356374658795025,
0.07556109725685786,0.027584066386236877,
0.07561097256857856,0.009966663235246791,
0.07566084788029925,0.02861299291872566,
0.07571072319201995,0.01509758476701064,
0.07576059850374064,-0.0014001904130343835,
0.07581047381546134,0.01675548512167596,
0.07586034912718205,0.012017761083840263,
0.07591022443890275,0.03906709872971122,
0.07596009975062344,-0.00026372655497054406,
0.07600997506234414,0.04262637814151363,
0.07605985037406483,0.030185478857743094,
0.07610972568578554,-0.0016749684190567361,
0.07615960099750624,0.014652551824475665,
0.07620947630922693,0.009487040593257983,
0.07625935162094763,-0.0016709805586887366,
0.07630922693266833,0.035577424338176546,
0.07635910224438902,0.0037433880415031137,
0.07640897755610973,0.02741748132196331,
0.07645885286783043,0.02590722539792224,
0.07650872817955112,0.011606513540011949,
0.07655860349127182,0.01885055128055407,
0.07660847880299251,-0.006486741461973682,
0.07665835411471322,0.009732463672921986,
0.07670822942643392,0.013972792493955366,
0.07675810473815461,0.03800866965248556,
0.07680798004987531,-0.003942660505150117,
0.076857855361596,0.02490653725733554,
0.0769077306733167,0.018298864485120404,
0.07695760598503741,-4.76882739479708e-05,
0.0770074812967581,0.027541167539591106,
0.0770573566084788,0.01575338118950814,
0.0771072319201995,0.010357958042569759,
0.0771571072319202,0.0007969030412374942,
0.0772069825436409,0.006770807288682107,
0.0772568578553616,0.030869445976348237,
0.0773067331670823,0.039753210904971095,
0.07735660847880299,0.02927170080404886,
0.07740648379052369,0.009159507441524356,
0.0774563591022444,0.026363999740979145,
0.07750623441396509,0.008372366013467141,
0.07755610972568579,0.009405393915876668,
0.07760598503740648,0.009689040562561375,
0.07765586034912718,0.013319232839704554,
0.07770573566084787,0.034102232018338036,
0.07775561097256858,-0.012066757929218824,
0.07780548628428928,0.005511584674366078,
0.07785536159600998,-0.0023560831146846907,
0.07790523690773067,0.01938982792256297,
0.07795511221945137,-0.0038814541044496845,
0.07800498753117208,-0.037480170690804754,
0.07805486284289277,-0.004536257147654692,
0.07810473815461347,0.023766098693442345,
0.07815461346633416,0.0008908865813687921,
0.07820448877805486,0.0020937156915721497,
0.07825436408977555,0.01610633585423607,
0.07830423940149626,0.013983363077179723,
0.07835411471321696,0.002195753015436788,
0.07840399002493766,-0.010757626046658149,
0.07845386533665835,0.004903965954068309,
0.07850374064837905,0.012312841408655587,
0.07855361596009976,0.015584325323753187,
0.07860349127182045,0.01907785409288781,
0.07865336658354115,0.00867227852815637,
0.07870324189526184,-0.016713458217614906,
0.07875311720698254,-0.007694644289281858,
0.07880299251870324,-0.029861561573459896,
0.07885286783042394,-0.0030425986407485815,
0.07890274314214464,0.003550385504109208,
0.07895261845386534,0.005922055529142107,
0.07900249376558603,0.0033980417163021357,
0.07905236907730673,0.006185491188591378,
0.07910224438902744,-0.009899388960675585,
0.07915211970074813,0.011421079192006977,
0.07920199501246883,-0.00344484465806755,
0.07925187032418952,0.007710786639655063,
0.07930174563591022,-0.0016156961570720448,
0.07935162094763092,0.011941109303138093,
0.07940149625935163,-0.02167092233373024,
0.07945137157107232,-0.006198239375846664,
0.07950124688279302,-0.012275939963975958,
0.07955112219451371,-0.002828464055523807,
0.07960099750623441,0.004455569345921761,
0.07965087281795512,-0.009050448900520128,
0.07970074812967581,0.01323701485316222,
0.07975062344139651,0.027399111830001505,
0.0798004987531172,-0.02226102942701138,
0.0798503740648379,-0.00017160162138316927,
0.07990024937655861,0.011032050754877587,
0.0799501246882793,-0.013859741759026527,
0.08,-0.007482503704886166,
0.0800498753117207,-0.006649757475259807,
0.0800997506234414,-0.010012572970592187,
0.08014962593516209,0.007786806245919728,
0.0801995012468828,0.014095013913277558,
0.0802493765586035,-0.009573627482185095,
0.08029925187032419,-0.010690073533876906,
0.08034912718204489,-0.0217372672148875,
0.08039900249376558,-0.00462587431088278,
0.08044887780548629,-0.032950831551915805,
0.08049875311720699,-0.030022586648771044,
0.08054862842892768,0.01411223427969713,
0.08059850374064838,-0.012300662761809182,
0.08064837905236907,-0.029167789180640377,
0.08069825436408977,0.013306716634135678,
0.08074812967581048,-0.01869453599063226,
0.08079800498753117,-0.02178565702644325,
0.08084788029925187,-0.030970800862626588,
0.08089775561097257,-0.0378732294327537,
0.08094763092269326,-0.0043519897366199115,
0.08099750623441397,-0.02426076901400921,
0.08104738154613467,-0.030794285702241853,
0.08109725685785536,0.008281601413445156,
0.08114713216957606,-0.038703791100707555,
0.08119700748129675,-0.006147570608689611,
0.08124688279301745,-0.037764515388598346,
0.08129675810473816,-0.006320358276073154,
0.08134663341645886,0.011177123120350633,
0.08139650872817955,0.002687169361161366,
0.08144638403990025,-0.010986950878293673,
0.08149625935162094,-0.04381427836288394,
0.08154613466334165,-0.0060548664446436595,
0.08159600997506235,0.00018867985003596065,
0.08164588528678304,0.022497376260542653,
0.08169576059850374,-0.0004341195877919594,
0.08174563591022443,0.009991127810423881,
0.08179551122194513,0.0030727481787779995,
0.08184538653366584,-0.004490621961625781,
0.08189526184538654,-0.009492240120049818,
0.08194513715710723,-0.01732281644112189,
0.08199501246882793,-0.023696982244827754,
0.08204488778054862,-0.033075072009560225,
0.08209476309226933,-0.01176721292886175,
0.08214463840399003,-0.022967832999235917,
0.08219451371571072,-0.014610988897445852,
0.08224438902743142,-0.005251161043642893,
0.08229426433915212,-0.027055991591049988,
0.08234413965087282,-0.04434025483620203,
0.08239401496259352,-0.0021379039383907974,
0.08244389027431422,-0.03037466993270255,
0.08249376558603491,-0.011226647571931751,
0.08254364089775561,0.01547699953126317,
0.0825935162094763,-0.04180346821386727,
0.08264339152119701,-0.015353734452953568,
0.08269326683291771,-0.018830176707980692,
0.0827431421446384,-0.02128125007099145,
0.0827930174563591,-0.0025695938538737376,
0.0828428927680798,-0.025626835746982136,
0.0828927680798005,-0.021188705652954706,
0.0829426433915212,-0.01657561287488379,
0.0829925187032419,-0.00704437876721093,
0.08304239401496259,-0.012723613366287667,
0.08309226932668329,-0.0009064916758191616,
0.08314214463840398,-0.0018007535027078463,
0.0831920199501247,-0.015273588684878573,
0.08324189526184539,-0.02335020120395117,
0.08329177057356608,-0.03062676767315062,
0.08334164588528678,-0.009560587578852968,
0.08339152119700748,-0.01802909372817929,
0.08344139650872819,0.010532459431074389,
0.08349127182044888,-0.00017510230198029136,
0.08354114713216958,-0.023367680463940645,
0.08359102244389027,-0.0037522534624750883,
0.08364089775561097,-0.011580347340536267,
0.08369077306733166,-0.007684199899195975,
0.08374064837905237,-0.015521835854688183,
0.08379052369077307,0.015774055396225343,
0.08384039900249377,-0.02546625291603484,
0.08389027431421446,-0.005562666554120091,
0.08394014962593516,-0.02048074200835988,
0.08399002493765587,0.0004507690286653515,
0.08403990024937656,-0.01564434843321221,
0.08408977556109726,-0.014095750293189196,
0.08413965087281795,-0.04792011848564384,
0.08418952618453865,-0.04445057520061011,
0.08423940149625936,0.002435764384248789,
0.08428927680798005,-0.026105922784997196,
0.08433915211970075,-0.04130766700862891,
0.08438902743142145,-0.016820699652008185,
0.08443890274314214,-0.018827299589069972,
0.08448877805486284,-0.014280705225319766,
0.08453865336658355,0.01000877624411022,
0.08458852867830424,0.018572148214389763,
0.08463840399002494,-0.009566570270549092,
0.08468827930174563,0.007554255309355284,
0.08473815461346633,-0.020944784469573655,
0.08478802992518704,0.001347909229470862,
0.08483790523690773,-0.005102301942447791,
0.08488778054862843,9.579364062369151e-05,
0.08493765586034913,-0.027024268991730008,
0.08498753117206982,0.012433041536770311,
0.08503740648379052,-0.012981100981882274,
0.08508728179551123,-0.018090066179972802,
0.08513715710723192,-0.004791683509910685,
0.08518703241895262,-0.006531139276510203,
0.08523690773067331,-0.019473952935708666,
0.08528678304239401,0.000826423191892179,
0.08533665835411472,-0.006913003616452624,
0.08538653366583542,0.0028472746515769403,
0.08543640897755611,-0.013147220033920652,
0.0854862842892768,0.003031909678426951,
0.0855361596009975,0.011719922667950954,
0.0855860349127182,-0.013363903657684358,
0.08563591022443891,-0.015256048971071117,
0.0856857855361596,-0.012661830769242918,
0.0857356608478803,0.001886372702600293,
0.085785536159601,-0.009232133133687658,
0.08583541147132169,-0.02017619646662845,
0.0858852867830424,0.03364432872139622,
0.0859351620947631,0.005525972993804845,
0.08598503740648379,-0.02004662686488231,
0.08603491271820449,-0.015019391089265253,
0.08608478802992518,-0.0015811919658824947,
0.08613466334164588,-0.03120759001189364,
0.08618453865336659,-0.0011734053637751972,
0.08623441396508728,-0.019644914299221248,
0.08628428927680798,-0.015862054602012142,
0.08633416458852868,-0.004802019133089801,
0.08638403990024937,0.009443731647009608,
0.08643391521197008,-0.018123761276994294,
0.08648379052369078,-0.005038681485682566,
0.08653366583541147,-0.015539564213454194,
0.08658354114713217,0.007507055419158951,
0.08663341645885286,0.039231609878517634,
0.08668329177057357,-0.011603624260450956,
0.08673316708229427,0.0005252736568807396,
0.08678304239401496,-0.017350494422249833,
0.08683291770573566,0.01576846008265686,
0.08688279301745636,-0.0025247021883119205,
0.08693266832917705,-0.021790569428758552,
0.08698254364089776,-0.00342143283361348,
0.08703241895261846,-0.028486621078055954,
0.08708229426433915,-0.021356081921949596,
0.08713216957605985,0.005160009128149645,
0.08718204488778054,-0.008965840529847273,
0.08723192019950125,-0.013124062813115499,
0.08728179551122195,0.02105381109516598,
0.08733167082294264,0.02170971924504789,
0.08738154613466334,-0.003183034028139984,
0.08743142144638404,-0.005135843460309583,
0.08748129675810473,-0.004549107747295421,
0.08753117206982544,-0.009553504326434887,
0.08758104738154614,-0.021285459024543558,
0.08763092269326683,0.02548433202244483,
0.08768079800498753,0.009021603617034066,
0.08773067331670822,-0.009379275440537817,
0.08778054862842893,0.010266390555808486,
0.08783042394014963,-0.0073492324988172295,
0.08788029925187033,-0.010540296147550223,
0.08793017456359102,-0.00412805502046024,
0.08798004987531172,0.010395969657196753,
0.08802992518703241,-0.030176100673836147,
0.08807980049875312,0.014523898820099898,
0.08812967581047382,-0.02317553482152965,
0.08817955112219451,0.014248727678957681,
0.08822942643391521,0.02019382981510301,
0.0882793017456359,-0.018346463397200002,
0.08832917705735661,0.011559528458467963,
0.08837905236907731,0.0011359938967351723,
0.088428927680798,-0.010714808381451606,
0.0884788029925187,-0.008822579344975094,
0.0885286783042394,0.024095304508652514,
0.0885785536159601,0.002579294541846952,
0.0886284289276808,0.004408949247751911,
0.0886783042394015,0.010361533478858206,
0.0887281795511222,-0.00018874234503420302,
0.08877805486284289,0.009453854802209808,
0.08882793017456359,0.018357384102275213,
0.0888778054862843,0.017062287802699517,
0.08892768079800499,0.00840926654360282,
0.08897755610972569,-0.018376104867112178,
0.08902743142144638,0.03540306629278728,
0.08907730673316708,-0.0042687118181521135,
0.08912718204488779,-0.01690883800055269,
0.08917705735660848,0.005767036694808358,
0.08922693266832918,0.008883189203157563,
0.08927680798004987,-0.015714379093943298,
0.08932668329177057,0.04040458166389321,
0.08937655860349127,0.03052441533029472,
0.08942643391521198,0.014585559192492164,
0.08947630922693267,0.011775502684826305,
0.08952618453865337,0.005068473793124535,
0.08957605985037406,0.011850890207546786,
0.08962593516209476,-0.009929234567820414,
0.08967581047381547,-0.008238383646202354,
0.08972568578553616,-0.0035005193387131327,
0.08977556109725686,0.02089306277171655,
0.08982543640897755,0.0126765976907749,
0.08987531172069825,0.021829045975007334,
0.08992518703241895,0.003096910622091352,
0.08997506234413966,0.011249917304456524,
0.09002493765586035,0.027455368964999893,
0.09007481296758105,0.026102512758405944,
0.09012468827930174,0.03424285969816049,
0.09017456359102244,0.005813268942952034,
0.09022443890274315,0.0020631220882013253,
0.09027431421446384,-0.004172179131325077,
0.09032418952618454,0.01731189878475247,
0.09037406483790524,0.028195996820390746,
0.09042394014962593,-0.004071598890258061,
0.09047381546134663,0.04405322854544776,
0.09052369077306734,0.023051285172999092,
0.09057356608478803,0.006645891808134012,
0.09062344139650873,0.025743892077336367,
0.09067331670822942,0.006431064142873153,
0.09072319201995012,0.04737857545486266,
0.09077306733167083,-0.00469393489156331,
0.09082294264339152,0.02440302919457189,
0.09087281795511222,0.04671852605934007,
0.09092269326683292,0.029091063045117653,
0.09097256857855361,0.026824682375642072,
0.09102244389027432,0.02555687513275342,
0.09107231920199502,0.024550829435134997,
0.09112219451371571,0.04270589988230924,
0.09117206982543641,0.02381687486391736,
0.0912219451371571,0.017522472990066332,
0.0912718204488778,0.017742897511084602,
0.09132169576059851,0.025577054074978102,
0.0913715710723192,0.03674144239981434,
0.0914214463840399,0.02023399941800169,
0.0914713216957606,0.04117476610481893,
0.09152119700748129,0.023374034325365948,
0.091571072319202,-0.010043018339286898,
0.0916209476309227,0.008474402590163892,
0.09167082294264339,0.0421172867180572,
0.09172069825436409,0.048788304341598906,
0.09177057356608478,0.0037792468073731163,
0.09182044887780548,0.02972182922552101,
0.09187032418952619,0.028975800942566722,
0.09192019950124689,0.0012747520476933116,
0.09197007481296758,0.019882948118532584,
0.09201995012468828,0.013456319948738702,
0.09206982543640897,0.016120254509341764,
0.09211970074812968,0.03843351299585322,
0.09216957605985038,0.0049422496188860215,
0.09221945137157107,0.0472810809428523,
0.09226932668329177,0.027678830534384424,
0.09231920199501246,0.025480153069976665,
0.09236907730673316,0.040201511208238276,
0.09241895261845387,0.031053343624293916,
0.09246882793017457,0.03916635368658307,
0.09251870324189526,0.02481876648941547,
0.09256857855361596,0.040592168142742434,
0.09261845386533665,0.05883673309302271,
0.09266832917705736,0.02516752612662665,
0.09271820448877806,0.03449457064778676,
0.09276807980049875,0.029924155975735913,
0.09281795511221945,0.030160703722922292,
0.09286783042394015,0.022632737767016728,
0.09291770573566084,0.0031232657442512406,
0.09296758104738155,0.03384884425177103,
0.09301745635910225,-0.007904928736514619,
0.09306733167082294,0.02983877917657523,
0.09311720698254364,0.013112872582282416,
0.09316708229426433,0.032173960060992476,
0.09321695760598504,0.01977668721435841,
0.09326683291770574,0.045007940102005595,
0.09331670822942643,0.021671610641959247,
0.09336658354114713,0.009643547660502502,
0.09341645885286783,0.051788865563004785,
0.09346633416458854,0.042070878419251,
0.09351620947630923,0.04046998376087085,
0.09356608478802993,0.05002269413675785,
0.09361596009975062,0.03709401964932769,
0.09366583541147132,0.010515127096793957,
0.09371571072319201,0.03311437560156513,
0.09376558603491272,0.04514700473390808,
0.09381546134663342,0.019398230365642647,
0.09386533665835411,0.023665708464496397,
0.09391521197007481,0.009742393368916732,
0.0939650872817955,0.027221484380769635,
0.09401496259351622,0.009915526017969321,
0.09406483790523691,0.016596390575260064,
0.09411471321695761,0.03795292638589981,
0.0941645885286783,0.008726643829815951,
0.094214463840399,0.040630787685631345,
0.0942643391521197,-0.002176064523490548,
0.0943142144638404,0.02131354101814051,
0.0943640897755611,0.010653551329890631,
0.0944139650872818,0.009107616792145178,
0.09446384039900249,0.030264482172657453,
0.09451371571072319,0.03156759766164071,
0.0945635910224439,0.005167080288635745,
0.09461346633416459,0.03835798617670355,
0.09466334164588529,0.033485842527121494,
0.09471321695760598,0.046587116266499196,
0.09476309226932668,0.048393541103906125,
0.09481296758104737,0.036463066201136575,
0.09486284289276808,0.042024708218715304,
0.09491271820448878,0.023185092016208803,
0.09496259351620948,0.027372168847072602,
0.09501246882793017,0.006357599133570046,
0.09506234413965087,0.019583719997984278,
0.09511221945137158,0.01660997006456829,
0.09516209476309227,0.024986918522956085,
0.09521197007481297,0.007758841755476361,
0.09526184538653366,0.050679609022150005,
0.09531172069825436,0.038158169014159735,
0.09536159600997507,0.022030644333928262,
0.09541147132169576,0.03673859381869196,
0.09546134663341646,0.009882532490894961,
0.09551122194513716,-0.005683323029078084,
0.09556109725685785,0.032986855894639594,
0.09561097256857855,0.029140238819597524,
0.09566084788029926,0.02701727342649181,
0.09571072319201995,0.01212924451968723,
0.09576059850374065,-0.017773631384673933,
0.09581047381546134,0.021426518946454285,
0.09586034912718204,0.03013419512593947,
0.09591022443890275,0.02023266406792815,
0.09596009975062345,0.01200792748575962,
0.09600997506234414,0.014574891272583452,
0.09605985037406484,0.022089456379455724,
0.09610972568578553,0.04202474963678385,
0.09615960099750623,0.05216373524702145,
0.09620947630922694,0.032559060055378994,
0.09625935162094763,0.04852136121501373,
0.09630922693266833,0.023035895927807602,
0.09635910224438902,0.037960278683341446,
0.09640897755610972,0.02743753113138543,
0.09645885286783043,0.02940707417971619,
0.09650872817955113,0.03589654047633174,
0.09655860349127182,0.039460701413344804,
0.09660847880299252,0.030099242541955753,
0.09665835411471321,-0.016346958482940516,
0.09670822942643391,0.010164428131943008,
0.09675810473815462,0.036173203531652647,
0.09680798004987531,-0.015134208155115438,
0.09685785536159601,0.026332086467330686,
0.0969077306733167,0.021643540597734098,
0.0969576059850374,0.010889276852711008,
0.09700748129675811,0.008313192394879633,
0.0970573566084788,-0.012924141474025473,
0.0971072319201995,0.016453943994353296,
0.0971571072319202,0.013244959121056428,
0.0972069825436409,0.0035167392065267016,
0.09725685785536159,-0.01076511081033767,
0.0973067331670823,0.005147515608338192,
0.097356608478803,0.010170540662107293,
0.09740648379052369,0.009263776956737236,
0.09745635910224439,0.016438299641302383,
0.09750623441396508,-0.0061602294231393705,
0.09755610972568579,0.007458665385377662,
0.09760598503740649,-2.0768397978999584e-05,
0.09765586034912718,0.04702509003861659,
0.09770573566084788,0.00536365339047665,
0.09775561097256857,0.049542129529107255,
0.09780548628428928,0.03885709620876071,
0.09785536159600998,0.025927417436038273,
0.09790523690773068,-0.011212075187493528,
0.09795511221945137,0.015977940503238797,
0.09800498753117207,0.024691939685309618,
0.09805486284289276,0.020091302551071867,
0.09810473815461347,0.01098518952916097,
0.09815461346633417,0.005829846444328985,
0.09820448877805486,0.0060092706697138,
0.09825436408977556,0.002191467543440344,
0.09830423940149625,0.02717830625814935,
0.09835411471321696,0.005025981280172873,
0.09840399002493766,-0.01975871743604395,
0.09845386533665836,-0.0037749602991028735,
0.09850374064837905,-0.018275125301438717,
0.09855361596009975,-0.0038297318507160673,
0.09860349127182044,0.013881836724331669,
0.09865336658354115,-0.005458053676810128,
0.09870324189526185,0.006416577029359561,
0.09875311720698254,-0.0064096285141691176,
0.09880299251870324,0.013294692201773333,
0.09885286783042393,0.04088072624628589,
0.09890274314214464,0.005659010195559398,
0.09895261845386534,0.0030965605908325894,
0.09900249376558604,0.03435433472719021,
0.09905236907730673,-0.005002513088609561,
0.09910224438902743,-0.020407710294585185,
0.09915211970074812,-0.006783947182537687,
0.09920199501246883,0.009258073420612547,
0.09925187032418953,-0.006239219120275768,
0.09930174563591022,0.006483630410136475,
0.09935162094763092,0.00963903865737743,
0.09940149625935162,0.010570492640493229,
0.09945137157107233,0.009721534678553289,
0.09950124688279302,-0.02177224864300292,
0.09955112219451372,-0.02491646326113809,
0.09960099750623441,-0.014249787240866355,
0.09965087281795511,0.00968966268857175,
0.0997007481296758,-0.01627469355850951,
0.09975062344139651,-0.013275927920399985,
0.09980049875311721,0.012130861801670256,
0.0998503740648379,0.0024307767292358067,
0.0999002493765586,0.02448996275845982,
0.0999501246882793,0.0065230106769839655,
0.1,-0.0011102186733263106,
0.1000498753117207,0.0042867297970671375,
0.1000997506234414,0.0013359632970243347,
0.10014962593516209,0.0022569234246272267,
0.10019950124688279,-0.000142024921479023,
0.1002493765586035,-0.00786566611082347,
0.1002992518703242,-0.0019166152608053955,
0.10034912718204489,-0.023300748140162822,
0.10039900249376559,-0.01863086662286251,
0.10044887780548628,-0.028545720749758124,
0.10049875311720698,0.006627591108074564,
0.10054862842892769,-0.005721749234296887,
0.10059850374064838,-0.018715809376712307,
0.10064837905236908,0.01012534897140462,
0.10069825436408977,-0.00787090725053637,
0.10074812967581047,-0.001993818531738966,
0.10079800498753118,0.009185486914754747,
0.10084788029925187,0.0034483812408453813,
0.10089775561097257,0.0015108514494700269,
0.10094763092269327,0.023313223667154125,
0.10099750623441396,-0.008870961079859654,
0.10104738154613466,-0.003952948038470933,
0.10109725685785537,-0.015551615965005646,
0.10114713216957606,-0.02470076775497472,
0.10119700748129676,0.016505157810213354,
0.10124688279301745,-0.001495891892684443,
0.10129675810473815,-0.015762611125537198,
0.10134663341645886,-0.0058659750331778795,
0.10139650872817955,-0.018033307826227044,
0.10144638403990025,-0.01709931542569522,
0.10149625935162095,-0.02487620603989349,
0.10154613466334164,-0.01769406495374007,
0.10159600997506234,0.0184268160228564,
0.10164588528678305,-0.05318536289947716,
0.10169576059850374,-0.02870147595024644,
0.10174563591022444,-0.013476759883379067,
0.10179551122194513,-0.02013879385725956,
0.10184538653366583,-0.004633477437213515,
0.10189526184538654,-0.01348508715614829,
0.10194513715710724,-0.015385303233304287,
0.10199501246882793,-0.010508605989208181,
0.10204488778054863,-0.028368651694367353,
0.10209476309226932,-0.009289242283477854,
0.10214463840399003,0.0031306107065443307,
0.10219451371571073,-0.02416058066704295,
0.10224438902743142,0.009238791706948517,
0.10229426433915212,-0.021786292371444988,
0.10234413965087281,0.009539377935073444,
0.10239401496259351,0.008549877125120824,
0.10244389027431422,0.010763394270152854,
0.10249376558603492,-0.0117518639682427,
0.10254364089775561,-0.006296353178983656,
0.10259351620947631,-0.021817199363577552,
0.102643391521197,-0.021863854930249414,
0.10269326683291771,0.002117553290427822,
0.10274314214463841,-0.025874345151843156,
0.1027930174563591,-0.03417522726145182,
0.1028428927680798,-0.011989550979829806,
0.1028927680798005,0.0070647305669129835,
0.10294264339152119,-0.0031199227312922184,
0.1029925187032419,-0.01749991800707918,
0.1030423940149626,0.0071498283385816805,
0.10309226932668329,-0.0134340342022187,
0.10314214463840399,0.02131591301079052,
0.10319201995012468,-0.015025657215427597,
0.10324189526184539,-0.019669733769544073,
0.10329177057356609,0.008334838302491765,
0.10334164588528678,-0.022912255701822183,
0.10339152119700748,-0.012424133740659708,
0.10344139650872818,-0.042026057979255974,
0.10349127182044887,-0.012322767116233528,
0.10354114713216958,-0.018239281371510794,
0.10359102244389028,-0.025408144190515312,
0.10364089775561097,-0.019872576109281927,
0.10369077306733167,-0.005048482170451139,
0.10374064837905236,-0.025718069786758765,
0.10379052369077307,-0.019545792196082244,
0.10384039900249377,0.0015885437383534266,
0.10389027431421446,-0.004560129615488942,
0.10394014962593516,-0.029212296494478276,
0.10399002493765586,3.6989914891892572e-06,
0.10403990024937655,-0.02321826655971542,
0.10408977556109726,-0.033013158131350584,
0.10413965087281796,-0.008802825174337869,
0.10418952618453865,-0.021833000887470345,
0.10423940149625935,-0.01539579684976263,
0.10428927680798004,-0.01837935275946046,
0.10433915211970075,0.01245560371889795,
0.10438902743142145,-0.01920192952520893,
0.10443890274314215,-0.011377366886272295,
0.10448877805486284,0.016502894407369316,
0.10453865336658354,-0.05265273852888459,
0.10458852867830425,-0.016085700721225955,
0.10463840399002494,-0.011667777888417039,
0.10468827930174564,0.01829511637193868,
0.10473815461346633,-0.008707173642474952,
0.10478802992518703,-0.016667036797282406,
0.10483790523690772,-0.017410857916464812,
0.10488778054862843,-0.0024964180042403965,
0.10493765586034913,-0.022863645256969885,
0.10498753117206983,-0.004200146437121065,
0.10503740648379052,-0.016219214283375256,
0.10508728179551122,-0.008863306672994673,
0.10513715710723193,-0.027066024201252564,
0.10518703241895262,0.015833084719514556,
0.10523690773067332,-0.018485864169503572,
0.10528678304239401,0.006144567732886633,
0.10533665835411471,-0.010712227158870807,
0.1053865336658354,0.014440586276000096,
0.10543640897755611,-0.030789179957933958,
0.10548628428927681,-0.0006368380649848524,
0.1055361596009975,0.010361026568465949,
0.1055860349127182,-0.024119889317104175,
0.1056359102244389,0.012331636531584353,
0.10568578553615961,-0.014297133216477374,
0.1057356608478803,-0.01668468779654429,
0.105785536159601,0.010258311783013388,
0.1058354114713217,0.005935340721065248,
0.10588528678304239,-0.01651179660664337,
0.10593516209476309,0.0016573194161583482,
0.1059850374064838,0.000133432661140717,
0.10603491271820449,-0.021128058086046758,
0.10608478802992519,-0.017391497428836174,
0.10613466334164588,-0.006091989536179443,
0.10618453865336658,0.013395299533335483,
0.10623441396508729,-0.01685436567298223,
0.10628428927680798,-0.016856927593694362,
0.10633416458852868,-0.004042506604896708,
0.10638403990024937,-0.030146555081035236,
0.10643391521197007,-0.020327216142679877,
0.10648379052369077,-0.01716652889877067,
0.10653366583541148,0.001000658276640175,
0.10658354114713217,-0.02996824251816163,
0.10663341645885287,0.010294638235049508,
0.10668329177057356,0.019298283910364315,
0.10673316708229426,0.022709689940957047,
0.10678304239401497,-0.014838677392072468,
0.10683291770573566,-0.026241770179687988,
0.10688279301745636,0.0041731037083182435,
0.10693266832917706,0.014612982251150883,
0.10698254364089775,0.004359175276888478,
0.10703241895261846,-0.007632876171631082,
0.10708229426433916,-0.007545784685897933,
0.10713216957605985,-7.077638285490003e-05,
0.10718204488778055,0.008982235236733242,
0.10723192019950124,0.0018627197505841787,
0.10728179551122194,0.001214689522478983,
0.10733167082294265,0.00033974928391844635,
0.10738154613466334,0.010299049074825407,
0.10743142144638404,0.014056578233233627,
0.10748129675810474,0.01773597883007186,
0.10753117206982543,0.028007821256549964,
0.10758104738154614,0.025705468860043993,
0.10763092269326684,0.012756805749769829,
0.10768079800498753,0.009308242855066472,
0.10773067331670823,-0.004801678331549206,
0.10778054862842892,0.001579267743315176,
0.10783042394014962,0.012326140090204621,
0.10788029925187033,-0.011216809123751262,
0.10793017456359102,-0.004113638827627209,
0.10798004987531172,0.00774168844252932,
0.10802992518703242,0.012278354997207388,
0.10807980049875311,0.006375493414838904,
0.10812967581047382,0.023220858408571035,
0.10817955112219452,0.019887203950905704,
0.10822942643391521,-0.018119139511018387,
0.10827930174563591,-0.0034091819758189515,
0.1083291770573566,0.026009910425433554,
0.1083790523690773,0.026259113772627924,
0.10842892768079801,-0.006077240853007227,
0.1084788029925187,-0.008118010126497035,
0.1085286783042394,-0.0005279134971744506,
0.1085785536159601,-0.004848922652482631,
0.10862842892768079,0.030015084826899983,
0.1086783042394015,-0.0003600356706044243,
0.1087281795511222,0.014565500104122133,
0.1087780548628429,0.011678993536838782,
0.10882793017456359,0.03288192111256896,
0.10887780548628428,0.0004347768184473303,
0.108927680798005,0.006416323821230209,
0.10897755610972569,0.04505745787905781,
0.10902743142144639,-0.00012452754395022615,
0.10907730673316708,-0.012368855088591198,
0.10912718204488778,0.03464341373883624,
0.10917705735660847,-0.003730411344731996,
0.10922693266832918,0.022944145686518824,
0.10927680798004988,0.008221132365265567,
0.10932668329177057,0.006401836801278694,
0.10937655860349127,0.008453324418587415,
0.10942643391521197,0.007719887509327861,
0.10947630922693267,0.015350379721306916,
0.10952618453865337,0.028940862926151577,
0.10957605985037407,0.0234554037477265,
0.10962593516209476,-0.003886405585398293,
0.10967581047381546,0.004620882880442705,
0.10972568578553615,0.028054011646917766,
0.10977556109725686,0.0037803470005058053,
0.10982543640897756,0.0064626400314943145,
0.10987531172069825,0.015712833952626577,
0.10992518703241895,0.018076518284967286,
0.10997506234413965,0.008455416542472172,
0.11002493765586036,0.02624859861573204,
0.11007481296758105,0.023842661222835432,
0.11012468827930175,-0.002066474072904178,
0.11017456359102244,0.038517848886042434,
0.11022443890274314,0.046373642256081,
0.11027431421446383,0.023275907023145036,
0.11032418952618454,0.011179163440259474,
0.11037406483790524,0.03557478824663235,
0.11042394014962593,0.012312915760853034,
0.11047381546134663,0.032230394807316314,
0.11052369077306733,0.020723893171790977,
0.11057356608478804,0.03601946574930038,
0.11062344139650873,0.04293716320557689,
0.11067331670822943,0.02929013624924308,
0.11072319201995012,0.013539416394296122,
0.11077306733167082,0.030266470007303342,
0.11082294264339151,0.012181143123271128,
0.11087281795511222,0.023495894926824506,
0.11092269326683292,0.027586322592466142,
0.11097256857855362,0.02584911880352915,
0.11102244389027431,0.010905585136900537,
0.111072319201995,0.041979284424564015,
0.11112219451371572,0.03968584222922899,
0.11117206982543641,0.03146399962154925,
0.11122194513715711,0.030245144834904723,
0.1112718204488778,0.03467787879102033,
0.1113216957605985,0.013757392654914057,
0.11137157107231921,0.027587106618616415,
0.1114214463840399,0.02872437562749687,
0.1114713216957606,0.0209798737858008,
0.1115211970074813,0.04532241192214204,
0.11157107231920199,0.011878135119818127,
0.11162094763092269,0.03024113344880262,
0.1116708229426434,0.019292945152806603,
0.11172069825436409,0.02316930021009369,
0.11177057356608479,0.02437441700998551,
0.11182044887780548,0.027150121513520937,
0.11187032418952618,0.02955111352568244,
0.11192019950124689,0.030954531457315096,
0.11197007481296758,0.04041911590363813,
0.11201995012468828,0.03353130242260726,
0.11206982543640898,0.021853393710404196,
0.11211970074812967,0.030638102945493816,
0.11216957605985037,0.023472496707885097,
0.11221945137157108,0.028632205767683026,
0.11226932668329177,0.0326449830357165,
0.11231920199501247,0.05751749467961407,
0.11236907730673316,0.03881372403385949,
0.11241895261845386,0.036459612509115794,
0.11246882793017457,0.02988971253521816,
0.11251870324189527,0.036349905047821526,
0.11256857855361596,0.01627915820508096,
0.11261845386533666,0.0163615367406245,
0.11266832917705735,0.02491124556766843,
0.11271820448877805,0.04554333300675365,
0.11276807980049876,0.024573300147241503,
0.11281795511221945,0.04858874995658731,
0.11286783042394015,0.01945272979662302,
0.11291770573566084,0.033412968015154164,
0.11296758104738154,0.040615891968479235,
0.11301745635910225,0.016682482880741218,
0.11306733167082295,0.02726942330477535,
0.11311720698254364,0.05529921590212923,
0.11316708229426434,0.034195429110273866,
0.11321695760598503,0.04622379136274075,
0.11326683291770574,0.03866108090371658,
0.11331670822942644,0.050092975699958756,
0.11336658354114713,0.022370294472664573,
0.11341645885286783,0.033093206810378265,
0.11346633416458853,0.06377541667751101,
0.11351620947630922,0.0292242211478653,
0.11356608478802993,0.018999574326180088,
0.11361596009975063,0.040506034613313924,
0.11366583541147132,0.03584240669719451,
0.11371571072319202,0.05841065872690139,
0.11376558603491271,0.028024072986057448,
0.11381546134663342,0.04711253647142784,
0.11386533665835412,0.059059290398531215,
0.11391521197007481,0.052468878065059635,
0.11396508728179551,0.023715865956606755,
0.1140149625935162,0.034680133693401026,
0.1140648379052369,0.009692434275173367,
0.11411471321695761,0.0007251866475775186,
0.1141645885286783,0.04890688403627458,
0.114214463840399,0.01584115655729302,
0.1142643391521197,0.030915834047635763,
0.1143142144638404,0.04594445046513897,
0.1143640897755611,0.03838633478538857,
0.1144139650872818,0.020476698977856908,
0.1144638403990025,0.03364651316264208,
0.11451371571072319,0.03221661151867088,
0.11456359102244389,0.014861167504753123,
0.11461346633416458,0.030606390228906027,
0.11466334164588529,0.02439547729475904,
0.11471321695760599,0.04099117622343748,
0.11476309226932668,0.003207159013614711,
0.11481296758104738,0.04257285838460485,
0.11486284289276807,0.03244159258787723,
0.11491271820448878,0.022814286459695195,
0.11496259351620948,-0.004777803178190217,
0.11501246882793018,-0.00951213682185146,
0.11506234413965087,0.02396032935124921,
0.11511221945137157,0.03624943848617919,
0.11516209476309226,-0.004724022433205122,
0.11521197007481297,0.027420094268984996,
0.11526184538653367,0.023784848672195286,
0.11531172069825436,0.04207521344418314,
0.11536159600997506,0.01839188381037998,
0.11541147132169575,0.005946111989330833,
0.11546134663341646,0.01360961957188789,
0.11551122194513716,0.03920446452708225,
0.11556109725685786,0.012624260162472435,
0.11561097256857855,0.016028952576024474,
0.11566084788029925,0.012429933514537262,
0.11571072319201996,0.029216094235565856,
0.11576059850374065,0.012928059132700299,
0.11581047381546135,0.04094239067330607,
0.11586034912718204,0.02556061120033499,
0.11591022443890274,0.016295208604159242,
0.11596009975062344,0.025375171792111746,
0.11600997506234415,0.03472302561944274,
0.11605985037406484,0.027488256820156654,
0.11610972568578554,0.03447008310669572,
0.11615960099750623,0.012936008444484132,
0.11620947630922693,0.029681229086264582,
0.11625935162094764,0.038309846617252216,
0.11630922693266833,0.04834237160404051,
0.11635910224438903,0.03343644992951025,
0.11640897755610972,0.026220451298266497,
0.11645885286783042,0.020672564858427663,
0.11650872817955112,0.03200611645310681,
0.11655860349127183,0.010342323895190053,
0.11660847880299252,0.03778699051003846,
0.11665835411471322,0.02542352420901585,
0.11670822942643391,0.005699029295620363,
0.11675810473815461,0.0032528288866557706,
0.11680798004987532,0.04156116821873018,
0.11685785536159601,0.017303291599808826,
0.11690773067331671,0.007432259732497599,
0.1169576059850374,-0.004305960525077673,
0.1170074812967581,-0.01036142359318494,
0.1170573566084788,0.03254622495908821,
0.1171072319201995,0.006536103088656832,
0.1171571072319202,0.008753562075875049,
0.1172069825436409,0.009903653668304379,
0.1172568578553616,-0.014323049000347789,
0.11730673316708229,0.015123136304147362,
0.117356608478803,0.00319248766304279,
0.1174064837905237,-0.0018733205245129135,
0.11745635910224439,-0.0018302478129267746,
0.11750623441396509,0.011976024875043352,
0.11755610972568578,0.007825241333753168,
0.11760598503740648,-0.006732932371915098,
0.11765586034912719,0.011784527710975011,
0.11770573566084788,0.02372603163194134,
0.11775561097256858,0.0036674112263613504,
0.11780548628428927,0.02868227509016312,
0.11785536159600997,0.013002925082254178,
0.11790523690773068,0.008942294594661983,
0.11795511221945137,0.02081078836988203,
0.11800498753117207,-0.0012156762961730173,
0.11805486284289277,-0.007097740977003884,
0.11810473815461346,0.0026491879649029795,
0.11815461346633417,0.04754742366957125,
0.11820448877805487,0.006967948955919333,
0.11825436408977556,0.027318137284919337,
0.11830423940149626,0.013655961531413895,
0.11835411471321695,-0.010642422349257497,
0.11840399002493765,0.025966492353785224,
0.11845386533665836,-0.006266552747919716,
0.11850374064837906,0.019624934987293126,
0.11855361596009975,0.015707311367957562,
0.11860349127182045,-0.0034042362412751263,
0.11865336658354114,-0.0005540930016247553,
0.11870324189526185,0.03209167448326959,
0.11875311720698255,0.022160908440242155,
0.11880299251870324,-0.004062812772645363,
0.11885286783042394,0.03241784689650761,
0.11890274314214463,0.0024939933959980914,
0.11895261845386533,0.014564298130732792,
0.11900249376558604,0.008552961678147702,
0.11905236907730674,0.018380880584986645,
0.11910224438902743,-0.007850970900418607,
0.11915211970074813,0.02490668536776943,
0.11920199501246882,0.007011035084979952,
0.11925187032418953,-0.014285602404309867,
0.11930174563591023,0.0006003755218317547,
0.11935162094763092,0.0005970781887367146,
0.11940149625935162,0.005634547701944213,
0.11945137157107232,0.0034906369891559547,
0.11950124688279301,0.012345952187891456,
0.11955112219451372,0.005383523681139962,
0.11960099750623442,0.002551318809967957,
0.11965087281795511,-0.00514407339034274,
0.11970074812967581,0.021559776616529365,
0.1197506234413965,-0.01526521071291156,
0.11980049875311721,-0.016060169398891457,
0.11985037406483791,0.009273429421515848,
0.1199002493765586,-0.011049059892197732,
0.1199501246882793,0.0034689540824780585,
0.12,0.006631570176898512,
0.1200498753117207,-0.011412474284567108,
0.1200997506234414,0.014938385584902264,
0.1201496259351621,-0.013640217921153856,
0.12019950124688279,-0.01944322393840049,
0.12024937655860349,-0.0013894342917893869,
0.12029925187032418,-0.016329950401707087,
0.1203491271820449,-0.01691329970080009,
0.12039900249376559,-0.00521144925794508,
0.12044887780548628,-0.004855913871906245,
0.12049875311720698,0.021864954570747757,
0.12054862842892768,-0.012992425058980251,
0.12059850374064839,-0.013708205001219203,
0.12064837905236908,-0.018199298826818405,
0.12069825436408978,-0.0027821613574515918,
0.12074812967581047,-0.018104889793285155,
0.12079800498753117,0.01023921870381924,
0.12084788029925186,0.009656521829211787,
0.12089775561097257,0.010480154184422965,
0.12094763092269327,-0.023563752408090943,
0.12099750623441397,-0.0064298814005145435,
0.12104738154613466,-0.019361132966800844,
0.12109725685785536,-0.030780547697562756,
0.12114713216957607,-0.01761020152712257,
0.12119700748129676,-0.023390642841081305,
0.12124688279301746,0.017012280053650443,
0.12129675810473815,-0.01808469261534911,
0.12134663341645885,0.013455556865981511,
0.12139650872817954,-0.02658621091875376,
0.12144638403990025,-0.03269589380961327,
0.12149625935162095,-0.0018125485171302073,
0.12154613466334165,0.006835648243613572,
0.12159600997506234,-0.00449104221451109,
0.12164588528678304,-0.009987400272148504,
0.12169576059850375,0.008761546472484444,
0.12174563591022444,0.00965019532543047,
0.12179551122194514,-0.0027523604921914626,
0.12184538653366583,-0.00958463067672062,
0.12189526184538653,0.0005923623192967721,
0.12194513715710723,0.0029433125356871856,
0.12199501246882793,0.009333478882412928,
0.12204488778054863,0.01810297332046849,
0.12209476309226933,-0.004661857890794576,
0.12214463840399002,0.004990250820949371,
0.12219451371571072,-0.016483977410423328,
0.12224438902743143,-0.025209119982765427,
0.12229426433915212,-0.03275736235601055,
0.12234413965087282,-0.01789653622340648,
0.12239401496259351,0.0009484239472793161,
0.12244389027431421,0.002607248869205119,
0.12249376558603492,-0.014092591489932606,
0.12254364089775562,-0.02916256639592831,
0.12259351620947631,-0.026842442057278718,
0.122643391521197,-0.011764303442400792,
0.1226932668329177,-0.01335559472022578,
0.1227431421446384,-0.022894621883701317,
0.12279301745635911,-0.026710622528305954,
0.1228428927680798,-0.024270367083573663,
0.1228927680798005,0.005001403003241546,
0.1229426433915212,3.983592607859424e-06,
0.12299251870324189,-0.02239305943833237,
0.1230423940149626,-0.012694976413073591,
0.1230922693266833,0.00587856780706446,
0.12314214463840399,0.002204885780331293,
0.12319201995012469,0.01268827657203042,
0.12324189526184538,-0.04247219474743715,
0.12329177057356608,-0.03201454224359207,
0.12334164588528679,0.007742151879374723,
0.12339152119700748,0.006308767009748509,
0.12344139650872818,-0.014307128188313476,
0.12349127182044888,-0.012134902704508134,
0.12354114713216957,-0.014457971032865344,
0.12359102244389028,0.011200497387015404,
0.12364089775561098,0.004298290995850534,
0.12369077306733167,-0.022585552961055407,
0.12374064837905237,-0.03534177517100714,
0.12379052369077306,-0.00038123613076302375,
0.12384039900249376,-0.038450946773137734,
0.12389027431421447,-0.0024894851869551315,
0.12394014962593516,-0.0025660323335902294,
0.12399002493765586,-0.015004996103153683,
0.12403990024937656,-0.021955162535796956,
0.12408977556109725,-0.022775771573021367,
0.12413965087281796,-0.01297266831021959,
0.12418952618453866,-0.005620878136693954,
0.12423940149625935,-0.019467688789313993,
0.12428927680798005,-0.02592204163434083,
0.12433915211970074,-0.009544494612966466,
0.12438902743142144,0.0026283689424897155,
0.12443890274314215,-0.021495945514266195,
0.12448877805486284,-0.02116468370913195,
0.12453865336658354,0.008940102871813769,
0.12458852867830424,-0.02869040195644998,
0.12463840399002493,0.011344443040296354,
0.12468827930174564,0.013005876190804483,
0.12473815461346634,-0.00817968780746071,
0.12478802992518703,-0.012555419222761577,
0.12483790523690773,-0.015050401219163928,
0.12488778054862842,-0.026868933660990107,
0.12493765586034913,0.001969479514211213,
0.12498753117206983,0.027406390272388337,
0.12503740648379053,0.03493982303388293,
0.12508728179551123,-0.01647602738678598,
0.12513715710723192,-0.0015457782996080305,
0.12518703241895263,-0.00683471460865844,
0.1252369077306733,-0.01971960816293668,
0.12528678304239402,0.0009479158618721541,
0.1253366583541147,-0.006841031170622888,
0.1253865336658354,0.012945023826114814,
0.12543640897755612,-0.028827218186672034,
0.1254862842892768,0.008974948297677074,
0.1255361596009975,-0.03508034417645146,
0.1255860349127182,-0.0020190977187786114,
0.1256359102244389,-0.006174748989854149,
0.1256857855361596,-0.008867053569441365,
0.1257356608478803,-0.0012191455260068792,
0.125785536159601,0.016601985093849116,
0.12583541147132168,0.023638770359010547,
0.1258852867830424,-0.03062264186555979,
0.1259351620947631,-0.011769304912563509,
0.12598503740648379,-0.005712850470578826,
0.1260349127182045,-0.023712014235683646,
0.12608478802992518,-0.027139536147935423,
0.1261346633416459,-0.03147826589409221,
0.1261845386533666,-0.012250626591693983,
0.12623441396508728,0.003378576527889681,
0.126284289276808,-0.022128494392127128,
0.12633416458852867,0.009305749508561188,
0.12638403990024938,0.0033974628275904115,
0.1264339152119701,-0.03750291755011996,
0.12648379052369077,-0.01536212681243615,
0.12653366583541148,0.011414272876316293,
0.12658354114713216,0.0188042115015604,
0.12663341645885287,-0.0003971412316076078,
0.12668329177057355,0.014827153583629026,
0.12673316708229426,-0.005945419612304269,
0.12678304239401497,0.014084555982353524,
0.12683291770573565,0.01894627913915333,
0.12688279301745636,-0.01957787862980495,
0.12693266832917705,0.020764654289167427,
0.12698254364089775,-0.030622335626241726,
0.12703241895261846,0.01872944125928866,
0.12708229426433915,0.01678838174925868,
0.12713216957605986,-0.008239988020650941,
0.12718204488778054,-0.004858918380236197,
0.12723192019950125,0.009560868822872813,
0.12728179551122196,0.0014318237694879285,
0.12733167082294264,-0.0003119305392515069,
0.12738154613466335,-0.009031253716136958,
0.12743142144638403,0.028808686224645226,
0.12748129675810474,-0.005003538570957929,
0.12753117206982545,0.008460441954998848,
0.12758104738154613,0.015017293272906114,
0.12763092269326684,0.01028644443959962,
0.12768079800498752,-0.019629688038790404,
0.12773067331670823,0.012946512447940834,
0.1277805486284289,0.005582623000953351,
0.12783042394014962,-0.001698129971756051,
0.12788029925187033,-0.008698588614152018,
0.12793017456359101,0.023345861824157814,
0.12798004987531172,0.015903765958689677,
0.1280299251870324,-0.018549630092529315,
0.12807980049875312,0.019644921977581695,
0.12812967581047383,-0.02689782280453127,
0.1281795511221945,0.009175723014094665,
0.12822942643391522,-0.02605876499993224,
0.1282793017456359,0.02296284515175019,
0.1283291770573566,-0.002806942792374886,
0.12837905236907732,0.02971569930742983,
0.128428927680798,0.013832159522410365,
0.1284788029925187,0.006426625338671468,
0.1285286783042394,0.0034483825994706153,
0.1285785536159601,0.0316268829899819,
0.1286284289276808,0.0024530374812339693,
0.1286783042394015,0.008699658068966989,
0.1287281795511222,-0.004468871404034564,
0.12877805486284288,0.013195085391168409,
0.1288279301745636,0.03559109319320594,
0.1288778054862843,0.001818166188624723,
0.12892768079800498,0.0057478902120880635,
0.1289775561097257,-0.012094253468236171,
0.12902743142144638,0.022892429131973493,
0.12907730673316709,0.024790815776564803,
0.12912718204488777,0.011684544545338328,
0.12917705735660848,0.02821509910695582,
0.1292269326683292,-0.0028987845087025572,
0.12927680798004987,0.031279315748076644,
0.12932668329177058,0.008660337847253119,
0.12937655860349126,0.02294299680329483,
0.12942643391521197,0.05270666860599249,
0.12947630922693268,0.015217882378812891,
0.12952618453865336,0.002837944652250759,
0.12957605985037407,0.027807138373099703,
0.12962593516209475,0.028911385606168908,
0.12967581047381546,0.00022015647959128248,
0.12972568578553617,-0.008807247260896607,
0.12977556109725685,0.018373442702572632,
0.12982543640897756,0.029435465171394126,
0.12987531172069824,0.026727231723763113,
0.12992518703241895,0.006730581423368442,
0.12997506234413966,-0.008890809689918993,
0.13002493765586035,0.03842049741318982,
0.13007481296758105,0.0021562791580435198,
0.13012468827930174,0.04301625613967606,
0.13017456359102245,0.0001757683361878308,
0.13022443890274316,0.03469402878185955,
0.13027431421446384,0.02237798619744783,
0.13032418952618455,0.03726222776735565,
0.13037406483790523,0.025950029191171047,
0.13042394014962594,0.027305439878428282,
0.13047381546134662,-0.00072130995219934,
0.13052369077306733,0.005583639160177425,
0.13057356608478804,0.029159791374997857,
0.13062344139650872,0.014482723664281053,
0.13067331670822943,0.058107337750015364,
0.1307231920199501,0.042740261993617926,
0.13077306733167082,0.020014848925073225,
0.13082294264339153,0.025135505124923057,
0.13087281795511221,0.008799275940944588,
0.13092269326683292,0.03245850820179978,
0.1309725685785536,0.0456392872576692,
0.13102244389027431,0.0009470165388385555,
0.13107231920199502,0.035626201336560845,
0.1311221945137157,0.025879012481787884,
0.13117206982543642,-0.002600554988771521,
0.1312219451371571,-0.001321311681138554,
0.1312718204488778,0.02904408435949824,
0.13132169576059852,0.048929634048195246,
0.1313715710723192,0.024211554485322032,
0.1314214463840399,0.007410457927506123,
0.1314713216957606,0.05556496524423306,
0.1315211970074813,0.04818278973440683,
0.13157107231920198,0.03736055549957002,
0.1316209476309227,0.04611408317574077,
0.1316708229426434,0.03328525895512861,
0.13172069825436408,0.04399005890825107,
0.1317705735660848,0.013026619714024764,
0.13182044887780547,0.05356200855308181,
0.13187032418952618,0.017723061238291135,
0.1319201995012469,0.059772579244536134,
0.13197007481296757,0.019058172225143263,
0.13201995012468828,0.036381232258765106,
0.13206982543640897,0.02085031875556878,
0.13211970074812968,0.03194266243004095,
0.13216957605985039,0.03328206236362091,
0.13221945137157107,0.04770495371448196,
0.13226932668329178,-0.003401257155566176,
0.13231920199501246,0.059508375224885515,
0.13236907730673317,0.010607649359834662,
0.13241895261845388,0.0314417320104199,
0.13246882793017456,0.02888938443208361,
0.13251870324189527,0.0327543600036704,
0.13256857855361595,0.02323469432851949,
0.13261845386533666,0.035253155590655706,
0.13266832917705737,0.028235354533156943,
0.13271820448877805,0.04342114590035614,
0.13276807980049876,0.015089213147868008,
0.13281795511221944,0.036883354888479936,
0.13286783042394015,0.054997714869593664,
0.13291770573566083,0.03368093622967701,
0.13296758104738154,0.03639384120477022,
0.13301745635910225,0.0011806091047830182,
0.13306733167082294,0.04911158679453882,
0.13311720698254365,0.025767261532501504,
0.13316708229426433,0.04412127701974815,
0.13321695760598504,0.022573306866367368,
0.13326683291770575,0.0359753575728668,
0.13331670822942643,0.03317397609830625,
0.13336658354114714,0.02472992886849808,
0.13341645885286782,0.0327383297199168,
0.13346633416458853,0.03290420244132961,
0.13351620947630924,0.05288562517127568,
0.13356608478802992,0.02404026607027407,
0.13361596009975063,0.04763250914274342,
0.1336658354114713,0.015380588174114397,
0.13371571072319202,0.04944694229020536,
0.13376558603491273,0.02443459920692443,
0.1338154613466334,0.015359246926813244,
0.13386533665835412,0.0321203137295155,
0.1339152119700748,0.036846070665038436,
0.13396508728179551,0.02960686886292375,
0.1340149625935162,0.04936660503722877,
0.1340648379052369,0.04916767006567996,
0.13411471321695762,0.010720013899271942,
0.1341645885286783,0.02062892695474769,
0.134214463840399,0.022019649365832384,
0.1342643391521197,0.037256798398135796,
0.1343142144638404,0.011994877659408942,
0.1343640897755611,0.008169062355429801,
0.1344139650872818,0.019648176251687428,
0.1344638403990025,0.04172073532275414,
0.13451371571072318,0.04174872631306359,
0.1345635910224439,0.06818203729083457,
0.1346134663341646,0.05193483249644569,
0.13466334164588528,0.04032115561660305,
0.134713216957606,0.05056380349346873,
0.13476309226932667,0.03278419104138689,
0.13481296758104738,0.010156730522623402,
0.1348628428927681,0.03681125013986147,
0.13491271820448877,0.03161240752617729,
0.13496259351620948,0.003819801443149775,
0.13501246882793017,0.03922780886440484,
0.13506234413965088,0.058006378355316454,
0.13511221945137158,0.0230165526387925,
0.13516209476309227,0.00878619168359289,
0.13521197007481298,0.02713344601812289,
0.13526184538653366,0.03907380240116405,
0.13531172069825437,0.024896978263965013,
0.13536159600997505,0.05230628547316325,
0.13541147132169576,0.0035499990747039113,
0.13546134663341647,0.004397127772317089,
0.13551122194513715,0.029383314253652645,
0.13556109725685786,0.045694460754587274,
0.13561097256857854,0.02814491378444531,
0.13566084788029925,0.01990068366231856,
0.13571072319201996,0.02180709044779883,
0.13576059850374064,0.017936880832777717,
0.13581047381546135,0.016573805963801445,
0.13586034912718203,0.035126889053816786,
0.13591022443890274,0.04475372474325894,
0.13596009975062345,0.013863167485333951,
0.13600997506234414,0.04358490301784193,
0.13605985037406484,0.0073558433900936665,
0.13610972568578553,0.04237600249525439,
0.13615960099750624,0.05100421298220276,
0.13620947630922695,0.03522346098778738,
0.13625935162094763,-0.0005293136406298964,
0.13630922693266834,-0.004498648294880118,
0.13635910224438902,0.03517649855730098,
0.13640897755610973,0.05131365979468646,
0.1364588528678304,-0.011248477952000548,
0.13650872817955112,0.01954670638832611,
0.13655860349127183,0.012783107642021965,
0.1366084788029925,0.030626377271876608,
0.13665835411471322,0.012008113740695747,
0.1367082294264339,0.03224916117714088,
0.1367581047381546,0.04365129786281355,
0.13680798004987532,-0.01148297028537635,
0.136857855361596,-0.0008648624839599668,
0.1369077306733167,-0.0010279421545021407,
0.1369576059850374,0.009139851821965004,
0.1370074812967581,0.03832868274695484,
0.13705735660847881,0.0021561908520153113,
0.1371072319201995,-0.0010481722025107165,
0.1371571072319202,0.007404115236744613,
0.1372069825436409,0.026003353334793994,
0.1372568578553616,0.01445231532404934,
0.1373067331670823,0.02598783784059002,
0.137356608478803,0.026748274914764704,
0.1374064837905237,0.006561105362876185,
0.13745635910224438,0.023180496188911284,
0.1375062344139651,0.008646662939014872,
0.1375561097256858,0.009637245131272572,
0.13760598503740648,0.011177213602949421,
0.1376558603491272,0.04234908797148672,
0.13770573566084787,0.003713458630996638,
0.13775561097256858,0.033884168748838345,
0.13780548628428926,0.013238158666036655,
0.13785536159600997,0.029388023085626647,
0.13790523690773068,0.02905756598438799,
0.13795511221945136,0.010829558242587776,
0.13800498753117207,-0.02442880963572782,
0.13805486284289276,0.005290630884799003,
0.13810473815461347,0.03263124721506035,
0.13815461346633418,0.012649742744589462,
0.13820448877805486,0.01825597141792365,
0.13825436408977557,0.021291927087554022,
0.13830423940149625,0.0010638614293825236,
0.13835411471321696,0.023371015852002422,
0.13840399002493767,0.015242426156505956,
0.13845386533665835,-0.005735995148700901,
0.13850374064837906,0.03290214011732035,
0.13855361596009974,-0.0013890643076790322,
0.13860349127182045,0.02830831586566683,
0.13865336658354116,0.004676542086569241,
0.13870324189526184,0.032765026852744496,
0.13875311720698255,0.020333648984106292,
0.13880299251870323,-0.0030606270393082422,
0.13885286783042394,0.01653228777829238,
0.13890274314214462,0.003466959011589911,
0.13895261845386533,0.005017679888100929,
0.13900249376558604,0.027440180513656216,
0.13905236907730673,0.009478127020177052,
0.13910224438902744,-0.004315564294819143,
0.13915211970074812,0.025939934384886874,
0.13920199501246883,-0.002401525938396089,
0.13925187032418954,-0.009830206804964079,
0.13930174563591022,-0.004800636293534721,
0.13935162094763093,0.005294302195652838,
0.1394014962593516,0.026324843711837576,
0.13945137157107232,-0.008659731933206707,
0.13950124688279303,0.0280948220192125,
0.1395511221945137,-0.003887654641884233,
0.13960099750623442,0.016438793144157526,
0.1396508728179551,0.006030483077082412,
0.1397007481296758,0.005822284756550871,
0.13975062344139652,0.012576843048430764,
0.1398004987531172,-0.007853495104522112,
0.1398503740648379,-0.0011340602548119013,
0.1399002493765586,-0.013962871144736223,
0.1399501246882793,0.025433904199051102,
0.14,0.0016754459106108266,
0.1400498753117207,0.040229370029847354,
0.1400997506234414,-0.007079481920038695,
0.1401496259351621,0.01918615978801568,
0.1401995012468828,0.010246104716343771,
0.14024937655860348,-0.011057155917932942,
0.1402992518703242,0.003568989992506791,
0.1403491271820449,0.016581473191182146,
0.14039900249376558,-0.010070630246117276,
0.1404488778054863,0.0059434777682014685,
0.14049875311720697,0.018876835558850884,
0.14054862842892768,-0.02074549957320969,
0.1405985037406484,0.019670150883072668,
0.14064837905236907,-0.0010208130110416261,
0.14069825436408978,0.0161707978998162,
0.14074812967581046,-0.013453513902775624,
0.14079800498753117,0.006419311386715658,
0.14084788029925188,-0.017901061371171013,
0.14089775561097256,0.007320401901045161,
0.14094763092269327,0.014128689393238412,
0.14099750623441396,0.024772385295217397,
0.14104738154613466,-0.0018118073519515767,
0.14109725685785537,-0.03188626613798694,
0.14114713216957606,-0.00760669175946366,
0.14119700748129677,-0.0023589780703660783,
0.14124688279301745,0.017190666243616384,
0.14129675810473816,0.004150089884408542,
0.14134663341645887,-0.018878029431196465,
