time,amplitude,label
0.0,-0.05304005559226889,
4.987531172069826e-05,-0.019887673513346343,
9.975062344139652e-05,0.012556666079212712,
0.00014962593516209475,-0.026920778123168947,
0.00019950124688279303,-0.005574260862213645,
0.00024937655860349125,-0.015413758249400625,
0.0002992518703241895,-0.030763947302215856,
0.00034912718204488776,-0.012117223053210707,
0.00039900249376558606,-0.05165031849576983,
0.0004488778054862843,-0.015019533945758671,
0.0004987531172069825,-0.009082974492512691,
0.0005486284289276808,-0.03268694731363189,
0.000598503740648379,-0.01211689261530463,
0.0006483790523690773,-0.015912793887308627,
0.0006982543640897755,-0.026925748444274263,
0.0007481296758104738,-0.02736334759558735,
0.0007980049875311721,-0.03034688190557497,
0.0008478802992518703,-0.037774859932971236,
0.0008977556109725686,-0.0373905487141854,
0.0009476309226932668,-0.0017676827433770713,
0.000997506234413965,-0.006800492591651552,
0.0010473815461346633,-0.019162433476827827,
0.0010972568578553616,-0.04336518640249959,
0.00114713216957606,-0.01846839453684286,
0.001197007481296758,-0.01922418129946024,
0.0012468827930174563,-0.03119600855735845,
0.0012967581047381546,-0.025875797906229212,
0.001346633416458853,-0.04186585804143754,
0.001396508728179551,-0.012545095345464483,
0.0014463840399002493,-0.0029219487456509617,
0.0014962593516209476,-0.05125579961777142,
0.001546134663341646,-0.021152296164232573,
0.0015960099750623442,-0.03488720612363144,
0.0016458852867830423,-0.024660079855798694,
0.0016957605985037406,-0.02150299117161807,
0.001745635910224439,-0.030517938664958,
0.0017955112219451373,-0.02032308015051941,
0.0018453865336658353,-0.01460791838362967,
0.0018952618453865336,-0.008868405657735308,
0.001945137157107232,-0.04094025599405346,
0.00199501246882793,-0.004090656079239719,
0.0020448877805486283,-0.04657193359525032,
0.0020947630922693266,-0.03524977600893474,
0.002144638403990025,-0.010103426804687912,
0.0021945137157107233,0.0008016640240067693,
0.0022443890274314216,-0.026464798030142525,
0.00229426433915212,-0.015634877294950427,
0.0023441396508728177,-0.0031792275222887606,
0.002394014962593516,-0.02068897426494339,
0.0024438902743142144,-0.03825035820006737,
0.0024937655860349127,0.008641819600432143,
0.002543640897755611,-0.0333936843745527,
0.0025935162094763093,-0.040924103451083785,
0.0026433915211970076,-0.0187930663765259,
0.002693266832917706,-0.03087443301109999,
0.002743142144638404,-0.029361460622693843,
0.002793017456359102,9.863298806064846e-05,
0.0028428927680798004,-0.037066972449090976,
0.0028927680798004987,-0.026451226860848682,
0.002942643391521197,-0.03641892076601658,
0.0029925187032418953,-0.0378435367074845,
0.0030423940149625936,-0.00045140267762537947,
0.003092269326683292,-0.03746550603430375,
0.00314214463840399,-0.03335838977156605,
0.0031920199501246885,-0.022823531495102422,
0.0032418952618453864,-0.020491458103671065,
0.0032917705735660847,-0.030348682589137775,
0.003341645885286783,-0.04930449169266954,
0.0033915211970074813,-0.023953429543850456,
0.0034413965087281796,-0.004575242839822484,
0.003491271820448878,-0.01305168087443006,
0.003541147132169576,-0.05917360102607025,
0.0035910224438902745,0.017554244602694016,
0.0036408977556109724,-0.024650129630325965,
0.0036907730673316707,-0.007920485535249912,
0.003740648379052369,-0.014321257818216701,
0.0037905236907730673,-0.029753145518848785,
0.0038403990024937656,0.007616371080843499,
0.003890274314214464,-0.046764406473245215,
0.003940149625935162,0.003346943647506182,
0.00399002493765586,-0.003244774882314387,
0.004039900249376558,-0.01711180243029351,
0.004089775561097257,-0.019461284841398842,
0.004139650872817955,-0.032189064860575156,
0.004189526184538653,-0.006925697068989342,
0.004239401496259352,0.010459463949448678,
0.00428927680798005,0.0011783884332240355,
0.004339152119700748,-0.011825488436306071,
0.0043890274314214465,-0.027925641569906665,
0.004438902743142145,-0.011094965665359367,
0.004488778054862843,-0.012549247717810984,
0.004538653366583541,-0.02629939646949319,
0.00458852867830424,-0.01406273826001099,
0.004638403990024938,0.0024888221152237367,
0.0046882793017456355,-0.022640849846233345,
0.004738154613466334,-0.01149824186444105,
0.004788029925187032,-0.024204245194268306,
0.00483790523690773,-0.011969767740953794,
0.004887780548628429,-0.0053301997535227085,
0.004937655860349127,-0.00410655769230669,
0.004987531172069825,-0.036495912113783696,
0.005037406483790524,-0.035598264982067376,
0.005087281795511222,-0.028077385980461906,
0.00513715710723192,-0.018896279418956823,
0.0051870324189526185,-0.003962460410486838,
0.005236907730673317,-0.01832632582867985,
0.005286783042394015,-0.024616608202003478,
0.0053366583541147134,-0.01655701419334146,
0.005386533665835412,-0.011294297641228279,
0.00543640897755611,-0.031050799456895584,
0.005486284289276808,-0.01075996908015653,
0.005536159600997507,-0.030980818622729743,
0.005586034912718204,-0.027133674407952474,
0.005635910224438902,-0.009203965950685514,
0.005685785536159601,-0.027146066996159866,
0.005735660847880299,-0.016968968099587343,
0.005785536159600997,0.0030704897871557234,
0.005835411471321696,0.003432628505357093,
0.005885286783042394,-0.021726999606849366,
0.005935162094763092,0.007718792877338948,
0.0059850374064837905,-0.006225801718659755,
0.006034912718204489,0.0017452855556941253,
0.006084788029925187,-0.03334668672636507,
0.0061346633416458855,0.016849605912676743,
0.006184538653366584,0.018892119650487246,
0.006234413965087282,-0.029123182632105345,
0.00628428927680798,-0.01059023548375513,
0.006334164588528679,-0.007470925375559179,
0.006384039900249377,-0.02674368116458954,
0.006433915211970074,-0.03401580742542729,
0.006483790523690773,0.0019410808742201307,
0.006533665835411471,-0.006434987924082283,
0.006583541147132169,-0.01598212379204863,
0.006633416458852868,0.026163128161875934,
0.006683291770573566,0.01332267415180722,
0.006733167082294264,0.0032646571117453007,
0.0067830423940149626,-0.02234031476884557,
0.006832917705735661,0.0070144752021777754,
0.006882793017456359,-0.002279036031329162,
0.0069326683291770575,0.007713165082341442,
0.006982543640897756,-0.007638197218340027,
0.007032418952618454,-0.0028685982815202194,
0.007082294264339152,0.0018811454355162492,
0.007132169576059851,-0.005801604968559801,
0.007182044887780549,0.0076312159573203794,
0.007231920199501247,0.0021056135918367078,
0.007281795511221945,0.014355968631521393,
0.007331670822942643,0.01405810593393724,
0.007381546134663341,-0.0122025201527921,
0.00743142144638404,0.008415290286041242,
0.007481296758104738,0.008622155334169908,
0.007531172069825436,0.0009041499888380421,
0.007581047381546135,-0.012687897269134208,
0.007630922693266833,0.016817647612260653,
0.007680798004987531,0.01990547834823803,
0.0077306733167082295,-0.009444424172729947,
0.007780548628428928,-0.001442577096483922,
0.007830423940149626,0.004434943558744638,
0.007880299251870324,0.0006117760274541744,
0.007930174563591023,0.0031330259093359076,
0.00798004987531172,-0.0015744009279066813,
0.00802992518703242,-0.014366485158599694,
0.008079800498753117,0.006295793554741183,
0.008129675810473816,-0.011187845837069174,
0.008179551122194513,-0.00415556194543157,
0.008229426433915213,-0.0022019697401196754,
0.00827930174563591,0.024160153703230124,
0.00832917705735661,0.005272457050055617,
0.008379052369077307,0.011962906180275797,
0.008428927680798006,0.03221409555054363,
0.008478802992518703,0.009930282483579918,
0.0085286783042394,-0.014091049520719285,
0.0085785536159601,-0.0038305692696372264,
0.008628428927680797,0.024528870925825563,
0.008678304239401496,-0.004982598233151409,
0.008728179551122194,0.018996000560117687,
0.008778054862842893,0.02365301903884172,
0.00882793017456359,0.0067003466472929235,
0.00887780548628429,0.017303502733124365,
0.008927680798004987,-3.6815154695354554e-05,
0.008977556109725686,-0.010238595982155024,
0.009027431421446384,-0.0030262242017908073,
0.009077306733167083,0.002981846019333075,
0.00912718204488778,0.013253959858556007,
0.00917705735660848,0.027452069776128976,
0.009226932668329177,0.047847089617274685,
0.009276807980049876,0.020142491015826866,
0.009326683291770574,0.0037463526629553916,
0.009376558603491271,-0.0063342062658059365,
0.00942643391521197,0.009595236458652234,
0.009476309226932668,-0.015882130811905204,
0.009526184538653367,0.0006785454238313841,
0.009576059850374064,0.0039468430727780945,
0.009625935162094763,0.02615649468026745,
0.00967581047381546,0.02390429924030414,
0.00972568578553616,0.0038573565080323117,
0.009775561097256857,0.0026588195415085322,
0.009825436408977557,0.0200194391871766,
0.009875311720698254,0.027260033233346803,
0.009925187032418953,0.024593207244185428,
0.00997506234413965,0.040947682133251645,
0.01002493765586035,0.021538937721473982,
0.010074812967581047,0.016018933553696248,
0.010124688279301746,-0.010857488304317646,
0.010174563591022444,-0.007665520730865915,
0.010224438902743141,0.013097056747918485,
0.01027431421446384,0.01695462683580776,
0.010324189526184538,0.03677455575801497,
0.010374064837905237,0.029306999995143246,
0.010423940149625935,0.023967697414433442,
0.010473815461346634,0.019516799047680836,
0.010523690773067331,0.03904522786890541,
0.01057356608478803,0.006373781154436375,
0.010623441396508728,-0.014505613412531437,
0.010673316708229427,0.01636295321979178,
0.010723192019950124,0.03693449474885416,
0.010773067331670824,0.012363410278266658,
0.010822942643391521,0.055287549115630746,
0.01087281795511222,0.027384509762612894,
0.010922693266832918,0.01970363193236524,
0.010972568578553617,0.031093214950681604,
0.011022443890274314,0.019245360710226655,
0.011072319201995013,0.010057914725970295,
0.01112219451371571,0.025008998830708232,
0.011172069825436408,0.04471898966866729,
0.011221945137157107,0.03536768406548425,
0.011271820448877805,0.01476479583496711,
0.011321695760598504,0.0016308662229740471,
0.011371571072319201,-0.007712657789444091,
0.0114214463840399,0.04080520101696196,
0.011471321695760598,0.04488734669074926,
0.011521197007481297,-0.004971293486974674,
0.011571072319201995,0.012462918440963058,
0.011620947630922694,-0.002302096245634589,
0.011670822942643391,-0.0003310953909305796,
0.01172069825436409,0.003411195695130851,
0.011770573566084788,0.010075025103122815,
0.011820448877805487,0.02894529026637102,
0.011870324189526184,0.039247863552511184,
0.011920199501246884,0.033394115107603234,
0.011970074812967581,0.0002710710953441296,
0.012019950124688279,0.0013159605489989762,
0.012069825436408978,0.0331482970943549,
0.012119700748129675,0.01936184245836153,
0.012169576059850374,0.015843054885810583,
0.012219451371571072,0.01531645944859458,
0.012269326683291771,0.02160839347694898,
0.012319201995012468,0.0004252989055149002,
0.012369077306733168,0.025200004217314078,
0.012418952618453865,0.03838405354619512,
0.012468827930174564,0.017620394949954293,
0.012518703241895262,0.02960196200224959,
0.01256857855361596,0.03038266441065135,
0.012618453865336658,0.021372248164057913,
0.012668329177057357,0.042909325188520434,
0.012718204488778055,0.05050965185170829,
0.012768079800498754,0.03480286974110471,
0.012817955112219451,0.026215874459586095,
0.012867830423940149,0.036722900129396274,
0.012917705735660848,0.019096491460505804,
0.012967581047381545,0.040740234261793594,
0.013017456359102245,0.01339081655535971,
0.013067331670822942,0.015965836030752526,
0.013117206982543641,0.026043942018493117,
0.013167082294264339,0.024525060920555654,
0.013216957605985038,0.0279570343096866,
0.013266832917705735,0.02543608511365568,
0.013316708229426434,0.021660538047734983,
0.013366583541147132,0.02533783181180181,
0.013416458852867831,0.0070950581420006174,
0.013466334164588529,0.03921657352702254,
0.013516209476309228,0.02432234035808622,
0.013566084788029925,0.034923330473473645,
0.013615960099750624,-0.02171929693111008,
0.013665835411471322,0.0059641095204943165,
0.01371571072319202,0.0064149057298444525,
0.013765586034912718,-0.009145828356714927,
0.013815461346633416,0.021954103319468104,
0.013865336658354115,0.016262893845784596,
0.013915211970074812,0.023090431010144036,
0.013965087281795512,0.020626676100134647,
0.014014962593516209,0.013782338109979413,
0.014064837905236908,0.035417840564370986,
0.014114713216957606,0.00899236779298777,
0.014164588528678305,-0.0018450833477489208,
0.014214463840399002,0.03553218737524651,
0.014264339152119701,0.02702372234272099,
0.014314214463840399,0.028550952069812043,
0.014364089775561098,-0.0027069276185454592,
0.014413965087281795,0.01583837773336016,
0.014463840399002495,0.019479215912035962,
0.014513715710723192,0.005598750298703234,
0.01456359102244389,0.0029090716525936033,
0.014613466334164589,0.022353625556704858,
0.014663341645885286,0.03965475208361778,
0.014713216957605985,0.01862311644051755,
0.014763092269326683,0.04374371107886879,
0.014812967581047382,0.02627720974225777,
0.01486284289276808,0.023477432627334135,
0.014912718204488778,0.03327123717928798,
0.014962593516209476,0.048010362417118216,
0.015012468827930175,0.00439777642663638,
0.015062344139650873,0.005914203975932194,
0.015112219451371572,0.02098745233352672,
0.01516209476309227,0.01899729135142754,
0.015211970074812968,0.029434053426623624,
0.015261845386533666,0.011213001863545024,
0.015311720698254365,0.010569625686566327,
0.015361596009975062,0.005702908199108649,
0.01541147132169576,0.02416675756354491,
0.015461346633416459,0.014762265523588555,
0.015511221945137156,0.025807535515662047,
0.015561097256857856,0.016010325497039585,
0.015610972568578553,0.017434963930180146,
0.015660847880299252,0.03702902977325034,
0.01571072319201995,0.002330959347236806,
0.015760598503740647,0.0003409940637824193,
0.015810473815461346,0.04205351129644225,
0.015860349127182045,0.03252750458089665,
0.015910224438902745,0.001205666829402154,
0.01596009975062344,0.048011328288258,
0.01600997506234414,0.03469771491905368,
0.01605985037406484,0.02533562689740926,
0.016109725685785538,0.007030646974358521,
0.016159600997506234,-0.015971726021347672,
0.016209476309226933,0.007910910731439577,
0.016259351620947632,-0.0024640937089354907,
0.016309226932668328,0.002010998949787463,
0.016359102244389027,0.018091241104085203,
0.016408977556109726,-0.004011907724927936,
0.016458852867830425,-0.007251728610273675,
0.01650872817955112,0.015229287248656498,
0.01655860349127182,0.02756138745476672,
0.01660847880299252,-0.017198252355289028,
0.01665835411471322,0.01218782137250275,
0.016708229426433914,0.004139856896318743,
0.016758104738154613,0.011990125826076864,
0.016807980049875312,0.004684014784953647,
0.01685785536159601,0.008692863874079538,
0.016907730673316707,0.0010310615166675917,
0.016957605985037406,-0.015305123831493532,
0.017007481296758106,-0.00024774051501502865,
0.0170573566084788,0.0244135115238776,
0.0171072319201995,-0.0018523512796449768,
0.0171571072319202,-0.011149939346826173,
0.0172069825436409,0.02180643478930256,
0.017256857855361595,-0.00023013687273819305,
0.017306733167082294,0.0012856888729774192,
0.017356608478802993,0.03659799684405334,
0.017406483790523692,-0.008936841830209544,
0.017456359102244388,0.017108874100163565,
0.017506234413965087,-0.01289700959705622,
0.017556109725685786,0.004995963426605564,
0.017605985037406485,0.01959456756364704,
0.01765586034912718,0.013960984386684713,
0.01770573566084788,0.006282440933626727,
0.01775561097256858,-0.009610551470869665,
0.01780548628428928,-0.012314310532914966,
0.017855361596009974,0.02595410401354,
0.017905236907730673,-0.03001616407846191,
0.017955112219451373,-0.020604731264506928,
0.018004987531172068,-0.03349863885992644,
0.018054862842892767,-0.00881036032947647,
0.018104738154613467,-0.0038322306072526686,
0.018154613466334166,-0.02941007532156022,
0.01820448877805486,-0.0025755211941510155,
0.01825436408977556,-0.010698664112417485,
0.01830423940149626,-0.0075091679907282015,
0.01835411471321696,0.022503202980640447,
0.018403990024937655,-0.0013232079238160487,
0.018453865336658354,-0.03272275490449138,
0.018503740648379053,-0.01285643883104584,
0.018553615960099752,0.03591820459014832,
0.018603491271820448,0.007833305744387805,
0.018653366583541147,0.012071960040687004,
0.018703241895261846,0.004447453805773636,
0.018753117206982542,0.004508330480092814,
0.01880299251870324,0.003492155308062423,
0.01885286783042394,0.010615661249346535,
0.01890274314214464,-0.020750801537169097,
0.018952618453865335,-0.010623076282192823,
0.019002493765586034,0.012877288946581703,
0.019052369077306733,-0.00807425996372556,
0.019102244389027433,-0.001997204592378221,
0.01915211970074813,-0.01943883074309183,
0.019201995012468828,-0.005023119123830703,
0.019251870324189527,-0.012287892312099223,
0.019301745635910226,0.006644328349323292,
0.01935162094763092,-0.04079545109339454,
0.01940149625935162,-0.021433160864293234,
0.01945137157107232,0.0016472730235561513,
0.01950124688279302,0.004690530039905473,
0.019551122194513715,-0.021700984381669765,
0.019600997506234414,-0.03581626287782906,
0.019650872817955113,-0.008714678336812822,
0.01970074812967581,-0.001090272045836586,
0.019750623441396508,-0.015852969193522644,
0.019800498753117207,-0.01751730350080882,
0.019850374064837906,-5.782989382771553e-05,
0.019900249376558602,-0.03546413659086148,
0.0199501246882793,0.004641330136910598,
0.02,0.017689184459090873,
0.0200498753117207,0.012985276000144253,
0.020099750623441395,-0.028997369573752915,
0.020149625935162094,-0.03824126197511906,
0.020199501246882794,-0.01674964459412042,
0.020249376558603493,-0.01845288237225571,
0.02029925187032419,0.0022770421490175257,
0.020349127182044888,-0.01989503145780722,
0.020399002493765587,-0.019091418220272688,
0.020448877805486283,-0.005697199662536338,
0.02049875311720698,-0.0022080127190324816,
0.02054862842892768,-0.00834809898980872,
0.02059850374064838,0.025306282856961477,
0.020648379052369076,-0.008382117122842422,
0.020698254364089775,-0.047363743459791,
0.020748129675810474,0.010263368386963328,
0.020798004987531173,-0.010636570344737296,
0.02084788029925187,-0.003282807319287706,
0.020897755610972568,-0.012472181205552917,
0.020947630922693267,-0.027621017009345668,
0.020997506234413967,-0.012612966048243586,
0.021047381546134662,-0.019022492127370744,
0.02109725685785536,-0.041789210159774715,
0.02114713216957606,-0.001653995521834692,
0.02119700748129676,-0.010717120326090348,
0.021246882793017455,-0.03721075001818008,
0.021296758104738155,-0.022742770854634758,
0.021346633416458854,-0.007974191751465853,
0.02139650872817955,-0.01631299844271731,
0.02144638403990025,-0.0029539109848894934,
0.021496259351620948,-0.037598405108297456,
0.021546134663341647,-0.04462185252142533,
0.021596009975062343,-0.02534196178547359,
0.021645885286783042,-0.01871768915275367,
0.02169576059850374,-0.017288025970035186,
0.02174563591022444,-0.019627486032057818,
0.021795511221945136,-0.025491338234246094,
0.021845386533665835,-0.0016965571594577365,
0.021895261845386534,-0.025180889195894226,
0.021945137157107233,-0.021007909937187937,
0.02199501246882793,0.005244395004395885,
0.02204488778054863,-0.025928393131081626,
0.022094763092269327,-0.030268338984182283,
0.022144638403990027,-0.025908147318756403,
0.022194513715710722,-0.002891855114152398,
0.02224438902743142,-0.01648790008322654,
0.02229426433915212,-0.033395227022326064,
0.022344139650872816,-0.02644541320972402,
0.022394014962593516,-0.038199270071510485,
0.022443890274314215,-0.04916466691502845,
0.022493765586034914,-0.020066671043382226,
0.02254364089775561,-0.030768428173968014,
0.02259351620947631,-0.026120087647442523,
0.022643391521197008,-0.040780544393956036,
0.022693266832917707,-0.011215572004044279,
0.022743142144638403,-0.033855410983000364,
0.022793017456359102,-0.027114189064604582,
0.0228428927680798,-0.030651930473933057,
0.0228927680798005,-0.02379817876895303,
0.022942643391521196,-0.017421324660770267,
0.022992518703241895,-0.018781746489990286,
0.023042394014962594,-0.01806675813738961,
0.02309226932668329,-0.004397308798844051,
0.02314214463840399,-0.03750436363146342,
0.02319201995012469,-0.02492715809008893,
0.023241895261845388,-0.008491221232419561,
0.023291770573566083,-0.01615303627218615,
0.023341645885286783,-0.0032511540200750224,
0.02339152119700748,-0.008017782409303852,
0.02344139650872818,-0.018007518025240983,
0.023491271820448877,0.0045646065351599915,
0.023541147132169576,-0.017616799803043627,
0.023591022443890275,-0.023162760459243734,
0.023640897755610974,-0.003767534352444535,
0.02369077306733167,-0.036855288396317396,
0.02374064837905237,-0.007582194940486788,
0.023790523690773068,-0.038509441619899304,
0.023840399002493767,-0.015634167027558814,
0.023890274314214463,-0.02647211309234999,
0.023940149625935162,0.014826567759282046,
0.02399002493765586,0.011430753971072134,
0.024039900249376557,0.006154764686992328,
0.024089775561097256,-0.007805259032457892,
0.024139650872817955,-0.0018083989902571516,
0.024189526184538655,-0.027040620800963602,
0.02423940149625935,-0.02846540378798472,
0.02428927680798005,-0.0013043178325647282,
0.02433915211970075,-0.014613398934132563,
0.024389027431421448,-0.03204033434464554,
0.024438902743142144,-0.013950780808145831,
0.024488778054862843,-0.03210606322912786,
0.024538653366583542,-0.019022617007991568,
0.02458852867830424,0.013591026959553706,
0.024638403990024937,-0.02474121858009068,
0.024688279301745636,0.01673005561781931,
0.024738154613466335,-0.014518189526175647,
0.02478802992518703,0.002847692888580439,
0.02483790523690773,-0.00171115438449892,
0.02488778054862843,0.019816727043455724,
0.02493765586034913,-0.02194904855646629,
0.024987531172069824,-0.01104180499315086,
0.025037406483790523,-0.03294167630767732,
0.025087281795511222,0.004459229541786692,
0.02513715710723192,-0.007308356120278603,
0.025187032418952617,-0.015848665012551853,
0.025236907730673316,0.001804230158270215,
0.025286783042394016,-0.01801540730121621,
0.025336658354114715,-0.007387747162799925,
0.02538653366583541,-0.014667358220769335,
0.02543640897755611,-0.016314576455708357,
0.02548628428927681,0.0030349135004954734,
0.025536159600997508,-0.010478190273397676,
0.025586034912718204,0.009445216037691046,
0.025635910224438903,0.009409111711700752,
0.025685785536159602,0.006319989158292452,
0.025735660847880298,-0.0033816856787361035,
0.025785536159600997,0.001552611653986567,
0.025835411471321696,0.001938050215989872,
0.025885286783042395,-0.019618159965352655,
0.02593516209476309,-0.028468304505602997,
0.02598503740648379,0.006843679112248073,
0.02603491271820449,0.0023481459050313097,
0.02608478802992519,-0.007553869429464103,
0.026134663341645884,0.00858909646369046,
0.026184538653366583,0.0076604567574478895,
0.026234413965087282,-0.012321787202569398,
0.02628428927680798,0.010755136569784968,
0.026334164588528677,-0.004812012599735337,
0.026384039900249377,-0.012376907173398103,
0.026433915211970076,0.010090488527748463,
0.02648379052369077,0.013434042279543585,
0.02653366583541147,-0.014894755462189714,
0.02658354114713217,0.009045458218281722,
0.02663341645885287,0.017299601636006818,
0.026683291770573565,0.00709683880542215,
0.026733167082294264,0.030254012133140988,
0.026783042394014963,-0.0148432561519809,
0.026832917705735662,-0.0035018663373039805,
0.026882793017456358,-0.0023625046992269824,
0.026932668329177057,-0.029122284355768076,
0.026982543640897756,0.0039612159331230586,
0.027032418952618455,0.00682624994823393,
0.02708229426433915,-0.029882674751821728,
0.02713216957605985,-0.0031546828417011565,
0.02718204488778055,0.00630336434667896,
0.02723192019950125,-0.004398724220401766,
0.027281795511221944,-0.0020376121777953334,
0.027331670822942643,-0.0030235865795999674,
0.027381546134663343,0.011244374759111116,
0.02743142144638404,0.025057622804129508,
0.027481296758104738,0.012464282457088624,
0.027531172069825437,-0.013289388792841183,
0.027581047381546136,0.036445057450893985,
0.02763092269326683,0.003021445854926182,
0.02768079800498753,0.011141894898943232,
0.02773067331670823,0.021723518951147682,
0.02778054862842893,0.010180882558467521,
0.027830423940149625,0.03092960037979018,
0.027880299251870324,0.011882166638164812,
0.027930174563591023,0.006404029143389591,
0.027980049875311722,0.01027694828169409,
0.028029925187032418,-0.0031744575285369073,
0.028079800498753117,0.011840849028066334,
0.028129675810473816,-0.011738275536867036,
0.028179551122194512,-0.013889403643753892,
0.02822942643391521,0.0029480960906171395,
0.02827930174563591,0.005844294798713645,
0.02832917705735661,0.04867557742166806,
0.028379052369077305,0.03166149216774608,
0.028428927680798004,-0.014510375414128708,
0.028478802992518704,0.008804468476754335,
0.028528678304239403,-0.010891228136151815,
0.0285785536159601,0.008401749317296469,
0.028628428927680798,0.016351926039179704,
0.028678304239401497,-0.016614425805723212,
0.028728179551122196,-0.0038674898133291176,
0.02877805486284289,-0.006409549928247207,
0.02882793017456359,0.011419259093066614,
0.02887780548628429,0.012172611832142443,
0.02892768079800499,0.023835487375250056,
0.028977556109725685,-0.0013620576656845108,
0.029027431421446384,0.008643833849825509,
0.029077306733167083,-0.005878579109053133,
0.02912718204488778,0.002776203987114265,
0.029177057356608478,0.012597966052767482,
0.029226932668329177,0.02193692754065818,
0.029276807980049877,0.03636106353031262,
0.029326683291770572,0.0037411564658047392,
0.02937655860349127,0.0015842552346497646,
0.02942643391521197,0.0038873835582115667,
0.02947630922693267,0.02976940019130228,
0.029526184538653365,0.002471466242729847,
0.029576059850374065,-0.007517249791650396,
0.029625935162094764,0.022892266047611638,
0.029675810473815463,0.019174022315637047,
0.02972568578553616,0.03361186824008519,
0.029775561097256858,0.030369491205105088,
0.029825436408977557,0.019217067630501655,
0.029875311720698253,0.026930182162758318,
0.029925187032418952,0.01633372711548182,
0.02997506234413965,0.009116153206604308,
0.03002493765586035,0.03274347521167695,
0.030074812967581046,0.00045560203310092764,
0.030124688279301745,0.007047183699289344,
0.030174563591022444,0.009799594893250567,
0.030224438902743143,0.013096712006140527,
0.03027431421446384,0.03193527680962652,
0.03032418952618454,0.007403151747729824,
0.030374064837905237,0.017903814003423158,
0.030423940149625937,0.013623688147783409,
0.030473815461346632,0.031023562204874774,
0.03052369077306733,0.04093424377255691,
0.03057356608478803,0.02872470766035041,
0.03062344139650873,-0.01027582515452995,
0.030673316708229426,0.021151096764653907,
0.030723192019950125,0.04075854412516647,
0.030773067331670824,0.03361760261027084,
0.03082294264339152,0.0018821350220455182,
0.03087281795511222,0.0028471440250388905,
0.030922693266832918,0.016031303670675248,
0.030972568578553617,0.03441352184870343,
0.031022443890274313,0.04860393330196246,
0.031072319201995012,0.028355198813220225,
0.03112219451371571,0.008402364925215839,
0.03117206982543641,0.02719690484173519,
0.031221945137157106,-0.006013691980266755,
0.03127182044887781,0.000228305186055551,
0.031321695760598504,0.0291494639572937,
0.0313715710723192,0.005667190522499654,
0.0314214463840399,0.022230712931546253,
0.0314713216957606,0.014476611216521905,
0.031521197007481294,-0.004379845064356111,
0.031571072319202,0.028096259784336705,
0.03162094763092269,0.03419595555360405,
0.03167082294264339,0.003431679590855833,
0.03172069825436409,-0.006766570993129956,
0.03177057356608479,0.04083189680953749,
0.03182044887780549,0.015805179674724914,
0.031870324189526185,0.01200342578052209,
0.03192019950124688,-0.01163315832991026,
0.03197007481296758,0.0280921699206691,
0.03201995012468828,0.006615609785272602,
0.032069825436408975,0.025305039924681492,
0.03211970074812968,0.044074359514929516,
0.03216957605985037,0.0385681587276738,
0.032219451371571076,0.02723032411998571,
0.03226932668329177,0.00459455825001864,
0.03231920199501247,0.037306476168042224,
0.03236907730673317,0.009721978339551799,
0.032418952618453865,0.029972607780124234,
0.03246882793017456,0.033064445290150346,
0.032518703241895264,0.03620840523349437,
0.03256857855361596,0.028364025221109555,
0.032618453865336655,0.02132111777540438,
0.03266832917705736,0.03866907510248602,
0.032718204488778053,0.016683718645972647,
0.032768079800498756,0.025561951142146877,
0.03281795511221945,0.018008428954508177,
0.03286783042394015,0.046599081030252364,
0.03291770573566085,0.04879402886544364,
0.032967581047381546,-0.0034057025412512418,
0.03301745635910224,0.0632222421796231,
0.033067331670822944,-0.0030283156455226633,
0.03311720698254364,0.03533405799393452,
0.03316708229426434,0.02960460476324492,
0.03321695760598504,0.0192807789342819,
0.033266832917705734,0.022167539008939283,
0.03331670822942644,0.0543630585080264,
0.03336658354114713,0.03862330115553972,
0.03341645885286783,0.05165893753212518,
0.03346633416458853,0.010430710514207997,
0.033516209476309226,0.023380577435295223,
0.03356608478802992,0.03519692940231216,
0.033615960099750625,0.02102145398167253,
0.03366583541147132,0.009579813831337495,
0.03371571072319202,0.0296750420628847,
0.03376558603491272,0.02822849155939575,
0.033815461346633414,0.034610510913348484,
0.03386533665835412,0.02465205365718134,
0.03391521197007481,0.02623669435476255,
0.03396508728179551,0.028531506171194116,
0.03401496259351621,0.012172527977360875,
0.03406483790523691,0.04236317052460912,
0.0341147132169576,0.010242678720961827,
0.034164588528678305,0.010429550212473205,
0.034214463840399,0.014321154870023011,
0.034264339152119704,0.018994968695400186,
0.0343142144638404,0.010019186376540003,
0.034364089775561095,-0.01140046910831903,
0.0344139650872818,-0.0072128944633268535,
0.03446384039900249,0.004614343152121135,
0.03451371571072319,0.02738491039868584,
0.03456359102244389,0.027096109459975773,
0.03461346633416459,0.02945621162231523,
0.03466334164588529,0.03054282121287459,
0.034713216957605986,0.01148837705820736,
0.03476309226932668,0.028155480664481057,
0.034812967581047384,0.018603726573095097,
0.03486284289276808,0.010158272415394753,
0.034912718204488775,-0.002469421888520555,
0.03496259351620948,-0.0003301413857509927,
0.035012468827930174,0.016367747839266086,
0.03506234413965087,0.04935932763523369,
0.03511221945137157,0.038236816707692634,
0.03516209476309227,-0.01230024311006399,
0.03521197007481297,-0.018860179388398568,
0.035261845386533666,-0.0034036706160693268,
0.03531172069825436,0.028843710750158368,
0.035361596009975065,0.02807789017655241,
0.03541147132169576,0.012931811279128564,
0.035461346633416456,0.024169691830795214,
0.03551122194513716,-0.0059291989071917715,
0.035561097256857854,-0.009742874937305364,
0.03561097256857856,0.014017310532243074,
0.03566084788029925,0.014722248027057605,
0.03571072319201995,0.03697832138145269,
0.03576059850374065,0.010412986728075259,
0.03581047381546135,0.004594922828749983,
0.03586034912718204,-0.0037991998675636733,
0.035910224438902745,0.024762606014888666,
0.03596009975062344,-0.0014200467734343785,
0.036009975062344136,-0.01873541795837272,
0.03605985037406484,0.019327169696561772,
0.036109725685785535,0.005322925132875206,
0.03615960099750624,0.02270958463971228,
0.03620947630922693,0.00494312811449839,
0.03625935162094763,0.02985751904424575,
0.03630922693266833,0.006890760472671894,
0.03635910224438903,-0.019850435956846428,
0.03640897755610972,0.02144456217615842,
0.036458852867830426,0.013196053167037858,
0.03650872817955112,0.0036217813116269856,
0.036558603491271824,0.009744629983629878,
0.03660847880299252,0.007378732341868768,
0.036658354114713215,0.0055657888577611584,
0.03670822942643392,0.015193838282271777,
0.036758104738154614,-0.012028469488302338,
0.03680798004987531,-0.025023895222284806,
0.03685785536159601,-0.0040216192155677205,
0.03690773067331671,0.01628556950517451,
0.0369576059850374,-0.0003322855845867938,
0.037007481296758106,0.009855649523645645,
0.0370573566084788,-0.0019642651335274423,
0.037107231920199504,-0.007777712494482992,
0.0371571072319202,0.0034436790074832057,
0.037206982543640896,0.013663711543329361,
0.0372568578553616,1.7969260741114955e-05,
0.037306733167082294,-0.006055362131822459,
0.03735660847880299,0.03343008497201212,
0.03740648379052369,0.02789598418372503,
0.03745635910224439,-0.017242241095072816,
0.037506234413965084,0.0056516246183920555,
0.037556109725685786,-0.013611602919980427,
0.03760598503740648,0.022290090447743043,
0.037655860349127185,-0.007005580577127008,
0.03770573566084788,0.04541993950839787,
0.037755610972568576,-0.028462625109726903,
0.03780548628428928,-0.004125250389726618,
0.037855361596009975,-0.026096988067623027,
0.03790523690773067,0.0024265337615291087,
0.03795511221945137,-0.0009879422868760983,
0.03800498753117207,-0.00343172034455406,
0.03805486284289277,-0.014825617541792104,
0.03810473815461347,0.0041320327608931106,
0.03815461346633416,-0.005438494296535128,
0.038204488778054865,-0.022280081049575035,
0.03825436408977556,0.014557175180256322,
0.03830423940149626,0.017750638068777747,
0.03835411471321696,-0.02740325890694698,
0.038403990024937655,0.03890787083883762,
0.03845386533665835,0.03801725452783037,
0.03850374064837905,0.019511307832408047,
0.03855361596009975,0.000856734039232661,
0.03860349127182045,-0.0023864846781363556,
0.03865336658354115,0.008593576131650012,
0.03870324189526184,0.007747039473920719,
0.038753117206982546,-0.028438142070126404,
0.03880299251870324,-0.01216020261602721,
0.03885286783042394,0.00344966833662065,
0.03890274314214464,-0.02606239177586587,
0.038952618453865336,-0.01819437540085235,
0.03900249376558604,0.017692769114971627,
0.039052369077306734,0.006881920273008341,
0.03910224438902743,-0.019495655105826674,
0.03915211970074813,-0.002639963102774816,
0.03920199501246883,-0.014901033493393306,
0.039251870324189524,0.03881662634195722,
0.039301745635910226,-0.017792249111142334,
0.03935162094763092,-0.00453637102525425,
0.03940149625935162,-0.015396482272602038,
0.03945137157107232,-0.03025913078197303,
0.039501246882793016,-0.01610191746084249,
0.03955112219451372,-0.03412861024663878,
0.039600997506234414,-0.0042098418637501285,
0.03965087281795511,-0.007933797508474671,
0.03970074812967581,-0.013920895755693306,
0.03975062344139651,-0.01322681805811034,
0.039800498753117204,-0.017583149630400894,
0.03985037406483791,-0.02014972888325248,
0.0399002493765586,0.016965442608047488,
0.039950124688279305,-0.014772571742662971,
0.04,-0.00928024319512298,
0.0400498753117207,-0.024890420255280342,
0.0400997506234414,0.003256649039209183,
0.040149625935162095,-0.00650133352101283,
0.04019950124688279,-0.004624537725877804,
0.04024937655860349,-0.023874542888806853,
0.04029925187032419,-0.02542492425225492,
0.040349127182044885,-0.0019828316919651614,
0.04039900249376559,-0.030714479320212977,
0.04044887780548628,-0.037422234947608705,
0.040498753117206986,0.005301306348951058,
0.04054862842892768,-0.021424077349391894,
0.04059850374064838,-0.019553197785422607,
0.04064837905236908,-0.002496320621792881,
0.040698254364089775,-0.028751919865805796,
0.04074812967581047,-0.05025224667810936,
0.040798004987531174,-0.03385432190278653,
0.04084788029925187,-0.02583440226320241,
0.040897755610972565,-0.018970686067023717,
0.04094763092269327,-0.03393117143856991,
0.04099750623441396,-0.02519446829951026,
0.041047381546134666,-0.002409914641553509,
0.04109725685785536,-0.0016197014279273562,
0.04114713216957606,-0.019510273278172886,
0.04119700748129676,0.0038713283774753117,
0.041246882793017456,-0.04597740267101978,
0.04129675810473815,-0.02272546118469752,
0.041346633416458854,-0.016611200284728345,
0.04139650872817955,-0.009906472219155303,
0.04144638403990025,-0.00617609928350093,
0.04149625935162095,-0.020053769610545127,
0.041546134663341644,-0.013039560988976268,
0.04159600997506235,-0.033245449200829114,
0.04164588528678304,-0.006212882515002559,
0.04169576059850374,-0.000556871853754571,
0.04174563591022444,-0.02119379456845289,
0.041795511221945136,-0.027168650230262846,
0.04184538653366583,0.00629442695687462,
0.041895261845386535,-0.009915819738119036,
0.04194513715710723,0.0010072589374517937,
0.04199501246882793,-0.02604453464132786,
0.04204488778054863,-0.02522301351351336,
0.042094763092269324,-0.020442504198378435,
0.04214463840399003,-0.02376788538753419,
0.04219451371571072,-0.007294894943386674,
0.04224438902743142,-0.0039155667097590195,
0.04229426433915212,-0.015723151328884934,
0.04234413965087282,-0.009420868020819956,
0.04239401496259352,-0.04174529457216636,
0.042443890274314215,-0.018182696777572418,
0.04249376558603491,-0.02232230435458552,
0.042543640897755614,-0.024724706420017513,
0.04259351620947631,-0.020034458867234303,
0.042643391521197005,-0.011870730038855245,
0.04269326683291771,-0.0013818156625072606,
0.0427431421446384,0.0005123154369876849,
0.0427930174563591,-0.036780683487245086,
0.0428428927680798,-0.008248647599080082,
0.0428927680798005,-0.02985245576774933,
0.0429426433915212,-0.01320204613017173,
0.042992518703241896,-0.028498720864945815,
0.04304239401496259,-0.013155852884721124,
0.043092269326683294,-0.007250997975673981,
0.04314214463840399,0.007460599778734676,
0.043192019950124685,-0.01585893594638956,
0.04324189526184539,-0.01704580344181352,
0.043291770573566084,-0.012884585875939467,
0.043341645885286786,-0.007121411948083526,
0.04339152119700748,0.0047026460864555905,
0.04344139650872818,-0.04702574679497267,
0.04349127182044888,-0.027356681795012393,
0.043541147132169576,-0.012709218954654794,
0.04359102244389027,-0.012662725229074807,
0.043640897755610975,-0.021111358706223528,
0.04369077306733167,-0.01750492201663004,
0.043740648379052366,-0.029610177543436415,
0.04379052369077307,-0.004327826650328196,
0.043840399002493764,-0.011158472488896206,
0.04389027431421447,-0.007910005531858848,
0.04394014962593516,0.00029507658363425206,
0.04399002493765586,0.012988312062458592,
0.04403990024937656,-0.014672977385553293,
0.04408977556109726,-0.027949214279684734,
0.04413965087281795,-0.015841642708518282,
0.044189526184538655,-0.0283646093473019,
0.04423940149625935,-0.013557217682218943,
0.04428927680798005,-0.02293196038000959,
0.04433915211970075,-0.039513118509703245,
0.044389027431421445,-0.008599967034615623,
0.04443890274314215,-0.022151429939513433,
0.04448877805486284,-0.00018199739852881557,
0.04453865336658354,-0.02142022443373283,
0.04458852867830424,-0.016600406040648254,
0.04463840399002494,0.007232373036206836,
0.04468827930174563,-0.02333771244270271,
0.044738154613466335,-0.0007771818621787486,
0.04478802992518703,-0.006548600226943434,
0.044837905236907734,0.014994566237480068,
0.04488778054862843,-0.040996802657540105,
0.044937655860349125,-0.0016017657171697956,
0.04498753117206983,-0.012315801000130246,
0.045037406483790524,0.0157512660347321,
0.04508728179551122,-0.0069972066026857994,
0.04513715710723192,-0.025056295151211005,
0.04518703241895262,-0.030237560557402447,
0.04523690773067331,-0.034897999742663645,
0.045286783042394016,-0.027355753893466957,
0.04533665835411471,-0.01036459927520914,
0.045386533665835414,-0.017656118061681422,
0.04543640897755611,-0.028215638986446488,
0.045486284289276806,-0.028511669556446545,
0.04553615960099751,-0.034367825600110126,
0.045586034912718204,-0.007937828706940327,
0.0456359102244389,-0.01163849262069604,
0.0456857855361596,-0.0070785449761966695,
0.0457356608478803,-0.016435831520297074,
0.045785536159601,-0.012349407092063105,
0.045835411471321696,-0.019063422529624147,
0.04588528678304239,-0.010391379233267216,
0.045935162094763095,-0.033802647797494964,
0.04598503740648379,-0.01082447770107614,
0.046034912718204486,-0.017553488457503874,
0.04608478802992519,0.009401758559651852,
0.046134663341645885,-0.014683292632706112,
0.04618453865336658,-0.028570988723453997,
0.04623441396508728,-0.006866551502249914,
0.04628428927680798,0.024443088842334718,
0.04633416458852868,0.005332420404520316,
0.04638403990024938,0.01061657951322927,
0.04643391521197007,-0.020801426614371135,
0.046483790523690775,0.0043058670797944424,
0.04653366583541147,0.009353380551700582,
0.04658354114713217,-0.007380775265301402,
0.04663341645885287,-0.0011069371781279264,
0.046683291770573565,-0.002808901413517969,
0.04673316708229427,-0.023488141045430413,
0.04678304239401496,0.007105946859639738,
0.04683291770573566,-0.0055531460483907065,
0.04688279301745636,0.0010603049279531197,
0.04693266832917706,0.016516430051065442,
0.04698254364089775,-0.00604701438117989,
0.047032418952618456,-0.0013171879780012117,
0.04708229426433915,0.0005124254678113959,
0.04713216957605985,-0.0057734573686234695,
0.04718204488778055,0.01458604010869809,
0.047231920199501246,-0.0036316898187138983,
0.04728179551122195,-0.014469380206085269,
0.047331670822942644,0.005099901306005042,
0.04738154613466334,0.007280300396089961,
0.04743142144638404,-0.0035769879792385915,
0.04748129675810474,-0.018388264399385842,
0.047531172069825434,-0.0036828854201824855,
0.047581047381546136,-0.005011811507043919,
0.04763092269326683,0.015449874619070218,
0.047680798004987535,0.002258242373070658,
0.04773067331670823,0.025805433393375793,
0.047780548628428926,-0.008992280154956444,
0.04783042394014963,-0.0029665210049661904,
0.047880299251870324,0.02432186119765508,
0.04793017456359102,0.004127615568199867,
0.04798004987531172,0.017280625023242298,
0.04802992518703242,-0.007569006539417078,
0.048079800498753114,0.039632281984106385,
0.04812967581047382,0.03303355832932911,
0.04817955112219451,0.0216273515334817,
0.048229426433915215,0.013472939523291958,
0.04827930174563591,0.020076374526835805,
0.048329177057356607,0.00808720664595157,
0.04837905236907731,0.01213448555473676,
0.048428927680798005,-0.001177083085824756,
0.0484788029925187,0.027736700069691693,
0.0485286783042394,0.0009409153239440943,
0.0485785536159601,0.0016134750511778932,
0.048628428927680795,0.01633054499622421,
0.0486783042394015,0.01233697686098171,
0.04872817955112219,0.029567737813396344,
0.048778054862842896,-0.0032243192639425863,
0.04882793017456359,0.0173457505295246,
0.04887780548628429,0.006165044404987743,
0.04892768079800499,0.021682131526200715,
0.048977556109725685,0.004945461407423933,
0.04902743142144638,0.02991320192449593,
0.049077306733167084,0.004635926037064494,
0.04912718204488778,0.024637462163197524,
0.04917705735660848,0.011471447022605868,
0.04922693266832918,0.013688919091743735,
0.04927680798004987,0.02017987096545187,
0.049326683291770576,-0.006799750425830673,
0.04937655860349127,0.02293123980368783,
0.04942643391521197,0.02348012151960263,
0.04947630922693267,0.019308211457868377,
0.049526184538653366,0.008859127639520698,
0.04957605985037406,0.012251278799847522,
0.049625935162094764,0.029300009824385333,
0.04967581047381546,-4.5042734552892816e-05,
0.04972568578553616,0.013531134124915335,
0.04977556109725686,0.03131630964206362,
0.049825436408977554,-0.008398618537382552,
0.04987531172069826,0.044361458361654074,
0.04992518703241895,0.028764100125129144,
0.04997506234413965,0.010907290131901464,
0.05002493765586035,0.022009246488035025,
0.050074812967581046,0.035575295356048045,
0.05012468827930175,0.024368079867455452,
0.050174563591022445,0.03666161474474253,
0.05022443890274314,0.030314878859568455,
0.05027431421446384,0.01688583458167567,
0.05032418952618454,0.011190571360555152,
0.050374064837905234,0.0405538499152549,
0.05042394014962594,0.03483732816522274,
0.05047381546134663,-0.006214851855606992,
0.05052369077306733,0.026833054178329895,
0.05057356608478803,0.013830852729551032,
0.05062344139650873,-0.00015650569253686242,
0.05067331670822943,0.01711033478140539,
0.050723192019950125,0.013045999457967226,
0.05077306733167082,0.03863801625667788,
0.050822942643391524,0.021446972270178867,
0.05087281795511222,0.014281809921212696,
0.050922693266832915,0.02564689110757727,
0.05097256857855362,0.031133448260094954,
0.05102244389027431,0.02242481961305529,
0.051072319201995016,-0.004941713555282775,
0.05112219451371571,0.03168684252964487,
0.05117206982543641,0.040607695082747336,
0.05122194513715711,0.025836701600335642,
0.051271820448877806,0.06616268291851392,
0.0513216957605985,0.024175615035670582,
0.051371571072319204,0.043680802187738524,
0.0514214463840399,0.028859116627586244,
0.051471321695760595,0.020058245081707476,
0.0515211970074813,-0.002670693631507723,
0.051571072319201994,0.01300710046167627,
0.051620947630922696,0.03233042324248318,
0.05167082294264339,0.03465824277399911,
0.05172069825436409,-0.01743268393592304,
0.05177057356608479,0.0459106332969248,
0.051820448877805486,0.02242920577471602,
0.05187032418952618,0.04613432928438868,
0.051920199501246884,0.0036143669487791324,
0.05197007481296758,0.004359196737629141,
0.052019950124688276,0.025107451260115977,
0.05206982543640898,-0.0054831640079308665,
0.052119700748129674,0.03441889041956572,
0.05216957605985038,0.011397680117947744,
0.05221945137157107,0.005289787986738664,
0.05226932668329177,0.0034136342417295205,
0.05231920199501247,0.0039707739324285896,
0.05236907730673317,0.043341848016297424,
0.05241895261845386,0.035222580990736836,
0.052468827930174565,0.001904930092516733,
0.05251870324189526,0.01901561280633421,
0.05256857855361596,0.02617904624940797,
0.05261845386533666,0.03435514949554652,
0.052668329177057355,0.03491992193713056,
0.05271820448877806,0.039556473704076764,
0.05276807980049875,0.0028956232659445996,
0.05281795511221945,0.044144144304793624,
0.05286783042394015,0.040300390143960786,
0.05291770573566085,0.02476465903326742,
0.05296758104738154,0.010292181641405006,
0.053017456359102245,0.03571916921104458,
0.05306733167082294,0.037375262351892966,
0.053117206982543644,0.006474303385436669,
0.05316708229426434,0.0062311181082053795,
0.053216957605985035,0.03555508850091328,
0.05326683291770574,0.03367422945809545,
0.053316708229426434,0.009910301655898764,
0.05336658354114713,0.01718448277913964,
0.05341645885286783,0.012513007943824168,
0.05346633416458853,0.011719513264960695,
0.05351620947630923,0.002313277252014752,
0.053566084788029926,0.022114543846749466,
0.05361596009975062,-0.0007634519187956906,
0.053665835411471324,0.008097197830442554,
0.05371571072319202,0.02499766060151489,
0.053765586034912716,0.041409899524303115,
0.05381546134663342,0.02656291704564943,
0.053865336658354114,0.05227209036703333,
0.05391521197007481,0.022331531998078854,
0.05396508728179551,0.026058989117732207,
0.05401496259351621,0.00781458031369739,
0.05406483790523691,-0.010871491551634926,
0.054114713216957606,0.012558119008105257,
0.0541645885286783,0.03021871033636145,
0.054214463840399005,0.02977934276900086,
0.0542643391521197,0.023306517210021485,
0.054314214463840396,-0.012901097682075535,
0.0543640897755611,0.039822726571449515,
0.054413965087281795,0.038347550678152924,
0.0544638403990025,0.009100969184330749,
0.05451371571072319,0.0158918252094747,
0.05456359102244389,0.01756237759243801,
0.05461346633416459,0.016199476746075876,
0.05466334164588529,0.008399403854719713,
0.05471321695760598,0.02073907498696653,
0.054763092269326685,0.013958399934209519,
0.05481296758104738,0.019371843438619432,
0.05486284289276808,0.015193047188156998,
0.05491271820448878,0.00947528987703116,
0.054962593516209475,0.026498414701689905,
0.05501246882793018,0.026073493068083285,
0.05506234413965087,0.034286403309165464,
0.05511221945137157,0.019835335613608132,
0.05516209476309227,0.017999423593740346,
0.05521197007481297,0.0002202030027765034,
0.05526184538653366,0.02082353162339868,
0.055311720698254366,0.02732050349263284,
0.05536159600997506,0.0238962540252923,
0.05541147132169576,-0.010333333195804324,
0.05546134663341646,0.013831002327710933,
0.055511221945137156,0.005285413050241274,
0.05556109725685786,0.022638725583748163,
0.055610972568578554,-0.010731513950878182,
0.05566084788029925,0.01569307075141355,
0.05571072319201995,0.004349906470165074,
0.05576059850374065,0.029884388750105947,
0.055810473815461344,0.02901068502589109,
0.055860349127182046,0.03050457266601163,
0.05591022443890274,0.01500897969656891,
0.055960099750623445,-0.005696467593175734,
0.05600997506234414,0.005189058011627527,
0.056059850374064836,0.018744220856609334,
0.05610972568578554,-0.004286745199502836,
0.056159600997506234,0.008572937718890991,
0.05620947630922693,-0.00035808184365085545,
0.05625935162094763,0.010826825987175295,
0.05630922693266833,-0.004477148919985987,
0.056359102244389024,0.02411092442822993,
0.05640897755610973,0.006848758437966784,
0.05645885286783042,0.021151786532219927,
0.056508728179551125,-0.019628733527903654,
0.05655860349127182,0.009480844616829302,
0.056608478802992516,0.0031339334297830687,
0.05665835411471322,-0.0010071921427798301,
0.056708229426433915,0.005095210746790564,
0.05675810473815461,0.010595199259847959,
0.05680798004987531,0.037815401199068635,
0.05685785536159601,0.01152035426849149,
0.05690773067331671,-0.00284473524647238,
0.05695760598503741,0.004208741636230388,
0.0570074812967581,0.006104988966460924,
0.057057356608478806,0.036753229629217954,
0.0571072319201995,0.003453693916251761,
0.0571571072319202,0.013593592244904732,
0.0572069825436409,-0.011519289322641435,
0.057256857855361595,0.006143205730009655,
0.05730673316708229,-1.2957340322325081e-05,
0.057356608478802994,-0.0006476393828277055,
0.05740648379052369,0.028014253875562126,
0.05745635910224439,-0.0017683106959455164,
0.05750623441396509,-0.0007109267588104179,
0.05755610972568578,0.009481263086646962,
0.057605985037406486,0.010320868340149811,
0.05765586034912718,-0.011258833638810764,
0.05770573566084788,0.00826354277836185,
0.05775561097256858,0.005166931520420642,
0.057805486284289276,0.0014963391645174014,
0.05785536159600998,0.014750105976189677,
0.057905236907730674,0.01335502926745224,
0.05795511221945137,-0.002116302054221179,
0.05800498753117207,-0.011189715806301091,
0.05805486284289277,0.007715781272752804,
0.058104738154613464,0.02247168279930154,
0.05815461346633417,-0.002875934763201055,
0.05820448877805486,-0.010549196126296059,
0.05825436408977556,0.002889222613809762,
0.05830423940149626,0.004492295883966828,
0.058354114713216956,0.007446712206470561,
0.05840399002493766,0.01364202196675416,
0.058453865336658355,-0.01187107781804702,
0.05850374064837905,-0.039004205383183825,
0.05855361596009975,-0.01536444492484385,
0.05860349127182045,0.010102050932984372,
0.058653366583541144,-0.012936379976149288,
0.05870324189526185,-0.0016744597877890038,
0.05875311720698254,-0.014328086979421784,
0.05880299251870324,-0.0046195023642776984,
0.05885286783042394,0.006665044293975733,
0.05890274314214464,0.01574263502096734,
0.05895261845386534,0.0012357034879433649,
0.059002493765586035,0.0057672594387685565,
0.05905236907730673,-0.04183776279707225,
0.059102244389027433,-0.00846080406113658,
0.05915211970074813,-0.020516908987494756,
0.059201995012468825,-0.006376211894576668,
0.05925187032418953,-0.005437954327410248,
0.05930174563591022,-0.007471880982969136,
0.059351620947630926,-0.0020640745890369676,
0.05940149625935162,0.026661908121177164,
0.05945137157107232,0.030962145955840577,
0.05950124688279302,-0.004889810830443904,
0.059551122194513716,-0.02087803260895783,
0.05960099750623441,-0.04114417448466956,
0.059650872817955114,-0.013418827153207157,
0.05970074812967581,-0.0123164687183215,
0.059750623441396505,-0.007719118301514038,
0.05980049875311721,0.014358798282410754,
0.059850374064837904,-0.01250371679138663,
0.059900249376558606,0.002170713608731785,
0.0599501246882793,0.003857285411680062,
0.06,0.0037128494708089637,
0.0600498753117207,-0.022614419376872558,
0.060099750623441396,0.027329054216003613,
0.06014962593516209,-0.0006387355161399898,
0.060199501246882794,-0.024962403206678817,
0.06024937655860349,-0.018227720126379975,
0.06029925187032419,-0.01577386115240701,
0.06034912718204489,-0.00179473948457207,
0.060399002493765584,-0.026920299610339756,
0.06044887780548629,-0.02128000078244851,
0.06049875311720698,0.002249122087624027,
0.06054862842892768,-0.005871527885394599,
0.06059850374064838,-0.009536028858642449,
0.06064837905236908,-0.011622034375541539,
0.06069825436408977,-0.003459816637740823,
0.060748129675810475,-0.026150928916061047,
0.06079800498753117,-0.03294426130478405,
0.06084788029925187,-0.017304697989635905,
0.06089775561097257,-0.02769488926306065,
0.060947630922693265,-0.012516414166956591,
0.06099750623441397,-0.0002165999672352186,
0.06104738154613466,-0.016333134340558542,
0.06109725685785536,-0.027212025688539254,
0.06114713216957606,-0.01456971489446219,
0.06119700748129676,-0.022742742245137112,
0.06124688279301746,-0.02486405852089313,
0.061296758104738155,-0.002945500762639379,
0.06134663341645885,-0.01671648750141635,
0.061396508728179554,-0.002852819287436057,
0.06144638403990025,-0.0024134191370466847,
0.061496259351620945,-0.011056683473509542,
0.06154613466334165,-0.0010375352179594483,
0.061596009975062344,0.004549732182842613,
0.06164588528678304,0.0004076155442517635,
0.06169576059850374,-0.00501372203438946,
0.06174563591022444,0.010273065386023232,
0.06179551122194514,0.0074323049986933145,
0.061845386533665836,-0.032248581966397884,
0.06189526184538653,0.017069711162870156,
0.061945137157107234,-0.02844218052553324,
0.06199501246882793,-0.025231555018025043,
0.062044887780548626,-0.0009338546483708011,
0.06209476309226933,-0.023321532186073905,
0.062144638403990024,-0.016959554142547437,
0.06219451371571072,-0.018550305785430626,
0.06224438902743142,-0.01583606063044206,
0.06229426433915212,-0.010612549604365688,
0.06234413965087282,-0.034326123368565706,
0.062394014962593516,0.0018311731982862504,
0.06244389027431421,-0.029340107347887202,
0.062493765586034915,-0.0058464679005126655,
0.06254364089775562,0.0006988411124537845,
0.06259351620947631,-0.014988011443349377,
0.06264339152119701,0.007937148821283723,
0.0626932668329177,-0.00307775088985748,
0.0627431421446384,-0.014761716509312807,
0.0627930174563591,-0.025992393331803736,
0.0628428927680798,-0.033367638248671935,
0.0628927680798005,-0.013882965807927887,
0.0629426433915212,-0.011474380904955783,
0.06299251870324189,-0.011233564956324653,
0.06304239401496259,-0.008462485819066917,
0.0630922693266833,-0.02019918500274424,
0.063142144638404,-0.04387006730553224,
0.06319201995012469,-0.01065807316827981,
0.06324189526184539,-0.034083066538588704,
0.06329177057356608,0.00047260754623550463,
0.06334164588528678,-0.009064947302272468,
0.06339152119700749,-0.019000024576889162,
0.06344139650872818,0.0022480354380398984,
0.06349127182044888,-0.029010593732757176,
0.06354114713216957,-0.0331992727822168,
0.06359102244389027,0.0030135154896273712,
0.06364089775561098,-0.010816515847178042,
0.06369077306733167,-0.0029376098179575393,
0.06374064837905237,0.01362592966663105,
0.06379052369077307,0.001339113030299946,
0.06384039900249376,-0.04157226981855119,
0.06389027431421446,-0.021721804829552757,
0.06394014962593517,-0.013749360480875633,
0.06399002493765586,0.01477685369760658,
0.06403990024937656,-0.01141408275220433,
0.06408977556109725,0.004421902199945385,
0.06413965087281795,-0.03333755109698438,
0.06418952618453866,-0.05843519058210038,
0.06423940149625935,-0.004074515938893025,
0.06428927680798005,-0.016998530222959735,
0.06433915211970075,-0.02272812788827491,
0.06438902743142144,-0.02269327152667478,
0.06443890274314215,-0.018279834532416498,
0.06448877805486285,-0.009076071106462582,
0.06453865336658354,-0.002223538589518251,
0.06458852867830424,-0.031002960435075604,
0.06463840399002493,-0.02921241507282439,
0.06468827930174563,-0.032679093718300474,
0.06473815461346634,-0.014733066019570399,
0.06478802992518704,-0.0165020144037829,
0.06483790523690773,0.0032153372061506525,
0.06488778054862843,-0.004257063693775223,
0.06493765586034912,4.793087190131315e-06,
0.06498753117206983,0.0008442454987462131,
0.06503740648379053,-0.009952653358500362,
0.06508728179551122,-0.002585035152831327,
0.06513715710723192,-0.02311408804585329,
0.06518703241895261,-0.029765355536226924,
0.06523690773067331,-0.0017547546445166378,
0.06528678304239402,-0.005531425779579214,
0.06533665835411472,-0.015009329034571615,
0.06538653366583541,-0.006911089155719251,
0.06543640897755611,0.0006113031574649236,
0.0654862842892768,-0.0008902269305634666,
0.06553615960099751,-0.010315315992682716,
0.06558603491271821,0.0013746977936628449,
0.0656359102244389,-0.010297097316204085,
0.0656857855361596,-0.028569239389308554,
0.0657356608478803,0.011914214130138032,
0.06578553615960099,0.009464875052766535,
0.0658354114713217,0.013267552689884374,
0.0658852867830424,-2.549856265444874e-05,
0.06593516209476309,-0.0018838732648917673,
0.06598503740648379,0.015819043105533566,
0.06603491271820448,-0.0002986883380502454,
0.06608478802992519,0.020279789639679968,
0.06613466334164589,-0.0025658920681101453,
0.06618453865336658,-0.01175489147109295,
0.06623441396508728,-0.0007859723882509789,
0.06628428927680798,-0.006020060782532225,
0.06633416458852869,-0.0041452447415611295,
0.06638403990024938,0.03233307228897381,
0.06643391521197008,-0.017665512051345988,
0.06648379052369077,-0.005691066952269955,
0.06653366583541147,-0.002687841240212304,
0.06658354114713216,-0.014467536455981787,
0.06663341645885287,-0.020502654405962578,
0.06668329177057357,0.01856092850939475,
0.06673316708229426,0.005857614937202215,
0.06678304239401496,0.02319871195275031,
0.06683291770573566,-0.0015436936043252947,
0.06688279301745637,0.00817482721528779,
0.06693266832917706,0.020919791533252137,
0.06698254364089776,-0.005516143663490318,
0.06703241895261845,0.02248670327906143,
0.06708229426433915,-0.0053846337363035015,
0.06713216957605984,0.006522183418837207,
0.06718204488778055,0.004089873908224948,
0.06723192019950125,-0.017958282402986324,
0.06728179551122195,-0.010922679899518332,
0.06733167082294264,0.021239762539791388,
0.06738154613466334,0.009951317989095149,
0.06743142144638405,0.030950287012127545,
0.06748129675810474,0.005554543687715093,
0.06753117206982544,0.016181947186483643,
0.06758104738154613,-0.011158735052227177,
0.06763092269326683,0.02447645886974985,
0.06768079800498752,0.021292928729040803,
0.06773067331670823,-0.0003825811076117215,
0.06778054862842893,0.021085666430798615,
0.06783042394014963,0.01984537694437953,
0.06788029925187032,0.00879374388224319,
0.06793017456359102,0.007190144292738363,
0.06798004987531173,-0.013547978004799278,
0.06802992518703242,0.009680803719634045,
0.06807980049875312,-0.008333129091380433,
0.06812967581047381,0.02169772544033477,
0.06817955112219451,0.003880420574938495,
0.0682294264339152,0.0016756268843982156,
0.06827930174563591,-0.00358128876954056,
0.06832917705735661,0.04277870544471985,
0.0683790523690773,0.0165782783561177,
0.068428927680798,0.03680643764494165,
0.0684788029925187,0.02107194729166732,
0.06852867830423941,0.009417450538673398,
0.0685785536159601,0.04189660777629167,
0.0686284289276808,0.012605174197152094,
0.0686783042394015,0.02846581441120237,
0.06872817955112219,-0.008092079065010355,
0.0687780548628429,-0.0038831467029412092,
0.0688279301745636,-0.011463172576384687,
0.06887780548628429,0.019154262500793537,
0.06892768079800499,0.02507888344013885,
0.06897755610972568,0.05128109157945082,
0.06902743142144638,0.024474493147407198,
0.06907730673316709,0.030436034056376463,
0.06912718204488778,0.029731367542095988,
0.06917705735660848,0.025961255454366394,
0.06922693266832917,0.010127026989667587,
0.06927680798004987,0.016882448359985557,
0.06932668329177058,0.005364923033070599,
0.06937655860349128,0.02477826545298638,
0.06942643391521197,0.012883405032962897,
0.06947630922693267,0.0010915660199679322,
0.06952618453865336,0.028342102018298336,
0.06957605985037406,-0.014789532789503256,
0.06962593516209477,0.027850781227231274,
0.06967581047381546,0.024753488979000038,
0.06972568578553616,0.010288473324281944,
0.06977556109725686,0.006482293950598501,
0.06982543640897755,0.031188137995782954,
0.06987531172069826,0.041589401425844545,
0.06992518703241896,0.055872320414213875,
0.06997506234413965,0.01863048827874458,
0.07002493765586035,0.024159194322361993,
0.07007481296758104,0.031838324720230765,
0.07012468827930174,-0.0020314015247884544,
0.07017456359102245,-0.00011163186492158667,
0.07022443890274314,0.005769663677046018,
0.07027431421446384,0.019702787857377925,
0.07032418952618454,0.01065638858632188,
0.07037406483790523,-0.003115191915475192,
0.07042394014962594,0.006956739112684277,
0.07047381546134664,0.01618260119023681,
0.07052369077306733,0.012594579902167325,
0.07057356608478803,0.03923311642528506,
0.07062344139650872,0.05005433344650827,
0.07067331670822943,0.013637923329498354,
0.07072319201995013,0.0013608288489816468,
0.07077306733167082,0.022465168725139418,
0.07082294264339152,0.029047064224118,
0.07087281795511222,0.029920742404298074,
0.07092269326683291,0.0291733661768184,
0.07097256857855362,0.007952574506616761,
0.07102244389027432,0.043688800989186975,
0.07107231920199501,0.023661367866974634,
0.07112219451371571,0.0031396925224328534,
0.0711720698254364,0.01432125212437443,
0.07122194513715711,0.03242169915774258,
0.07127182044887781,0.037021081425984814,
0.0713216957605985,0.035636710338499765,
0.0713715710723192,0.009408550358451517,
0.0714214463840399,0.044163943188614205,
0.07147132169576059,0.00785524063792277,
0.0715211970074813,0.03355517660494403,
0.071571072319202,0.0073874815596169825,
0.0716209476309227,0.0256225191515699,
0.07167082294264339,0.02540488934023672,
0.07172069825436408,0.024832949120103743,
0.0717705735660848,0.04800141218060889,
0.07182044887780549,0.037156226650248564,
0.07187032418952619,0.027892531074568364,
0.07192019950124688,0.00839428601863543,
0.07197007481296758,0.0289971642122906,
0.07201995012468827,0.04000706090541184,
0.07206982543640898,0.03276400895197659,
0.07211970074812968,0.017644639096964204,
0.07216957605985037,0.04162967316898568,
0.07221945137157107,0.028665369532040987,
0.07226932668329177,0.02387820384863968,
0.07231920199501247,0.035449098283733986,
0.07236907730673317,0.02179854532447638,
0.07241895261845387,0.035705699703823576,
0.07246882793017456,0.011651882425512905,
0.07251870324189526,0.02030681782003664,
0.07256857855361595,0.01221184922958755,
0.07261845386533666,0.03342208072866054,
0.07266832917705736,0.023245327715298292,
0.07271820448877805,0.027026552243488634,
0.07276807980049875,0.07532411555455701,
0.07281795511221945,0.018124064253200584,
0.07286783042394016,0.031507207437892315,
0.07291770573566085,0.03856148373736433,
0.07296758104738155,-0.007491502967453479,
0.07301745635910224,0.027283004598149307,
0.07306733167082294,0.0125349643513269,
0.07311720698254365,0.032136470178142584,
0.07316708229426434,0.04061398365478919,
0.07321695760598504,0.024119409852606005,
0.07326683291770573,0.021754329792140436,
0.07331670822942643,0.023439602397706573,
0.07336658354114713,0.035794275243075005,
0.07341645885286784,0.014770346287704145,
0.07346633416458853,0.00110135866794955,
0.07351620947630923,0.03327897273079963,
0.07356608478802992,0.013499045769991856,
0.07361596009975062,0.007644835813082944,
0.07366583541147133,0.021887012713836203,
0.07371571072319202,0.02182053061296001,
0.07376558603491272,0.01028355393801404,
0.07381546134663342,0.04332604077199627,
0.07386533665835411,0.012108147006724766,
0.0739152119700748,0.028071313468957904,
0.07396508728179552,0.038711163110548306,
0.07401496259351621,0.02573163547912551,
0.07406483790523691,-0.009363646756356214,
0.0741147132169576,0.029196547676628878,
0.0741645885286783,0.022335313820296594,
0.07421446384039901,0.02735244496807428,
0.0742643391521197,0.01990606645748791,
0.0743142144638404,0.01848885168431084,
0.0743640897755611,0.014791194635789224,
0.07441396508728179,-0.012354469469809434,
0.07446384039900249,0.008163227506435005,
0.0745137157107232,0.0412858548071644,
0.07456359102244389,0.034865090202238894,
0.07461346633416459,0.0058643703850907395,
0.07466334164588528,0.037704923392738496,
0.07471321695760598,0.00156316213246269,
0.07476309226932669,0.029800978550021437,
0.07481296758104738,0.02021098385541235,
0.07486284289276808,0.034087676743162286,
0.07491271820448878,0.009109905854353116,
0.07496259351620947,0.020201904292725767,
0.07501246882793017,0.023702169215685867,
0.07506234413965088,0.027561688768983343,
0.07511221945137157,0.012564715587206881,
0.07516209476309227,0.022623402090353992,
0.07521197007481296,0.016116976381377796,
0.07526184538653366,0.03698182376140826,
0.07531172069825437,0.023450587531643287,
0.07536159600997507,0.03224918170441298,
0.07541147132169576,0.035886942742055894,
0.07546134663341646,0.003458969572850688,
0.07551122194513715,0.013425947561510472,
0.07556109725685786,0.024657914818315446,
0.07561097256857856,0.02833699344409627,
0.07566084788029925,0.019410595778182785,
0.07571072319201995,0.010205115395639761,
0.07576059850374064,0.027463860967079347,
0.07581047381546134,0.010887168001729626,
0.07586034912718205,0.029866427478815828,
0.07591022443890275,-0.004993387634726454,
0.07596009975062344,-0.007230982734743761,
0.07600997506234414,0.0017232807327382561,
0.07605985037406483,0.011430705057481968,
0.07610972568578554,0.02004806772373054,
0.07615960099750624,0.027814867944849272,
0.07620947630922693,0.0049652342717234985,
0.07625935162094763,0.006201917667872657,
0.07630922693266833,0.014465641862522735,
0.07635910224438902,-0.004740490698920224,
0.07640897755610973,0.018840888031926198,
0.07645885286783043,0.007518716769777842,
0.07650872817955112,0.0098675993738885,
0.07655860349127182,0.005939752030746242,
0.07660847880299251,0.010531008181057608,
0.07665835411471322,0.0014515721382996633,
0.07670822942643392,0.03516230358962402,
0.07675810473815461,0.003052730002621803,
0.07680798004987531,0.00613716285091259,
0.076857855361596,-0.022686172991781495,
0.0769077306733167,-0.004979924945319573,
0.07695760598503741,-0.0024340891876483,
0.0770074812967581,0.01727780580279733,
0.0770573566084788,0.013680116783491562,
0.0771072319201995,-0.00967782791194845,
0.0771571072319202,-0.003789105592733534,
0.0772069825436409,-0.017021527551865263,
0.0772568578553616,0.01277199217301661,
0.0773067331670823,0.0036002996340352973,
0.07735660847880299,-0.008505862316374978,
0.07740648379052369,-0.00011202752987572728,
0.0774563591022444,0.01329517688058984,
0.07750623441396509,0.02961225085697949,
0.07755610972568579,0.02534455017441546,
0.07760598503740648,-0.003228210370965037,
0.07765586034912718,0.005608560665571699,
0.07770573566084787,-0.01148727588297965,
0.07775561097256858,0.013932025348054329,
0.07780548628428928,-0.013867677389195743,
0.07785536159600998,-0.0028581256283776945,
0.07790523690773067,0.023048699843728353,
0.07795511221945137,-0.00010709433183128236,
0.07800498753117208,0.015007746896395873,
0.07805486284289277,0.0034382923352884913,
0.07810473815461347,-0.009969731512126462,
0.07815461346633416,0.004316859728205252,
0.07820448877805486,-0.004370487068623403,
0.07825436408977555,-0.00779006515615771,
0.07830423940149626,-0.028378376641754206,
0.07835411471321696,-0.024568918795602655,
0.07840399002493766,0.021397367564599975,
0.07845386533665835,0.00476407877906554,
0.07850374064837905,0.010507788134636415,
0.07855361596009976,0.004598563446944929,
0.07860349127182045,-0.001980182757581396,
0.07865336658354115,-0.022322610555501145,
0.07870324189526184,-0.0233108002543779,
0.07875311720698254,-0.017941486275286654,
0.07880299251870324,-0.01448313279446936,
0.07885286783042394,-0.014176051455472167,
0.07890274314214464,-0.02725719849017381,
0.07895261845386534,-0.004274329237478753,
0.07900249376558603,-0.002146351001588727,
0.07905236907730673,-0.010691363175066592,
0.07910224438902744,-0.04461822380776808,
0.07915211970074813,0.008991971275075256,
0.07920199501246883,-0.014233232386289842,
0.07925187032418952,-0.01151625742558645,
0.07930174563591022,0.009515377487295074,
0.07935162094763092,0.005198748347743682,
0.07940149625935163,0.007845999855909638,
0.07945137157107232,0.009396459779853636,
0.07950124688279302,-0.0032177782278659047,
0.07955112219451371,-0.03235110539681394,
0.07960099750623441,0.0027506098453880393,
0.07965087281795512,0.020035255054337446,
0.07970074812967581,-0.02115433462440301,
0.07975062344139651,-0.008001787378282893,
0.0798004987531172,0.0053375404905341445,
0.0798503740648379,-0.035907704484629696,
0.07990024937655861,-0.01571885551807138,
0.0799501246882793,-0.00442733192661886,
0.08,0.00024252680781346007,
0.0800498753117207,-0.01733354805288939,
0.0800997506234414,-0.008869163477585401,
0.08014962593516209,-0.020829597440445317,
0.0801995012468828,0.000500796603024236,
0.0802493765586035,-0.0041625927797968865,
0.08029925187032419,0.03485466116956533,
0.08034912718204489,-0.002282606541906829,
0.08039900249376558,-0.018276936064602754,
0.08044887780548629,-0.05836565002939015,
0.08049875311720699,-0.01855945717823572,
0.08054862842892768,-0.008888599797872487,
0.08059850374064838,-0.01374766288404718,
0.08064837905236907,0.009448058347808269,
0.08069825436408977,0.014654418889539209,
0.08074812967581048,-0.02524447309795571,
0.08079800498753117,0.005913867902957209,
0.08084788029925187,-0.0032442983894008237,
0.08089775561097257,1.943718522445445e-06,
0.08094763092269326,-0.01773666942591226,
0.08099750623441397,0.002006272059276051,
0.08104738154613467,-0.03022912573549426,
0.08109725685785536,-0.02896380140554827,
0.08114713216957606,0.0019719178734170836,
0.08119700748129675,-0.008882302834235838,
0.08124688279301745,-0.0001577306638135354,
0.08129675810473816,-0.0350801281366484,
0.08134663341645886,-0.019587321922481978,
0.08139650872817955,0.010183573501750611,
0.08144638403990025,-0.05373883570970219,
0.08149625935162094,-0.008809853145927679,
0.08154613466334165,-0.019033212545070163,
0.08159600997506235,-0.005275938649342546,
0.08164588528678304,0.015052472467828745,
0.08169576059850374,0.01813190791782074,
0.08174563591022443,-0.023808029521707276,
0.08179551122194513,-0.01505336590134336,
0.08184538653366584,-0.02987658252132215,
0.08189526184538654,-0.01700621066220001,
0.08194513715710723,-0.028268212977368003,
0.08199501246882793,-0.025119067103598056,
0.08204488778054862,-0.01901381965790909,
0.08209476309226933,-0.001416361862343148,
0.08214463840399003,0.018816252134317358,
0.08219451371571072,-0.012339185657251702,
0.08224438902743142,-0.0033214178555287417,
0.08229426433915212,-0.04640528670447942,
0.08234413965087282,-0.027958517708015898,
0.08239401496259352,-0.054842153177853126,
0.08244389027431422,-0.016639301088468103,
0.08249376558603491,-0.004579123438893452,
0.08254364089775561,-0.013812012463008954,
0.0825935162094763,-0.014569666237844376,
0.08264339152119701,-0.026592667174092265,
0.08269326683291771,-0.011014567916832951,
0.0827431421446384,-0.036780420004383974,
0.0827930174563591,0.03141993099628947,
0.0828428927680798,0.009887434078708509,
0.0828927680798005,-0.010899810513099687,
0.0829426433915212,-0.013919982442163564,
0.0829925187032419,0.004884760356559529,
0.08304239401496259,-0.024246050631724723,
0.08309226932668329,-0.004140462370674244,
0.08314214463840398,-0.015737039712121995,
0.0831920199501247,-0.008544981962782167,
0.08324189526184539,-0.015140737723438217,
0.08329177057356608,-0.005704949251000349,
0.08334164588528678,-0.03713049926128824,
0.08339152119700748,-0.01090153551957082,
0.08344139650872819,-0.002272578431957023,
0.08349127182044888,0.003926352786142579,
0.08354114713216958,-0.022011936610151505,
0.08359102244389027,-0.014223056385744583,
0.08364089775561097,-0.0017783293701272764,
0.08369077306733166,-0.00812121503951388,
0.08374064837905237,0.0015379834592852762,
0.08379052369077307,-0.0048493221115457645,
0.08384039900249377,-0.007448364690704496,
0.08389027431421446,-0.008507650318551448,
0.08394014962593516,0.00800231230614285,
0.08399002493765587,-0.002757199831283563,
0.08403990024937656,0.011799108424771998,
0.08408977556109726,0.001701346455935589,
0.08413965087281795,-0.025817738034824796,
0.08418952618453865,-0.00028306822108610866,
0.08423940149625936,-0.010392206270125279,
0.08428927680798005,-0.017447115862955467,
0.08433915211970075,0.010324792159392852,
0.08438902743142145,-0.021197733733795403,
0.08443890274314214,-0.008162135167211995,
0.08448877805486284,-0.018618315422111918,
0.08453865336658355,0.016776280384005374,
0.08458852867830424,0.00397175848705923,
0.08463840399002494,0.0030424636919894107,
0.08468827930174563,-0.04003122762860675,
0.08473815461346633,-0.02685409897906913,
0.08478802992518704,0.0039181643536116435,
0.08483790523690773,0.0020299602819254317,
0.08488778054862843,-0.007311206849361571,
0.08493765586034913,0.006724253614082179,
0.08498753117206982,-0.0007408773604622668,
0.08503740648379052,-0.019591018014309337,
0.08508728179551123,0.014419192807278143,
0.08513715710723192,-0.0036580415340560315,
0.08518703241895262,-0.008568962259619577,
0.08523690773067331,0.004584693663197408,
0.08528678304239401,-0.019520639374735124,
0.08533665835411472,-0.016573853826727426,
0.08538653366583542,0.0011623017399289915,
0.08543640897755611,-0.020053731127342832,
0.0854862842892768,-0.008788695842998111,
0.0855361596009975,0.018213335605223254,
0.0855860349127182,-0.0016710136520620691,
0.08563591022443891,0.005010080722528611,
0.0856857855361596,0.008159661930043742,
0.0857356608478803,0.011958023551634405,
0.085785536159601,-0.017538288841066316,
0.08583541147132169,0.015201045006564844,
0.0858852867830424,-0.01722346461523252,
0.0859351620947631,0.0024404398746778267,
0.08598503740648379,0.01074661719548744,
0.08603491271820449,0.001355212995492727,
0.08608478802992518,0.040418244773678225,
0.08613466334164588,0.021544325022827784,
0.08618453865336659,0.003424045940289811,
0.08623441396508728,-0.028484699730152416,
0.08628428927680798,0.010546480320608623,
0.08633416458852868,-0.029754113783332058,
0.08638403990024937,-0.005839990440320762,
0.08643391521197008,0.03436525975240183,
0.08648379052369078,0.026427663431606387,
0.08653366583541147,0.0028478897597278073,
0.08658354114713217,0.001574581379464818,
0.08663341645885286,-0.030577202772454536,
0.08668329177057357,0.020948581751494413,
0.08673316708229427,-0.005031904708658845,
0.08678304239401496,0.016019549254075238,
0.08683291770573566,0.0011641467771928958,
0.08688279301745636,0.01303082942834017,
0.08693266832917705,-0.006405777889784352,
0.08698254364089776,0.014351125039068734,
0.08703241895261846,0.02687446609121289,
0.08708229426433915,0.014657260131142576,
0.08713216957605985,0.01691402815546506,
0.08718204488778054,0.011820841557430621,
0.08723192019950125,0.01951216996026489,
0.08728179551122195,-0.026480016935022704,
0.08733167082294264,0.0076819468152396885,
0.08738154613466334,0.007995961275495891,
0.08743142144638404,-0.007709453777421958,
0.08748129675810473,-0.002438495147024211,
0.08753117206982544,-0.013337376126102831,
0.08758104738154614,0.02766920126588606,
0.08763092269326683,0.011825089362908079,
0.08768079800498753,-0.0147276635454066,
0.08773067331670822,0.030699846249557565,
0.08778054862842893,0.01958448275578063,
0.08783042394014963,0.02046667993806428,
0.08788029925187033,-0.02582644710247009,
0.08793017456359102,0.0007405556484551302,
0.08798004987531172,0.01958227209678977,
0.08802992518703241,0.01784069985120751,
0.08807980049875312,0.018530596101330836,
0.08812967581047382,0.026485922151885298,
0.08817955112219451,0.015679556778485582,
0.08822942643391521,0.012469623251659914,
0.0882793017456359,0.025706435352776905,
0.08832917705735661,0.015952142908415946,
0.08837905236907731,0.02062025795122274,
0.088428927680798,0.02176192481953843,
0.0884788029925187,0.013893222503575452,
0.0885286783042394,0.006564659485001398,
0.0885785536159601,0.014643501984320646,
0.0886284289276808,0.013743637722468437,
0.0886783042394015,0.04395511089608108,
0.0887281795511222,0.02387970025585342,
0.08877805486284289,0.026740174061233236,
0.08882793017456359,-0.005571800836541331,
0.0888778054862843,0.007978152461489977,
0.08892768079800499,0.009570884841149752,
0.08897755610972569,0.053541491380269285,
0.08902743142144638,0.025190948366530935,
0.08907730673316708,0.03682698486545286,
0.08912718204488779,0.015133986279160967,
0.08917705735660848,-0.008178719120924483,
0.08922693266832918,0.028256245800612916,
0.08927680798004987,0.0179471558260932,
0.08932668329177057,0.03203016917508419,
0.08937655860349127,0.036626921036084004,
0.08942643391521198,-0.0028386290466523925,
0.08947630922693267,-0.003723569125390045,
0.08952618453865337,0.017132024865715984,
0.08957605985037406,0.028108115498382092,
0.08962593516209476,0.023925527598423226,
0.08967581047381547,0.021794174232245347,
0.08972568578553616,0.028337896080476956,
0.08977556109725686,0.0010336424993715974,
0.08982543640897755,0.016367743533497695,
0.08987531172069825,0.008197853808415157,
0.08992518703241895,0.009371766010555586,
0.08997506234413966,0.041416359675950476,
0.09002493765586035,0.011294382645992154,
0.09007481296758105,0.014330441460686735,
0.09012468827930174,0.018664829586543565,
0.09017456359102244,0.015373671831386711,
0.09022443890274315,0.02992451934567591,
0.09027431421446384,0.020704964292587225,
0.09032418952618454,0.024897773819636773,
0.09037406483790524,0.026963694684955176,
0.09042394014962593,0.04722337887803421,
0.09047381546134663,0.03178514502670484,
0.09052369077306734,0.026438730882201552,
0.09057356608478803,0.021126631793673474,
0.09062344139650873,0.019523159093699748,
0.09067331670822942,0.028538855284909077,
0.09072319201995012,0.04131738460622248,
0.09077306733167083,0.02805842304328021,
0.09082294264339152,0.017367151224752596,
0.09087281795511222,0.01890880580379253,
0.09092269326683292,0.04805052627875696,
0.09097256857855361,0.0192622105991686,
0.09102244389027432,0.02154266998050931,
0.09107231920199502,0.03976853045143092,
0.09112219451371571,0.04009177004896447,
0.09117206982543641,0.026268958737706353,
0.0912219451371571,0.0167305239712617,
0.0912718204488778,0.03023816761467301,
0.09132169576059851,-0.009785609664297569,
0.0913715710723192,0.03111371952515261,
0.0914214463840399,0.03395555200895397,
0.0914713216957606,0.02915817103673006,
0.09152119700748129,0.012723128010885083,
0.091571072319202,0.020364657436798054,
0.0916209476309227,0.003631769249775433,
0.09167082294264339,0.023020803802356958,
0.09172069825436409,0.008526600091417418,
0.09177057356608478,0.061037482965631024,
0.09182044887780548,0.018578772508513815,
0.09187032418952619,0.050942630009601766,
0.09192019950124689,0.019920504417694516,
0.09197007481296758,0.04566166208049459,
0.09201995012468828,0.03847487757942908,
0.09206982543640897,0.023904313369505038,
0.09211970074812968,0.05575988752787095,
0.09216957605985038,0.03356341816313998,
0.09221945137157107,0.04413956765335122,
0.09226932668329177,0.009726670877339832,
0.09231920199501246,0.02997259591171724,
0.09236907730673316,0.028870601068250786,
0.09241895261845387,0.005712233673900443,
0.09246882793017457,0.014665324995457406,
0.09251870324189526,0.024540623427155454,
0.09256857855361596,0.023005059656057744,
0.09261845386533665,0.030922044848270755,
0.09266832917705736,0.03012731288643403,
0.09271820448877806,0.04797300726526834,
0.09276807980049875,0.028329286878109466,
0.09281795511221945,0.024057109514173215,
0.09286783042394015,0.02220733597660216,
0.09291770573566084,0.030384909818983244,
0.09296758104738155,0.023563114242092092,
0.09301745635910225,0.04843898525151494,
0.09306733167082294,0.04100659291935553,
0.09311720698254364,0.007872057718095914,
0.09316708229426433,0.022744272202525125,
0.09321695760598504,0.03613844954536846,
0.09326683291770574,0.022115002685273957,
0.09331670822942643,0.01196266993079283,
0.09336658354114713,0.04734750737934711,
0.09341645885286783,0.020873679899499262,
0.09346633416458854,0.03729903012850499,
0.09351620947630923,0.018663161060177427,
0.09356608478802993,0.03725665695407914,
0.09361596009975062,0.02586528083039933,
0.09366583541147132,0.04103834817087444,
0.09371571072319201,0.017433344904394348,
0.09376558603491272,0.013205600869864144,
0.09381546134663342,0.0380640734796949,
0.09386533665835411,0.036138736325163935,
0.09391521197007481,0.03395482430641382,
0.0939650872817955,0.016392996627534115,
0.09401496259351622,0.04206026498298748,
0.09406483790523691,0.01939030748775735,
0.09411471321695761,0.04854944562777515,
0.0941645885286783,0.013127963637539658,
0.094214463840399,0.02229180992098487,
0.0942643391521197,0.025161806245689457,
0.0943142144638404,0.014551876470424836,
0.0943640897755611,0.012808735754529682,
0.0944139650872818,0.01600089249082741,
0.09446384039900249,-0.0018967884373800072,
0.09451371571072319,0.03090916615578889,
0.0945635910224439,0.01637712925634105,
0.09461346633416459,0.02226231721724551,
0.09466334164588529,0.03367359383977241,
0.09471321695760598,0.02134582739028855,
0.09476309226932668,0.052055053496809764,
0.09481296758104737,0.008023081727552332,
0.09486284289276808,-0.003661590822411933,
0.09491271820448878,0.027157599378537792,
0.09496259351620948,0.030603176762997925,
0.09501246882793017,0.021372100749800074,
0.09506234413965087,0.03496905209377609,
0.09511221945137158,-0.008457921525139127,
0.09516209476309227,-0.0013341755160834398,
0.09521197007481297,0.04783849874996747,
0.09526184538653366,0.01261252644311173,
0.09531172069825436,0.015526542583087048,
0.09536159600997507,0.024432407340508257,
0.09541147132169576,0.03655315334141851,
0.09546134663341646,-0.0020613165252825368,
0.09551122194513716,0.0018362505890455495,
0.09556109725685785,0.02595161807056728,
0.09561097256857855,0.0032067765432459133,
0.09566084788029926,0.020814395755296214,
0.09571072319201995,0.02330248298284461,
0.09576059850374065,0.020478019697129014,
0.09581047381546134,0.020817989482739035,
0.09586034912718204,0.03440223935291056,
0.09591022443890275,0.02335715340333265,
0.09596009975062345,0.02798439389158219,
0.09600997506234414,0.012929583844241713,
0.09605985037406484,0.009838920836554882,
0.09610972568578553,-0.0034110815784432896,
0.09615960099750623,-0.007601512545636832,
0.09620947630922694,0.020856484541257953,
0.09625935162094763,-0.00047549236089797046,
0.09630922693266833,0.011412535956646538,
0.09635910224438902,-0.008068236345554093,
0.09640897755610972,-0.0021176195774098797,
0.09645885286783043,0.003469519367442381,
0.09650872817955113,0.022010869212327734,
0.09655860349127182,0.014566159157529643,
0.09660847880299252,-0.0012670321494930997,
0.09665835411471321,0.0316904080010903,
0.09670822942643391,0.013184545507331464,
0.09675810473815462,-0.0010527720201288365,
0.09680798004987531,0.02578892402181287,
0.09685785536159601,0.022902456888898963,
0.0969077306733167,0.003318384624271392,
0.0969576059850374,0.014074700747630408,
0.09700748129675811,0.008334421388362783,
0.0970573566084788,0.006915872629665955,
0.0971072319201995,0.027157804251039315,
0.0971571072319202,0.003339950532657684,
0.0972069825436409,0.006528615283648649,
0.09725685785536159,0.002124824291234691,
0.0973067331670823,0.0027872752345845693,
0.097356608478803,0.013019583699695868,
0.09740648379052369,0.007111181655614017,
0.09745635910224439,0.01734693312216875,
0.09750623441396508,0.015332891716510373,
0.09755610972568579,0.017975100013720213,
0.09760598503740649,-0.012334876519609406,
0.09765586034912718,0.028720111478570988,
0.09770573566084788,0.013135034709073838,
0.09775561097256857,0.03689772275771991,
0.09780548628428928,0.010203744266007946,
0.09785536159600998,0.009346318125415382,
0.09790523690773068,0.004469622472835145,
0.09795511221945137,0.022986251807977687,
0.09800498753117207,0.019919385951427976,
0.09805486284289276,0.016185941508738297,
0.09810473815461347,-0.015003869032802347,
0.09815461346633417,-0.014261070033519497,
0.09820448877805486,0.007762184012243122,
0.09825436408977556,0.0040712354825743965,
0.09830423940149625,-0.023292968562661283,
0.09835411471321696,-0.016708706744370503,
0.09840399002493766,0.005476149867686976,
0.09845386533665836,0.014418129938166454,
0.09850374064837905,0.007875827674036596,
0.09855361596009975,-0.014959018644039474,
0.09860349127182044,-0.0109652602585202,
0.09865336658354115,0.02065241414055627,
0.09870324189526185,0.008126176568633937,
0.09875311720698254,0.027293586063648685,
0.09880299251870324,-0.019590123611394686,
0.09885286783042393,-0.03868709964416046,
0.09890274314214464,-0.028506017031386728,
0.09895261845386534,-0.016250455112050685,
0.09900249376558604,-0.015020798190462875,
0.09905236907730673,0.009457217955395317,
0.09910224438902743,-0.0031993827247505857,
0.09915211970074812,0.009768327801116276,
0.09920199501246883,-0.024916526422818004,
0.09925187032418953,-0.02285713077983098,
0.09930174563591022,-0.0059957585827076195,
0.09935162094763092,0.018980905878130692,
0.09940149625935162,-0.019187511129048897,
0.09945137157107233,0.0028283974644920905,
0.09950124688279302,-0.01558446560548538,
0.09955112219451372,-0.004589599647571155,
0.09960099750623441,-0.014401182184648089,
0.09965087281795511,-0.00568972406444448,
0.0997007481296758,-0.01721154977403699,
0.09975062344139651,-0.018166383003354398,
0.09980049875311721,-0.011844917747801706,
0.0998503740648379,-0.013117859646612925,
0.0999002493765586,-0.003581336545032493,
0.0999501246882793,-0.006815756730127527,
0.1,-0.026484081631148702,
0.1000498753117207,-0.007560800332373481,
0.1000997506234414,-0.012160812887575955,
0.10014962593516209,-0.018286337695322168,
0.10019950124688279,-0.0203106028006285,
0.1002493765586035,-0.00018583819004912988,
0.1002992518703242,0.008327429240082056,
0.10034912718204489,-0.03633007127584192,
0.10039900249376559,-0.014730281857108568,
0.10044887780548628,-0.014068149817978657,
0.10049875311720698,-0.04621386174436924,
0.10054862842892769,-0.004086173868982506,
0.10059850374064838,-0.025707854767632002,
0.10064837905236908,-0.0006397150702107841,
0.10069825436408977,-0.011810944110820688,
0.10074812967581047,0.003874275431619433,
0.10079800498753118,-0.015453821576106714,
0.10084788029925187,-0.017618087861241083,
0.10089775561097257,0.0056796140612075385,
0.10094763092269327,-0.006268427550786064,
0.10099750623441396,0.014255632700859552,
0.10104738154613466,-0.007439288039596939,
0.10109725685785537,-0.01464095994041659,
0.10114713216957606,-0.012315200299899425,
0.10119700748129676,-0.008258080988364417,
0.10124688279301745,-0.01349454626440028,
0.10129675810473815,-0.016094928129937895,
0.10134663341645886,-0.02493233651780224,
0.10139650872817955,-0.022672076328866336,
0.10144638403990025,-0.017433567863513008,
0.10149625935162095,-0.014907262469407712,
0.10154613466334164,0.004465287197492868,
0.10159600997506234,-0.016150440324461623,
0.10164588528678305,0.001481117797230735,
0.10169576059850374,-0.023573015044030532,
0.10174563591022444,-0.024211381333676577,
0.10179551122194513,-0.018757539803986156,
0.10184538653366583,-0.006010570347413119,
0.10189526184538654,-0.00021834772432321667,
0.10194513715710724,-0.018788140766335962,
0.10199501246882793,-0.05632722827093338,
0.10204488778054863,-0.028524124706230287,
0.10209476309226932,-0.02959569457429069,
0.10214463840399003,-0.011560188698139896,
0.10219451371571073,-0.0380030118741931,
0.10224438902743142,0.0016409965521415465,
0.10229426433915212,-0.019467856870733272,
0.10234413965087281,-0.029435580323430143,
0.10239401496259351,0.016396249187120883,
0.10244389027431422,-0.006781149990675327,
0.10249376558603492,-0.0013787188120634782,
0.10254364089775561,-0.020310584854393823,
0.10259351620947631,-0.02572320322189376,
0.102643391521197,-0.022465537323787168,
0.10269326683291771,-0.02188390763624859,
0.10274314214463841,-0.007497675188244013,
0.1027930174563591,0.0020878119119736114,
0.1028428927680798,-0.042613851667340316,
0.1028927680798005,-0.014841715982766382,
0.10294264339152119,-0.01847132060837041,
0.1029925187032419,-0.013003758317769535,
0.1030423940149626,-0.0001778362047074114,
0.10309226932668329,-0.012550198570979838,
0.10314214463840399,-0.011824703890353595,
0.10319201995012468,-0.02825366918225312,
0.10324189526184539,-0.030011107964775074,
0.10329177057356609,0.002663027680753551,
0.10334164588528678,-0.02811019731954196,
0.10339152119700748,-0.0075230621744455045,
0.10344139650872818,-0.015794336171276457,
0.10349127182044887,-0.03537505671322934,
0.10354114713216958,-0.008089422372114494,
0.10359102244389028,-0.0035382197321755264,
0.10364089775561097,-0.003227509818962895,
0.10369077306733167,-0.013083839606738121,
0.10374064837905236,0.001242699447833881,
0.10379052369077307,-0.013827867336328107,
0.10384039900249377,-0.017139558566579324,
0.10389027431421446,-0.009803518487732492,
0.10394014962593516,-0.006369124777277123,
0.10399002493765586,-0.0073664411550701,
0.10403990024937655,-0.025773684734673903,
0.10408977556109726,-0.022123421943559193,
0.10413965087281796,-0.0076540989180184016,
0.10418952618453865,-0.023732555054492156,
0.10423940149625935,-0.016876997292480267,
0.10428927680798004,0.010461838858207752,
0.10433915211970075,-0.016579449121445895,
0.10438902743142145,-0.002164617861466129,
0.10443890274314215,-0.006441236208456144,
0.10448877805486284,-0.019106191280612556,
0.10453865336658354,0.0002984889994433245,
0.10458852867830425,-0.01094816971376739,
0.10463840399002494,0.006076672186452022,
0.10468827930174564,-0.012533250496413344,
0.10473815461346633,-0.025569584078733804,
0.10478802992518703,-0.029524786346282146,
0.10483790523690772,-0.0015414869041313938,
0.10488778054862843,-0.023878767657182408,
0.10493765586034913,-0.016975285816646514,
0.10498753117206983,0.006971715259940791,
0.10503740648379052,-0.007593457377618165,
0.10508728179551122,-0.02116180084370113,
0.10513715710723193,0.0007299924174929305,
0.10518703241895262,-0.02340911593304918,
0.10523690773067332,-0.0021241192817047804,
0.10528678304239401,-0.005101621081857563,
0.10533665835411471,-0.006609360891262272,
0.1053865336658354,0.0009254622034611743,
0.10543640897755611,0.0039455973035673175,
0.10548628428927681,-0.017514548410469073,
0.1055361596009975,-0.00915043053188955,
0.1055860349127182,0.030553925580405348,
0.1056359102244389,0.03362851206732893,
0.10568578553615961,-0.03022270596485731,
0.1057356608478803,0.00493258228454357,
0.105785536159601,0.001887375374221735,
0.1058354114713217,0.00036846364649897553,
0.10588528678304239,0.011039055488443897,
0.10593516209476309,-0.0011580584485019986,
0.1059850374064838,0.002834585535041358,
0.10603491271820449,0.013482713438301175,
0.10608478802992519,-0.008377943907519786,
0.10613466334164588,-0.015726864747970404,
0.10618453865336658,-0.020087481019444603,
0.10623441396508729,-0.006025797573484348,
0.10628428927680798,0.006697044540746058,
0.10633416458852868,-0.005310245458516692,
0.10638403990024937,-0.0039058405218349345,
0.10643391521197007,0.002534139670082787,
0.10648379052369077,-0.015007372336937694,
0.10653366583541148,0.01037689156092892,
0.10658354114713217,0.03044846576927554,
0.10663341645885287,0.021239247138576604,
0.10668329177057356,0.011214369512347014,
0.10673316708229426,0.0015983520116586059,
0.10678304239401497,0.010721280650427129,
0.10683291770573566,-0.0032341292630469276,
0.10688279301745636,0.020415789281645537,
0.10693266832917706,0.0013322935318955207,
0.10698254364089775,0.012220629197253752,
0.10703241895261846,-0.0022336778161377554,
0.10708229426433916,0.0030162155190942143,
0.10713216957605985,-0.007625746468718294,
0.10718204488778055,-0.0038283968334153493,
0.10723192019950124,0.02258864418795716,
0.10728179551122194,0.031418554140397285,
0.10733167082294265,-0.04368395556919414,
0.10738154613466334,-0.005289051014537322,
0.10743142144638404,0.027120669011276664,
0.10748129675810474,0.012252534957704533,
0.10753117206982543,0.005801996712111905,
0.10758104738154614,-0.0012243784921834068,
0.10763092269326684,0.018404408506712717,
0.10768079800498753,-0.020836097748758848,
0.10773067331670823,0.0032099845742850075,
0.10778054862842892,0.02545803252880543,
0.10783042394014962,0.01805443581011206,
0.10788029925187033,0.005109959434937418,
0.10793017456359102,0.015733272765550296,
0.10798004987531172,0.012438138197398885,
0.10802992518703242,0.027980325607724284,
0.10807980049875311,0.022527099297790003,
0.10812967581047382,-0.00527081527038979,
0.10817955112219452,0.027760006999230882,
0.10822942643391521,-0.016701773994179273,
0.10827930174563591,0.012014755190428009,
0.1083291770573566,0.012161499474001691,
0.1083790523690773,0.0023384937685135485,
0.10842892768079801,-0.0042994786915737816,
0.1084788029925187,-0.009509165626809,
0.1085286783042394,0.02082113809591552,
0.1085785536159601,0.011727613360246289,
0.10862842892768079,0.008028845832623234,
0.1086783042394015,0.010560733880471676,
0.1087281795511222,0.0023374928590761002,
0.1087780548628429,0.0034786250726944624,
0.10882793017456359,0.028008788493536607,
0.10887780548628428,0.022541292011992772,
0.108927680798005,0.019065131597720116,
0.10897755610972569,0.023051761138197832,
0.10902743142144639,0.02588692719630247,
0.10907730673316708,0.013695459975360771,
0.10912718204488778,-0.0014613176083282005,
0.10917705735660847,0.03066236516304182,
0.10922693266832918,0.021422747301319114,
0.10927680798004988,0.023108997192395005,
0.10932668329177057,0.04169068789189741,
0.10937655860349127,0.026717523085726447,
0.10942643391521197,0.033827996092671384,
0.10947630922693267,0.02690310172828848,
0.10952618453865337,0.0023293419508139263,
0.10957605985037407,0.03277542450246807,
0.10962593516209476,0.0018734043383492709,
0.10967581047381546,0.04385604360862322,
0.10972568578553615,0.019119494924846398,
0.10977556109725686,0.029985956437821384,
0.10982543640897756,-0.003951765349101154,
0.10987531172069825,0.025098567900476373,
0.10992518703241895,-0.00041273798961158695,
0.10997506234413965,0.04374436543225537,
0.11002493765586036,0.021918045138250075,
0.11007481296758105,0.0334241463257333,
0.11012468827930175,0.028911172347143625,
0.11017456359102244,-0.0025920086541869683,
0.11022443890274314,0.037460893810061534,
0.11027431421446383,0.05567246658467855,
0.11032418952618454,0.028485869011894583,
0.11037406483790524,0.01579281473541631,
0.11042394014962593,0.0269164166183799,
0.11047381546134663,-0.006721297212059406,
0.11052369077306733,-0.004725099468484661,
0.11057356608478804,0.02405561482034445,
0.11062344139650873,0.015986497227912465,
0.11067331670822943,0.053241717114718465,
0.11072319201995012,0.015000114245224041,
0.11077306733167082,0.02804257329245707,
0.11082294264339151,0.026730788576411445,
0.11087281795511222,0.03664595317011744,
0.11092269326683292,0.05146491533779754,
0.11097256857855362,0.030491006521529727,
0.11102244389027431,0.014339225139313745,
0.111072319201995,0.025722690302892565,
0.11112219451371572,0.028674939686773943,
0.11117206982543641,0.0028055816492753606,
0.11122194513715711,0.02530952362960792,
0.1112718204488778,-0.014363617560937493,
0.1113216957605985,0.012369966212441208,
0.11137157107231921,0.041327207418151296,
0.1114214463840399,0.019562970104775486,
0.1114713216957606,0.03857162623427722,
0.1115211970074813,0.016289568037780696,
0.11157107231920199,0.02492375762797207,
0.11162094763092269,0.04845176683298278,
0.1116708229426434,0.016296596550425674,
0.11172069825436409,0.04610982311378996,
0.11177057356608479,0.028756777437146382,
0.11182044887780548,0.021526903196771745,
0.11187032418952618,0.03891366426079145,
0.11192019950124689,0.02355504323673127,
0.11197007481296758,0.0066184857262810565,
0.11201995012468828,0.019244885049759602,
0.11206982543640898,0.022375833442999177,
0.11211970074812967,0.017281173229525548,
0.11216957605985037,0.014334419963527398,
0.11221945137157108,0.01668517583052908,
0.11226932668329177,0.05069622102576313,
0.11231920199501247,0.04811929856117503,
0.11236907730673316,0.03812849138967143,
0.11241895261845386,0.0037137055002325232,
0.11246882793017457,0.022798407790847727,
0.11251870324189527,0.023788473808364408,
0.11256857855361596,0.021146253641644415,
0.11261845386533666,0.02041817600737761,
0.11266832917705735,0.04316650103999573,
0.11271820448877805,0.01874170977061996,
0.11276807980049876,0.025146307150506572,
0.11281795511221945,0.036370169504002466,
0.11286783042394015,0.015627912972971086,
0.11291770573566084,0.03873622182162899,
0.11296758104738154,0.0176523829143901,
0.11301745635910225,0.061448429244653234,
0.11306733167082295,0.045234833976753715,
0.11311720698254364,0.011745450693960317,
0.11316708229426434,0.02651377761750004,
0.11321695760598503,0.010131514772664798,
0.11326683291770574,0.013822806498610469,
0.11331670822942644,-0.010374293186626735,
0.11336658354114713,0.049951892696316544,
0.11341645885286783,0.038370221133596075,
0.11346633416458853,0.024264703481678078,
0.11351620947630922,0.004825709781569373,
0.11356608478802993,0.051799427692137745,
0.11361596009975063,-0.0015065293696226445,
0.11366583541147132,0.013937193674752591,
0.11371571072319202,0.012828355188222817,
0.11376558603491271,0.033344776030758146,
0.11381546134663342,0.04307468996820462,
0.11386533665835412,-0.0019730976247334733,
0.11391521197007481,0.032814375306772454,
0.11396508728179551,0.036621093701567214,
0.1140149625935162,0.03452106656462797,
0.1140648379052369,0.01449785885138878,
0.11411471321695761,0.03721035376241864,
0.1141645885286783,0.022213048811402247,
0.114214463840399,0.022461491445923614,
0.1142643391521197,0.039818444372855866,
0.1143142144638404,0.04173474826839928,
0.1143640897755611,0.03986282571936988,
0.1144139650872818,0.04791212755640127,
0.1144638403990025,0.04418527501183872,
0.11451371571072319,0.024794482970551878,
0.11456359102244389,0.022768762015911267,
0.11461346633416458,0.014427340047268093,
0.11466334164588529,0.02611342647707996,
0.11471321695760599,0.013767179635731859,
0.11476309226932668,0.035034358700662606,
0.11481296758104738,0.03759465586302369,
0.11486284289276807,0.025725233971989593,
0.11491271820448878,0.023190757173019688,
0.11496259351620948,0.007441061988307093,
0.11501246882793018,0.011226530987292134,
0.11506234413965087,-0.004941846298847488,
0.11511221945137157,0.03428414604799304,
0.11516209476309226,0.033077649551052524,
0.11521197007481297,0.011869000701315566,
0.11526184538653367,0.011414909581031637,
0.11531172069825436,0.017872190785473096,
0.11536159600997506,0.0008632373487996031,
0.11541147132169575,0.03150179296918694,
0.11546134663341646,0.012467852701806226,
0.11551122194513716,0.03247691235776909,
0.11556109725685786,0.032695684764703886,
0.11561097256857855,0.016434095856132952,
0.11566084788029925,0.0051856032334383646,
0.11571072319201996,0.04236363405965325,
0.11576059850374065,0.014685443455266891,
0.11581047381546135,-0.0007420208655311809,
0.11586034912718204,0.015378956793936967,
0.11591022443890274,0.024366503829819655,
0.11596009975062344,0.01279644491227559,
0.11600997506234415,0.017993072276128206,
0.11605985037406484,0.007987530209414099,
0.11610972568578554,0.0029753654514092873,
0.11615960099750623,-0.010300706172105,
0.11620947630922693,0.008342800385150225,
0.11625935162094764,-0.0013908788274571565,
0.11630922693266833,0.041570639512825316,
0.11635910224438903,0.0074309521300413815,
0.11640897755610972,0.015056750533045556,
0.11645885286783042,0.006906467304439554,
0.11650872817955112,0.0057562902701646015,
0.11655860349127183,0.0008545383155594607,
0.11660847880299252,-0.0018138600028274401,
0.11665835411471322,0.00622445568962807,
0.11670822942643391,0.019515496564863115,
0.11675810473815461,0.017723334127069966,
0.11680798004987532,0.015223074586362881,
0.11685785536159601,0.01477317107819554,
0.11690773067331671,0.011565252589190037,
0.1169576059850374,0.017286904251677428,
0.1170074812967581,-0.013561967216268529,
0.1170573566084788,0.014331338316076985,
0.1171072319201995,0.026657720483306627,
0.1171571072319202,0.004319217582943542,
0.1172069825436409,-0.024941902687206752,
0.1172568578553616,0.008744502234480804,
0.11730673316708229,-0.004544086457482534,
0.117356608478803,0.02002923745733024,
0.1174064837905237,-0.001610576440821904,
0.11745635910224439,0.02894694205359727,
0.11750623441396509,0.0002838093018529839,
0.11755610972568578,0.010069705018371343,
0.11760598503740648,-0.004934683971961266,
0.11765586034912719,0.01900118254677858,
0.11770573566084788,-0.009782785841280651,
0.11775561097256858,0.0325566448657571,
0.11780548628428927,0.010570089559914026,
0.11785536159600997,0.015135703808915693,
0.11790523690773068,0.011974178263509374,
0.11795511221945137,0.004189047737783131,
0.11800498753117207,0.0011832163722035427,
0.11805486284289277,0.038868465476144066,
0.11810473815461346,0.003745107074281012,
0.11815461346633417,-0.01968180941077139,
0.11820448877805487,0.02969429206935574,
0.11825436408977556,-0.008438881873768117,
0.11830423940149626,-0.01993929209515975,
0.11835411471321695,-0.0018515850073478743,
0.11840399002493765,0.008121185817574643,
0.11845386533665836,0.014847053912759704,
0.11850374064837906,-0.02529151979981082,
0.11855361596009975,0.0057875376463552,
0.11860349127182045,-0.01248399968082907,
0.11865336658354114,-0.03384319052688581,
0.11870324189526185,0.010939056426608551,
0.11875311720698255,-0.010316891976593476,
0.11880299251870324,0.03141833337512672,
0.11885286783042394,0.017281251765561743,
0.11890274314214463,-0.00052544950981193,
0.11895261845386533,0.00595474957020587,
0.11900249376558604,0.010324291074280815,
0.11905236907730674,0.0033707421197134166,
0.11910224438902743,0.007396469698910018,
0.11915211970074813,0.016747850406195197,
0.11920199501246882,0.012852522177629694,
0.11925187032418953,0.0005633036375450534,
0.11930174563591023,-0.013157557510223308,
0.11935162094763092,-0.0043552854038782715,
0.11940149625935162,0.017053001015505397,
0.11945137157107232,0.0025775462551536656,
0.11950124688279301,-0.00797760369303457,
0.11955112219451372,0.009124921585107143,
0.11960099750623442,-0.010292240748716618,
0.11965087281795511,-0.0060256405794722094,
0.11970074812967581,-0.011871385030604715,
0.1197506234413965,-0.003738116616328025,
0.11980049875311721,0.004038824336728133,
0.11985037406483791,0.010406068495840935,
0.1199002493765586,-0.0008239910644308309,
0.1199501246882793,0.011981184997873314,
0.12,-0.021030966108530117,
0.1200498753117207,-0.016553349040711714,
0.1200997506234414,-0.024511379057074956,
0.1201496259351621,-0.006547448007607159,
0.12019950124688279,0.007055090306962617,
0.12024937655860349,0.02156267925382247,
0.12029925187032418,-0.0018219416891825978,
0.1203491271820449,0.02405816612946744,
0.12039900249376559,-0.023346818412884208,
0.12044887780548628,0.0012775015303574007,
0.12049875311720698,-0.005151680518948909,
0.12054862842892768,0.004105020808431229,
0.12059850374064839,-0.0024267797269006035,
0.12064837905236908,0.005012678342883568,
0.12069825436408978,-0.016768318237042897,
0.12074812967581047,0.009795604485205675,
0.12079800498753117,0.02284346076108079,
0.12084788029925186,0.02245827296576384,
0.12089775561097257,-0.00017981786768923695,
0.12094763092269327,-0.007625626408172236,
0.12099750623441397,-0.02872733544970147,
0.12104738154613466,-0.023129252369263775,
0.12109725685785536,-0.014523188087640956,
0.12114713216957607,-0.020628969119076957,
0.12119700748129676,-0.004746538016272703,
0.12124688279301746,-0.010783917713054514,
0.12129675810473815,-0.0038206397074226914,
0.12134663341645885,0.014155820980658712,
0.12139650872817954,0.0010574236657775425,
0.12144638403990025,-0.027537132157943612,
0.12149625935162095,0.008226808885266635,
0.12154613466334165,-0.019250768137061006,
0.12159600997506234,-0.0014439918545926956,
0.12164588528678304,-0.015595206286972349,
0.12169576059850375,-0.011316990292876888,
0.12174563591022444,-0.006555028063016995,
0.12179551122194514,-0.016148974438155814,
0.12184538653366583,-0.012435752366581367,
0.12189526184538653,0.004815002227884425,
0.12194513715710723,-0.022729404076934467,
0.12199501246882793,-0.021788548363421922,
0.12204488778054863,-0.038256275496885914,
0.12209476309226933,-0.016232497840067042,
0.12214463840399002,-0.013631727641972636,
0.12219451371571072,-0.001917390775336517,
0.12224438902743143,-0.010453536168597321,
0.12229426433915212,-0.02235157796696755,
0.12234413965087282,0.008194533477175484,
0.12239401496259351,-0.010775316508763134,
0.12244389027431421,-0.012373214131662234,
0.12249376558603492,0.003801794337715129,
0.12254364089775562,-0.005715454668208813,
0.12259351620947631,-0.002638857146466606,
0.122643391521197,-0.020264481917136656,
0.1226932668329177,-0.008258820509774419,
0.1227431421446384,-0.0008172333136474402,
0.12279301745635911,-0.01044792400893174,
0.1228428927680798,0.006163369047462241,
0.1228927680798005,-0.0011527518797184323,
0.1229426433915212,0.02065673828442536,
0.12299251870324189,-0.0022417789184934513,
0.1230423940149626,-0.030587087622366366,
0.1230922693266833,-0.00888152219020386,
0.12314214463840399,-0.02527998313100681,
0.12319201995012469,-0.011154071700636654,
0.12324189526184538,-0.002337445072866191,
0.12329177057356608,-0.011956199410431318,
0.12334164588528679,0.023941027425525258,
0.12339152119700748,-0.001352145241545026,
0.12344139650872818,-0.00037109035890987505,
0.12349127182044888,0.01263199284985822,
0.12354114713216957,-0.04048154388706354,
0.12359102244389028,-0.010425660055478798,
0.12364089775561098,-0.025433435239887166,
0.12369077306733167,-0.02647258325361223,
0.12374064837905237,-0.004888373129964382,
0.12379052369077306,-0.005625367106625511,
0.12384039900249376,-0.01075383747744167,
0.12389027431421447,-0.010228405043676133,
0.12394014962593516,0.006119192509989749,
0.12399002493765586,0.004295542671974824,
0.12403990024937656,0.003954596747300459,
0.12408977556109725,0.012924335232375331,
0.12413965087281796,0.017274536684610632,
0.12418952618453866,0.004698755533654925,
0.12423940149625935,-0.03085181690146071,
0.12428927680798005,-0.0058575035548745595,
0.12433915211970074,-0.0006162056463764019,
0.12438902743142144,-0.01866062348835247,
0.12443890274314215,-0.024286289614226117,
0.12448877805486284,0.014088555670531924,
0.12453865336658354,-0.01561874232552204,
0.12458852867830424,-0.0023125711968751145,
0.12463840399002493,0.0018969613501881016,
0.12468827930174564,0.00506985191869915,
0.12473815461346634,-0.017264393385351337,
0.12478802992518703,-0.004142579054888671,
0.12483790523690773,-0.029888364524695298,
0.12488778054862842,-0.012859864032843931,
0.12493765586034913,-0.007629394088106986,
0.12498753117206983,-0.040057333419982986,
0.12503740648379053,-0.011935356742352313,
0.12508728179551123,0.012734260747601226,
0.12513715710723192,0.0059377479261221305,
0.12518703241895263,-0.0018407746934223541,
0.1252369077306733,-0.016679979834253636,
0.12528678304239402,0.02342771351163407,
0.1253366583541147,0.001281960530123488,
0.1253865336658354,0.004369833456964758,
0.12543640897755612,-0.02138400330856183,
0.1254862842892768,-0.0020388286094835464,
0.1255361596009975,-0.011319482923751917,
0.1255860349127182,0.029577426569396895,
0.1256359102244389,-0.01683585376110921,
0.1256857855361596,0.013055817798907616,
0.1257356608478803,-0.0029537105055856363,
0.125785536159601,0.00803795703693078,
0.12583541147132168,0.013321585848942162,
0.1258852867830424,0.032371455128034424,
0.1259351620947631,-0.013167001221118121,
0.12598503740648379,-0.011911233770352523,
0.1260349127182045,-0.014016217233728014,
0.12608478802992518,-0.0016229886636759039,
0.1261346633416459,-0.007517452259629171,
0.1261845386533666,0.020678671772259884,
0.12623441396508728,-0.020994360961756695,
0.126284289276808,0.02375894584564414,
0.12633416458852867,0.010303861327111278,
0.12638403990024938,0.022235076114056545,
0.1264339152119701,0.002925497057484636,
0.12648379052369077,0.0021901505377400774,
0.12653366583541148,0.0008157119780026721,
0.12658354114713216,0.01940261725768421,
0.12663341645885287,0.014575353272458562,
0.12668329177057355,0.007881814412884927,
0.12673316708229426,-0.011457636834607422,
0.12678304239401497,0.02457859596273714,
0.12683291770573565,0.0075589132939312695,
0.12688279301745636,0.012095939500696724,
0.12693266832917705,0.01096867779166695,
0.12698254364089775,0.018762494560588188,
0.12703241895261846,0.0179436189537672,
0.12708229426433915,-0.001034849105160762,
0.12713216957605986,0.024189744740203113,
0.12718204488778054,0.0027081440154451625,
0.12723192019950125,-0.0027730282709758254,
0.12728179551122196,-0.02828465724304078,
0.12733167082294264,0.03174366413253373,
0.12738154613466335,0.008411789350218206,
0.12743142144638403,-0.0012733276480316122,
0.12748129675810474,0.019806175408159907,
0.12753117206982545,0.014445473501087953,
0.12758104738154613,-0.0004991542474385366,
0.12763092269326684,0.014379543915509933,
0.12768079800498752,-0.001640214317544528,
0.12773067331670823,-0.006722184212673151,
0.1277805486284289,0.0238039668140832,
0.12783042394014962,0.019843288677495192,
0.12788029925187033,0.038369730238111764,
0.12793017456359101,0.01731949402288481,
0.12798004987531172,0.014856128968194037,
0.1280299251870324,0.012786850322855734,
0.12807980049875312,0.02996293893943368,
0.12812967581047383,0.034867279090528364,
0.1281795511221945,0.03400585645090824,
0.12822942643391522,0.015908482418744204,
0.1282793017456359,0.030282543962205692,
0.1283291770573566,-0.002986539121834688,
0.12837905236907732,0.007217050448063788,
0.128428927680798,0.006389593439166973,
0.1284788029925187,-0.002742324780813689,
0.1285286783042394,-0.0015721318007194882,
0.1285785536159601,0.02738398344469486,
0.1286284289276808,0.0126082137032002,
0.1286783042394015,0.024091058763486144,
0.1287281795511222,-0.0018843469490401853,
0.12877805486284288,0.03400024461751113,
0.1288279301745636,0.007089276756100684,
0.1288778054862843,0.031447123219165166,
0.12892768079800498,0.02804425880125766,
0.1289775561097257,0.006780071581965098,
0.12902743142144638,0.0297157643243103,
0.12907730673316709,0.0018189342265254142,
0.12912718204488777,-0.012857441799847331,
0.12917705735660848,0.006049900476105617,
0.1292269326683292,0.01399319975166967,
0.12927680798004987,0.02641709258825813,
0.12932668329177058,0.013611682101553287,
0.12937655860349126,0.03862921367086854,
0.12942643391521197,0.007803167973140844,
0.12947630922693268,0.006758314172762304,
0.12952618453865336,-0.001964614198449559,
0.12957605985037407,0.006551318802427857,
0.12962593516209475,0.02117471915645207,
0.12967581047381546,0.03438951771542276,
0.12972568578553617,0.023427331037488838,
0.12977556109725685,0.009194809667490901,
0.12982543640897756,0.006309060907127739,
0.12987531172069824,0.016432260222250195,
0.12992518703241895,0.03809457397487159,
0.12997506234413966,0.04353711822827314,
0.13002493765586035,0.02652296623659841,
0.13007481296758105,0.02452369484550752,
0.13012468827930174,0.05209029509444647,
0.13017456359102245,0.035305853817139896,
0.13022443890274316,0.024561332297786842,
0.13027431421446384,0.019390747871521532,
0.13032418952618455,0.008145281822168563,
0.13037406483790523,0.01661836469751176,
0.13042394014962594,0.008414907274416579,
0.13047381546134662,0.018362852847628917,
0.13052369077306733,0.022650229663277226,
0.13057356608478804,0.0026121671354881713,
0.13062344139650872,0.028312563478594278,
0.13067331670822943,0.011152711400004976,
0.1307231920199501,0.004027764562984353,
0.13077306733167082,0.029011005876740846,
0.13082294264339153,0.02371773079310885,
0.13087281795511221,0.06026611611794257,
0.13092269326683292,0.007330132362780215,
0.1309725685785536,0.00762894383750902,
0.13102244389027431,0.03546311335304013,
0.13107231920199502,0.03436897938217783,
0.1311221945137157,0.0410950709213555,
0.13117206982543642,0.07496735023050963,
0.1312219451371571,0.019992996822396504,
0.1312718204488778,0.013207968950128685,
0.13132169576059852,0.045840306130284315,
0.1313715710723192,0.018085136816262372,
0.1314214463840399,0.04337498523399908,
0.1314713216957606,0.009712252835270663,
0.1315211970074813,0.03149603848140553,
0.13157107231920198,0.041714819219702076,
0.1316209476309227,0.041341848735316815,
0.1316708229426434,0.008100883232119719,
0.13172069825436408,0.05050733201936197,
0.1317705735660848,0.03206386074069563,
0.13182044887780547,0.013896574260009491,
0.13187032418952618,0.031578137748224905,
0.1319201995012469,0.02364018301397955,
0.13197007481296757,0.02583164284446402,
0.13201995012468828,0.007295138139323774,
0.13206982543640897,0.05676626534955896,
0.13211970074812968,0.045335559695380834,
0.13216957605985039,0.022722157080704207,
0.13221945137157107,0.026736762688540597,
0.13226932668329178,0.010524820833789333,
0.13231920199501246,0.017804740224707617,
0.13236907730673317,0.033525599600936824,
0.13241895261845388,0.012774849303282633,
0.13246882793017456,0.031191706888392148,
0.13251870324189527,0.0384251946938906,
0.13256857855361595,0.027889922620732654,
0.13261845386533666,0.026234931440660646,
0.13266832917705737,0.0248518099680645,
0.13271820448877805,0.027564795165630557,
0.13276807980049876,0.025977435873541108,
0.13281795511221944,0.030241116284705123,
0.13286783042394015,0.03161810895801916,
0.13291770573566083,0.02084545096745765,
0.13296758104738154,0.0053482488080511086,
0.13301745635910225,0.02613311398268012,
0.13306733167082294,0.03535487989693513,
0.13311720698254365,0.016283056354665933,
0.13316708229426433,0.026455329640672782,
0.13321695760598504,0.040600734656871154,
0.13326683291770575,0.049042891431115905,
0.13331670822942643,0.022787925986845793,
0.13336658354114714,0.01308276548651258,
0.13341645885286782,0.019062172986933128,
0.13346633416458853,0.03652997479319154,
0.13351620947630924,0.021178485021766752,
0.13356608478802992,0.050819171419031,
0.13361596009975063,0.03956000829874215,
0.1336658354114713,0.034942144672142544,
0.13371571072319202,0.033486810220711344,
0.13376558603491273,0.019682670850006828,
0.1338154613466334,0.006628678207468985,
0.13386533665835412,0.014017944749430323,
0.1339152119700748,0.04479090054301607,
0.13396508728179551,0.030961110290200686,
0.1340149625935162,0.016616480088488893,
0.1340648379052369,0.024921474280459592,
0.13411471321695762,0.025039472494358173,
0.1341645885286783,0.04128907064169,
0.134214463840399,0.029033115177082736,
0.1342643391521197,0.009597390960464122,
0.1343142144638404,0.048319530959077955,
0.1343640897755611,0.009471038095731445,
0.1344139650872818,0.026306154701644168,
0.1344638403990025,0.035728262222926334,
0.13451371571072318,0.0226052435738965,
0.1345635910224439,0.0463927612462104,
0.1346134663341646,0.0066166511220650814,
0.13466334164588528,0.0032206496673078677,
0.134713216957606,0.03031878110871642,
0.13476309226932667,0.023367195213714935,
0.13481296758104738,0.019634601080993675,
0.1348628428927681,0.016917435889062506,
0.13491271820448877,0.023495513505641757,
0.13496259351620948,0.01037471219374257,
0.13501246882793017,0.021537708898771785,
0.13506234413965088,0.05397986029471488,
0.13511221945137158,0.008463998305581883,
0.13516209476309227,0.022360367297510987,
0.13521197007481298,0.04004971044055551,
0.13526184538653366,0.025300042665434036,
0.13531172069825437,0.011544066466574233,
0.13536159600997505,0.03653561035271158,
0.13541147132169576,0.03754884850966414,
0.13546134663341647,0.00990721519885619,
0.13551122194513715,0.018470789520959006,
0.13556109725685786,0.027045957425755704,
0.13561097256857854,0.019699949908130725,
0.13566084788029925,0.022701844384497433,
0.13571072319201996,0.03996882172283615,
0.13576059850374064,0.022145555856379156,
0.13581047381546135,0.009402527767083384,
0.13586034912718203,0.02696289449425982,
0.13591022443890274,0.022033540127177915,
0.13596009975062345,0.020671924664784666,
0.13600997506234414,0.02436343420538347,
0.13605985037406484,0.004384260700598016,
0.13610972568578553,0.026322311496582224,
0.13615960099750624,0.022407753555065232,
0.13620947630922695,0.024224826259673097,
0.13625935162094763,0.026170409210602135,
0.13630922693266834,-0.00029255801753167235,
0.13635910224438902,0.03451808234357012,
0.13640897755610973,0.0318914875176039,
0.1364588528678304,0.011647456554201446,
0.13650872817955112,-0.0181054123176027,
0.13655860349127183,0.016268303025392623,
0.1366084788029925,0.024897496471584867,
0.13665835411471322,0.01091877098427681,
0.1367082294264339,0.010465211280386744,
0.1367581047381546,-0.01627276946408021,
0.13680798004987532,0.020831064659256937,
0.136857855361596,0.004103677549003719,
0.1369077306733167,0.018562367029167626,
0.1369576059850374,0.01943109812015821,
0.1370074812967581,0.02469370525372807,
0.13705735660847881,0.02684389420995634,
0.1371072319201995,0.00893017677095348,
0.1371571072319202,0.020078565727117137,
0.1372069825436409,-0.00806788529044835,
0.1372568578553616,0.002709868173033425,
0.1373067331670823,0.02443399229186718,
0.137356608478803,-0.005927882150283484,
0.1374064837905237,0.04363398639118149,
0.13745635910224438,0.014496384304790921,
0.1375062344139651,0.005686610020954847,
0.1375561097256858,0.032845602321519674,
0.13760598503740648,-0.006886447296074372,
0.1376558603491272,-0.007872102322795069,
0.13770573566084787,-0.019729949601929878,
0.13775561097256858,0.013043324212954292,
0.13780548628428926,-0.003774614719386742,
0.13785536159600997,-0.009082646646924222,
0.13790523690773068,0.010141975875547622,
0.13795511221945136,0.018919907983463713,
0.13800498753117207,0.00892272674475758,
0.13805486284289276,0.025884179863955636,
0.13810473815461347,0.007407387783007867,
0.13815461346633418,-0.0004206809423680253,
0.13820448877805486,0.019580005823287033,
0.13825436408977557,0.014158194615426799,
0.13830423940149625,0.021788020155155886,
0.13835411471321696,0.018789611324857153,
0.13840399002493767,-0.0016460788460388653,
0.13845386533665835,0.005895976649966644,
0.13850374064837906,0.021020451663533862,
0.13855361596009974,0.00758062026444007,
0.13860349127182045,0.03919295507649132,
0.13865336658354116,-0.008632824360519879,
0.13870324189526184,0.0029722087365173077,
0.13875311720698255,0.001438808795409776,
0.13880299251870323,0.005601019987852786,
0.13885286783042394,-0.004067840442207073,
0.13890274314214462,0.018637544153326045,
0.13895261845386533,-0.00030713856979219193,
0.13900249376558604,-0.010325420892590009,
0.13905236907730673,0.018017682811384272,
0.13910224438902744,-0.029660386028838075,
0.13915211970074812,-0.00090585252597152,
0.13920199501246883,-0.015716665439849623,
0.13925187032418954,-0.006354547246050872,
0.13930174563591022,-0.005819203292244278,
0.13935162094763093,-0.00272152703496188,
0.1394014962593516,-0.007986273037280021,
0.13945137157107232,-0.001379213994857384,
0.13950124688279303,-0.015829040483109517,
0.1395511221945137,0.03532662256088667,
0.13960099750623442,-0.005237018722834949,
0.1396508728179551,-0.01583066699744285,
0.1397007481296758,0.004589400614024345,
0.13975062344139652,-0.015092266537704945,
0.1398004987531172,0.01323726051949089,
0.1398503740648379,-0.029226051620050368,
0.1399002493765586,-6.0092279803300626e-05,
0.1399501246882793,-0.019729253999267206,
0.14,-0.014095574730855777,
0.1400498753117207,0.011435332027436074,
0.1400997506234414,0.04989924426199143,
0.1401496259351621,-0.028287497343907352,
0.1401995012468828,-0.009908746436457994,
0.14024937655860348,-0.013330936809607789,
0.1402992518703242,-0.011518564990829065,
0.1403491271820449,-0.01402864751839791,
0.14039900249376558,-0.009187145994118313,
0.1404488778054863,-0.0036687648554910766,
0.14049875311720697,0.02835325212950372,
0.14054862842892768,3.543831295077342e-05,
0.1405985037406484,0.005368367528874214,
0.14064837905236907,-0.005251963657912148,
0.14069825436408978,0.0029993805217306286,
0.14074812967581046,0.011828423924226603,
0.14079800498753117,0.004227087255115896,
0.14084788029925188,-0.039403602714359526,
0.14089775561097256,0.003316259878909659,
0.14094763092269327,-0.014421599367912676,
0.14099750623441396,-0.0009901474638908643,
0.14104738154613466,0.003051746525979133,
0.14109725685785537,-0.010983460409088694,
0.14114713216957606,0.0020195622177656154,
0.14119700748129677,-0.005883523150920186,
0.14124688279301745,-0.01386069756058117,
0.14129675810473816,-0.03145298401640992,
