time,amplitude,label
0.0,0.01585796806449693,
4.987531172069826e-05,0.0071471823233745235,
9.975062344139652e-05,0.030991770751819307,
0.00014962593516209475,0.019655804606702743,
0.00019950124688279303,0.006208910706020939,
0.00024937655860349125,0.028423709109612623,
0.0002992518703241895,0.00784685839815186,
0.00034912718204488776,0.004533969243595537,
0.00039900249376558606,0.021769512388474948,
0.0004488778054862843,-0.015694189428325466,
0.0004987531172069825,0.026877427846004595,
0.0005486284289276808,0.02281893863542412,
0.000598503740648379,0.019838736496130202,
0.0006483790523690773,-0.003773031686048929,
0.0006982543640897755,0.008733335177030285,
0.0007481296758104738,-0.0024270740217878298,
0.0007980049875311721,0.016521847995980776,
0.0008478802992518703,0.04672107347282633,
0.0008977556109725686,0.023575607272018788,
0.0009476309226932668,0.015320913734130213,
0.000997506234413965,-0.0012510290200438232,
0.0010473815461346633,0.02290585451337159,
0.0010972568578553616,0.03335488234123091,
0.00114713216957606,-0.0015864566341643634,
0.001197007481296758,-0.004322191202421787,
0.0012468827930174563,0.01321472338331228,
0.0012967581047381546,0.030122299358266554,
0.001346633416458853,0.006729508945516613,
0.001396508728179551,0.029940993955141805,
0.0014463840399002493,0.01736856415230154,
0.0014962593516209476,0.0178594068439612,
0.001546134663341646,0.009399529730804268,
0.0015960099750623442,0.013700963639945697,
0.0016458852867830423,0.02885660921830964,
0.0016957605985037406,-0.002340550265267201,
0.001745635910224439,-0.0032798401918900898,
0.0017955112219451373,0.03392082093386631,
0.0018453865336658353,0.017325669611548734,
0.0018952618453865336,0.02424759034530604,
0.001945137157107232,0.0239193924947338,
0.00199501246882793,0.013870649814926438,
0.0020448877805486283,0.009081958369609688,
0.0020947630922693266,0.007040402850861613,
0.002144638403990025,0.011933042976845012,
0.0021945137157107233,0.029308812309006275,
0.0022443890274314216,0.051525502414158944,
0.00229426433915212,0.029176174056320926,
0.0023441396508728177,0.008085089754003995,
0.002394014962593516,0.04183118954260183,
0.0024438902743142144,0.003269053128423481,
0.0024937655860349127,0.034767488856331255,
0.002543640897755611,0.028414765298759012,
0.0025935162094763093,0.02354209212446469,
0.0026433915211970076,0.009556297919132381,
0.002693266832917706,0.009535662870525971,
0.002743142144638404,0.03960805693184474,
0.002793017456359102,0.017378427584193036,
0.0028428927680798004,0.02705087385278667,
0.0028927680798004987,0.022339137305632393,
0.002942643391521197,0.013075472457372783,
0.0029925187032418953,0.04330877572662939,
0.0030423940149625936,0.035132402986789525,
0.003092269326683292,0.008319302240872215,
0.00314214463840399,0.029144538625987662,
0.0031920199501246885,0.0025614673168364924,
0.0032418952618453864,0.031026046082992854,
0.0032917705735660847,-0.006750252707554891,
0.003341645885286783,0.008134951538302787,
0.0033915211970074813,0.021441341159722974,
0.0034413965087281796,-0.006631198984948548,
0.003491271820448878,0.030291448479478053,
0.003541147132169576,-3.4118452151891965e-05,
0.0035910224438902745,0.0038112808462731178,
0.0036408977556109724,0.03731220608862923,
0.0036907730673316707,0.011446990007511173,
0.003740648379052369,0.03911693289239876,
0.0037905236907730673,0.01977798171789561,
0.0038403990024937656,0.002110379477959577,
0.003890274314214464,0.02509796464982171,
0.003940149625935162,0.004119636764896253,
0.00399002493765586,0.0202186002489079,
0.004039900249376558,0.02645085269161822,
0.004089775561097257,0.0036972309414297667,
0.004139650872817955,0.04799059415030193,
0.004189526184538653,-0.004078383039382651,
0.004239401496259352,0.02553893152359757,
0.00428927680798005,0.009713531676382068,
0.004339152119700748,0.0416451019158391,
0.0043890274314214465,0.011530008773915893,
0.004438902743142145,0.002454978741160529,
0.004488778054862843,0.031843655441011594,
0.004538653366583541,0.021417179521062903,
0.00458852867830424,0.03493620705994976,
0.004638403990024938,0.03879910572608883,
0.0046882793017456355,0.0030332274507826017,
0.004738154613466334,-0.0018306015424755344,
0.004788029925187032,0.06138638519611189,
0.00483790523690773,0.007700996558540228,
0.004887780548628429,0.01832599145918705,
0.004937655860349127,0.019310768363877847,
0.004987531172069825,0.028001628373658893,
0.005037406483790524,0.03532559231122508,
0.005087281795511222,0.009582118271613312,
0.00513715710723192,0.0031911303733736344,
0.0051870324189526185,0.016990707989045978,
0.005236907730673317,0.009080174394157488,
0.005286783042394015,0.027808718593866626,
0.0053366583541147134,0.01894152749063737,
0.005386533665835412,0.038465350479366174,
0.00543640897755611,0.023299038132191176,
0.005486284289276808,-0.0076538398711542555,
0.005536159600997507,0.02006825000336993,
0.005586034912718204,0.018122929739497425,
0.005635910224438902,0.011189983015599637,
0.005685785536159601,0.03045152055701468,
0.005735660847880299,0.011944019628643901,
0.005785536159600997,0.0032230346052878785,
0.005835411471321696,0.007698669503124878,
0.005885286783042394,0.01488538626144455,
0.005935162094763092,0.03927467001864284,
0.0059850374064837905,0.0490498304000443,
0.006034912718204489,0.004421295113460337,
0.006084788029925187,0.034170045775525085,
0.0061346633416458855,0.014368884490757135,
0.006184538653366584,0.025622513985494328,
0.006234413965087282,0.013282214947908072,
0.00628428927680798,-0.00361284246534861,
0.006334164588528679,0.009443180618306374,
0.006384039900249377,0.006575195405385937,
0.006433915211970074,-0.000544335671114303,
0.006483790523690773,0.04068712955761272,
0.006533665835411471,-0.0032524436674170303,
0.006583541147132169,-0.005521585860970762,
0.006633416458852868,0.005337084450223311,
0.006683291770573566,-0.003372148393513172,
0.006733167082294264,0.013102894139095487,
0.0067830423940149626,0.01749765875974668,
0.006832917705735661,0.016656071442570267,
0.006882793017456359,0.03452983362075149,
0.0069326683291770575,0.004572708694804987,
0.006982543640897756,0.001891077128985048,
0.007032418952618454,0.0012246757282212747,
0.007082294264339152,0.018798439356558286,
0.007132169576059851,-0.0018475514903325769,
0.007182044887780549,0.02356084552409525,
0.007231920199501247,0.009815362334218734,
0.007281795511221945,0.0006771665229249428,
0.007331670822942643,0.01749005515956356,
0.007381546134663341,0.01778589853102522,
0.00743142144638404,0.01712441673908735,
0.007481296758104738,0.0011474089649526889,
0.007531172069825436,-0.022612579180537017,
0.007581047381546135,-0.007117497306315854,
0.007630922693266833,0.00038410251856974865,
0.007680798004987531,-0.01255526066330298,
0.0077306733167082295,0.013850624327936323,
0.007780548628428928,0.002601998810882489,
0.007830423940149626,-0.016104975909679117,
0.007880299251870324,-0.0014623983136977207,
0.007930174563591023,-0.009210613605123544,
0.00798004987531172,0.023200075423110516,
0.00802992518703242,0.006619769830618548,
0.008079800498753117,-0.016111809389889983,
0.008129675810473816,0.013433501119159573,
0.008179551122194513,-0.001205806857270065,
0.008229426433915213,0.011820076509391476,
0.00827930174563591,-0.008005152292968373,
0.00832917705735661,0.010207529900477371,
0.008379052369077307,0.03138175111996452,
0.008428927680798006,0.019443156137629147,
0.008478802992518703,0.04523966706702102,
0.0085286783042394,-0.01938455986508315,
0.0085785536159601,0.006729730876695833,
0.008628428927680797,0.012554605330673199,
0.008678304239401496,-0.01664658783842923,
0.008728179551122194,0.01795811241808347,
0.008778054862842893,0.024248819281465182,
0.00882793017456359,-0.008340978488914418,
0.00887780548628429,-0.026603453791316303,
0.008927680798004987,0.006106509695963978,
0.008977556109725686,-0.0057857372179253,
0.009027431421446384,-0.01520721027744871,
0.009077306733167083,-0.0025679539750545835,
0.00912718204488778,0.009374903372089818,
0.00917705735660848,-0.02076973232207414,
0.009226932668329177,-0.012927500220305754,
0.009276807980049876,-0.00829474624101735,
0.009326683291770574,-0.011093077523108605,
0.009376558603491271,-0.0056281190905892895,
0.00942643391521197,-0.02432802668961093,
0.009476309226932668,-0.011590133084127806,
0.009526184538653367,-0.00024355278878591957,
0.009576059850374064,-0.0059730628534424,
0.009625935162094763,0.0019056952363580805,
0.00967581047381546,-0.010168917824376341,
0.00972568578553616,-0.026535375098781847,
0.009775561097256857,-0.016800752386718673,
0.009825436408977557,-0.011452978357098003,
0.009875311720698254,-0.006344990324169691,
0.009925187032418953,-0.0029804277974524737,
0.00997506234413965,-0.001590046123417183,
0.01002493765586035,-0.00108690635261211,
0.010074812967581047,-0.02676510004988973,
0.010124688279301746,-0.00429008147694441,
0.010174563591022444,-0.01623341152896298,
0.010224438902743141,-0.008510498989150739,
0.01027431421446384,0.000794169556382996,
0.010324189526184538,-0.010217040600998477,
0.010374064837905237,0.0012739802989029155,
0.010423940149625935,0.014375034945639301,
0.010473815461346634,-0.018376600711576156,
0.010523690773067331,-0.0054793071268663136,
0.01057356608478803,-0.014794492721726442,
0.010623441396508728,-0.020949246170923714,
0.010673316708229427,-0.041982055080250116,
0.010723192019950124,0.004439342970095957,
0.010773067331670824,0.0024784976541093132,
0.010822942643391521,0.001074930206235239,
0.01087281795511222,0.0017405093746487316,
0.010922693266832918,-0.0007095730193506754,
0.010972568578553617,0.0026499820671451978,
0.011022443890274314,-0.03505318177579891,
0.011072319201995013,-0.0009976116926333923,
0.01112219451371571,0.007392643797499985,
0.011172069825436408,0.003413026849658196,
0.011221945137157107,-0.01813736327616209,
0.011271820448877805,-0.004163925496956954,
0.011321695760598504,-0.03192248210569375,
0.011371571072319201,-0.029683338315256002,
0.0114214463840399,-0.02049882697722975,
0.011471321695760598,-0.024060381213520353,
0.011521197007481297,-0.032062842939191656,
0.011571072319201995,-0.009459006942529536,
0.011620947630922694,0.013785968827314143,
0.011670822942643391,-0.03164461004257317,
0.01172069825436409,-0.030059139289485448,
0.011770573566084788,-0.006960049111771373,
0.011820448877805487,-0.007475653966671093,
0.011870324189526184,-0.01293478426930344,
0.011920199501246884,-0.02577968390641335,
0.011970074812967581,-0.024139865859295735,
0.012019950124688279,-0.030207360700839937,
0.012069825436408978,-0.011334447999354787,
0.012119700748129675,-0.014665717715849437,
0.012169576059850374,-0.020262641255524502,
0.012219451371571072,-0.01831072822726568,
0.012269326683291771,0.0038013964844601546,
0.012319201995012468,-0.012017264124956918,
0.012369077306733168,-0.02166884849098556,
0.012418952618453865,-0.02885005877670062,
0.012468827930174564,-0.010887952564099437,
0.012518703241895262,0.0023978586390111696,
0.01256857855361596,-0.028881147723329066,
0.012618453865336658,-0.023089712839968413,
0.012668329177057357,0.010940326993466427,
0.012718204488778055,-0.02686696270368724,
0.012768079800498754,-0.014926665917146389,
0.012817955112219451,-0.011736964800754235,
0.012867830423940149,-0.03392266484225716,
0.012917705735660848,-0.023068947247023016,
0.012967581047381545,-0.014063760279592136,
0.013017456359102245,-0.032427346996299414,
0.013067331670822942,-0.007410972544524885,
0.013117206982543641,-0.013159241267798688,
0.013167082294264339,-0.006473231584909119,
0.013216957605985038,-0.021524521033762546,
0.013266832917705735,-0.03574915088074421,
0.013316708229426434,-0.04853353482302891,
0.013366583541147132,-0.0456316736463806,
0.013416458852867831,-0.0345042116309112,
0.013466334164588529,-0.022382319591499236,
0.013516209476309228,-0.011803762645122468,
0.013566084788029925,-0.021752260678800456,
0.013615960099750624,-0.016754561257421776,
0.013665835411471322,0.013758207403761609,
0.01371571072319202,-0.035154923839645046,
0.013765586034912718,-0.019078807988585172,
0.013815461346633416,-0.029042107967762236,
0.013865336658354115,-0.014091891069729495,
0.013915211970074812,-0.015031080877083103,
0.013965087281795512,-0.049474233366564785,
0.014014962593516209,-0.019662793406248175,
0.014064837905236908,0.00589570838368228,
0.014114713216957606,0.0033731526432772135,
0.014164588528678305,-0.020043268016621766,
0.014214463840399002,-0.013183529546118337,
0.014264339152119701,-0.013916349176440551,
0.014314214463840399,-0.045197417714562885,
0.014364089775561098,-0.005667935417511347,
0.014413965087281795,-0.0303394232005411,
0.014463840399002495,-0.006685427766813971,
0.014513715710723192,-0.016410477672676515,
0.01456359102244389,-0.02490894945802178,
0.014613466334164589,-0.005986098896188277,
0.014663341645885286,-0.03470924740201147,
0.014713216957605985,-0.009546695438450022,
0.014763092269326683,-0.028419489361094605,
0.014812967581047382,0.0032423151096789907,
0.01486284289276808,0.013835198421145556,
0.014912718204488778,-0.013479466624978136,
0.014962593516209476,-0.01417871548582017,
0.015012468827930175,-0.03548714478612314,
0.015062344139650873,-0.006095996952377773,
0.015112219451371572,-0.007042453984107005,
0.01516209476309227,-0.013418345905608371,
0.015211970074812968,-0.0344355985861802,
0.015261845386533666,-0.007271365131737246,
0.015311720698254365,-0.022120744694058454,
0.015361596009975062,-0.025653020285991725,
0.01541147132169576,-0.012571064446982434,
0.015461346633416459,-0.018802656346462904,
0.015511221945137156,-0.0175158073718634,
0.015561097256857856,-0.005123180786760804,
0.015610972568578553,-0.023135759368218833,
0.015660847880299252,-0.005309594578048058,
0.01571072319201995,0.0064394322700450975,
0.015760598503740647,0.0024688317806786514,
0.015810473815461346,-0.00942092452867325,
0.015860349127182045,-0.03234217529065907,
0.015910224438902745,-0.022224628089716886,
0.01596009975062344,-0.02483751185083253,
0.01600997506234414,-0.006355706779169215,
0.01605985037406484,-0.010945685399990657,
0.016109725685785538,-0.022845359899845548,
0.016159600997506234,-0.005254844466246703,
0.016209476309226933,-0.0512386792376926,
0.016259351620947632,-0.04296951076156294,
0.016309226932668328,-0.016120155751905885,
0.016359102244389027,-0.022372536619523584,
0.016408977556109726,-0.02334231100382181,
0.016458852867830425,-0.000877255308584797,
0.01650872817955112,-0.00543551353646607,
0.01655860349127182,-0.015324446596652577,
0.01660847880299252,-0.03199067676061128,
0.01665835411471322,-0.007727870301795733,
0.016708229426433914,0.010110342909045987,
0.016758104738154613,-0.004079003264014608,
0.016807980049875312,-0.021498126728386663,
0.01685785536159601,-0.020510314899343254,
0.016907730673316707,-0.04023249947675884,
0.016957605985037406,0.003964859077918692,
0.017007481296758106,-0.0032358091885659715,
0.0170573566084788,-0.008574233885098299,
0.0171072319201995,-0.017953967330023645,
0.0171571072319202,-1.0979419995428563e-06,
0.0172069825436409,-0.002333994655384842,
0.017256857855361595,-0.01131536492844613,
0.017306733167082294,0.009707610986309768,
0.017356608478802993,0.00496990735673641,
0.017406483790523692,-0.01770342524782726,
0.017456359102244388,-0.00849145777254277,
0.017506234413965087,-0.017924434321190483,
0.017556109725685786,-0.024433819111209718,
0.017605985037406485,0.01820268210065416,
0.01765586034912718,0.0014797896016768104,
0.01770573566084788,-0.032733485434231165,
0.01775561097256858,-0.0021403858109993413,
0.01780548628428928,-0.0008328129600063725,
0.017855361596009974,-0.03165254155007311,
0.017905236907730673,-0.008042604703587442,
0.017955112219451373,0.02303223827701441,
0.018004987531172068,-0.000772618652928228,
0.018054862842892767,0.021530940048275944,
0.018104738154613467,0.00881118029974895,
0.018154613466334166,0.000789400511797636,
0.01820448877805486,0.004872503279331465,
0.01825436408977556,0.0015535565254176428,
0.01830423940149626,0.006735706806979934,
0.01835411471321696,-0.0047428528783655145,
0.018403990024937655,-0.005136578971093887,
0.018453865336658354,-0.012726883844535576,
0.018503740648379053,0.01972889475328483,
0.018553615960099752,0.0007904370052515667,
0.018603491271820448,-0.0004361750476143283,
0.018653366583541147,-0.009316932935106685,
0.018703241895261846,-0.0021243337366522222,
0.018753117206982542,-0.016921787517245483,
0.01880299251870324,-0.00998087511077167,
0.01885286783042394,0.005433209084892357,
0.01890274314214464,0.014673554980959907,
0.018952618453865335,-0.024658450874157484,
0.019002493765586034,-0.000809064121443717,
0.019052369077306733,0.02093665037590345,
0.019102244389027433,0.015372772855134505,
0.01915211970074813,0.02612504693085511,
0.019201995012468828,0.007282964303797119,
0.019251870324189527,-0.02675383879313297,
0.019301745635910226,0.032149492642114474,
0.01935162094763092,-0.009948552277204287,
0.01940149625935162,-0.01188033964385152,
0.01945137157107232,0.021184603513088922,
0.01950124688279302,0.006555083405303728,
0.019551122194513715,0.021943686976142962,
0.019600997506234414,-0.018372062655237387,
0.019650872817955113,0.03017835194269368,
0.01970074812967581,0.021802510885993123,
0.019750623441396508,-0.01529444665239773,
0.019800498753117207,0.014546499285659549,
0.019850374064837906,0.020253433209572184,
0.019900249376558602,0.03494511753855213,
0.0199501246882793,-0.0021523506492249246,
0.02,0.003553311669050055,
0.0200498753117207,0.004986541820162314,
0.020099750623441395,0.005616582866681574,
0.020149625935162094,0.007762244202597444,
0.020199501246882794,0.02047566100763058,
0.020249376558603493,0.029622032729370827,
0.02029925187032419,-0.005326233655390937,
0.020349127182044888,0.005995701216179773,
0.020399002493765587,0.034420062958190376,
0.020448877805486283,0.01457712034225674,
0.02049875311720698,0.029716716195214612,
0.02054862842892768,-0.016744889565682652,
0.02059850374064838,0.00614205169619244,
0.020648379052369076,0.03160897243371067,
0.020698254364089775,0.004312132370810493,
0.020748129675810474,0.0010343633801409863,
0.020798004987531173,0.04273855222443357,
0.02084788029925187,0.014314054858434311,
0.020897755610972568,0.027292307314317348,
0.020947630922693267,0.03256993987623946,
0.020997506234413967,0.009911062693867899,
0.021047381546134662,0.037828337849873564,
0.02109725685785536,0.010903298063065673,
0.02114713216957606,-0.0026486178161555657,
0.02119700748129676,0.04422922554001662,
0.021246882793017455,0.023536951653678674,
0.021296758104738155,0.052248639752428744,
0.021346633416458854,0.024311148975961656,
0.02139650872817955,0.006442396691889462,
0.02144638403990025,0.006849979996859693,
0.021496259351620948,0.018044446219926683,
0.021546134663341647,0.03212750992732139,
0.021596009975062343,-0.0027632345859380063,
0.021645885286783042,0.006243430254728677,
0.02169576059850374,0.0034301790251860323,
0.02174563591022444,0.025844952619872005,
0.021795511221945136,0.022536649907364564,
0.021845386533665835,0.03778551459433884,
0.021895261845386534,0.021189501296081995,
0.021945137157107233,0.021145124189776564,
0.02199501246882793,0.052169878807289516,
0.02204488778054863,0.021584814656763974,
0.022094763092269327,0.060275832935659406,
0.022144638403990027,0.018624744966363946,
0.022194513715710722,0.033618255540692615,
0.02224438902743142,0.01837701145361377,
0.02229426433915212,0.024652233875671302,
0.022344139650872816,-0.007652766596046329,
0.022394014962593516,0.014717384613064481,
0.022443890274314215,0.0032799071630849087,
0.022493765586034914,0.05192524478023952,
0.02254364089775561,0.04377473309377518,
0.02259351620947631,0.05000395010629333,
0.022643391521197008,0.022818692123731964,
0.022693266832917707,0.027052711262447605,
0.022743142144638403,0.017932785506171646,
0.022793017456359102,0.018720845059650364,
0.0228428927680798,0.04736358139537867,
0.0228927680798005,0.020070698337903082,
0.022942643391521196,0.022977369601686302,
0.022992518703241895,0.013488485517391655,
0.023042394014962594,0.021047490922165152,
0.02309226932668329,0.027704526019774554,
0.02314214463840399,0.006588715403806209,
0.02319201995012469,0.018972176730485086,
0.023241895261845388,0.030475032270819408,
0.023291770573566083,0.015046987873493137,
0.023341645885286783,0.025768038241272037,
0.02339152119700748,0.007177430341956011,
0.02344139650872818,-0.01033491393805791,
0.023491271820448877,0.024799486750213436,
0.023541147132169576,0.03866569328123455,
0.023591022443890275,0.04402995318061377,
0.023640897755610974,0.03309245918944771,
0.02369077306733167,0.02113685084137161,
0.02374064837905237,0.029118799847317123,
0.023790523690773068,0.0278735068701332,
0.023840399002493767,0.011547357407194956,
0.023890274314214463,0.0297025477948204,
0.023940149625935162,0.0211235676365324,
0.02399002493765586,-0.00450743604501409,
0.024039900249376557,0.028446083018189794,
0.024089775561097256,0.030004705050176994,
0.024139650872817955,0.022236939191575624,
0.024189526184538655,0.012325827109339682,
0.02423940149625935,0.0354904757030566,
0.02428927680798005,0.02329305066970699,
0.02433915211970075,-0.0005050944291120039,
0.024389027431421448,0.010115337805267351,
0.024438902743142144,0.01617618117046276,
0.024488778054862843,0.0010388146338369056,
0.024538653366583542,0.036805008473874565,
0.02458852867830424,0.016377931480246525,
0.024638403990024937,0.032685519333820134,
0.024688279301745636,0.030719827305572107,
0.024738154613466335,0.018470275544782054,
0.02478802992518703,0.005517314220781203,
0.02483790523690773,0.055464583060175585,
0.02488778054862843,0.01039253004695769,
0.02493765586034913,0.029720626651087535,
0.024987531172069824,0.028798720458665605,
0.025037406483790523,0.030225464920264,
0.025087281795511222,0.012375625916269738,
0.02513715710723192,0.017710653191975467,
0.025187032418952617,0.005252677029322993,
0.025236907730673316,0.008656140587711181,
0.025286783042394016,0.024130420066053468,
0.025336658354114715,0.027684987746971878,
0.02538653366583541,0.030094723387214695,
0.02543640897755611,0.012735556607021394,
0.02548628428927681,0.004533812115577856,
0.025536159600997508,0.02863728150986212,
0.025586034912718204,0.024695906659603924,
0.025635910224438903,0.010086229421242186,
0.025685785536159602,0.004035952475408141,
0.025735660847880298,0.020352927178245363,
0.025785536159600997,0.024259966083532147,
0.025835411471321696,0.027548953658396012,
0.025885286783042395,0.0224201668958353,
0.02593516209476309,0.003817212855715858,
0.02598503740648379,0.018250580706824348,
0.02603491271820449,0.03429579045667192,
0.02608478802992519,0.02336342931220231,
0.026134663341645884,0.015204037686647747,
0.026184538653366583,0.03026669783583766,
0.026234413965087282,0.014791376434406641,
0.02628428927680798,-0.0024615322822439303,
0.026334164588528677,0.020065550593285224,
0.026384039900249377,0.01054690218516786,
0.026433915211970076,0.02715087599997586,
0.02648379052369077,0.014373450775354703,
0.02653366583541147,0.0016557480086486047,
0.02658354114713217,0.005957773974410265,
0.02663341645885287,0.009360468024565916,
0.026683291770573565,0.0028557923848291523,
0.026733167082294264,-0.004023525759404956,
0.026783042394014963,0.0027358924576493786,
0.026832917705735662,-0.024541195965510035,
0.026882793017456358,0.01520768985428422,
0.026932668329177057,0.003405780140475583,
0.026982543640897756,-0.0008500968941395504,
0.027032418952618455,0.029076777538501453,
0.02708229426433915,0.003061742231751624,
0.02713216957605985,0.02151115214657852,
0.02718204488778055,-0.005071960564353838,
0.02723192019950125,-0.0002267452410639869,
0.027281795511221944,0.008382497904670978,
0.027331670822942643,0.016348025761957347,
0.027381546134663343,0.013246502863373238,
0.02743142144638404,-0.012472850645057857,
0.027481296758104738,0.013789066377416314,
0.027531172069825437,0.008864110442000778,
0.027581047381546136,0.012695044034603338,
0.02763092269326683,0.0039226893260476655,
0.02768079800498753,0.008666542393765669,
0.02773067331670823,0.015337258586496816,
0.02778054862842893,0.008542513265066274,
0.027830423940149625,0.02621856655234158,
0.027880299251870324,-0.005216660438012928,
0.027930174563591023,0.005145530433405152,
0.027980049875311722,-0.010083054525699705,
0.028029925187032418,0.03417722785227567,
0.028079800498753117,0.001154804451824555,
0.028129675810473816,0.009075764786847745,
0.028179551122194512,-0.007156349327612657,
0.02822942643391521,-0.015965303978335604,
0.02827930174563591,-0.00396595689351301,
0.02832917705735661,-0.005528103531498805,
0.028379052369077305,-0.010279300003305186,
0.028428927680798004,0.0007893795876406396,
0.028478802992518704,0.011828983974507223,
0.028528678304239403,-0.0028928674555367866,
0.0285785536159601,0.012775682364146515,
0.028628428927680798,-0.0013326923750731096,
0.028678304239401497,0.02945842237319605,
0.028728179551122196,-2.2539683972454922e-05,
0.02877805486284289,-0.020209568910408995,
0.02882793017456359,-0.0032115162016206514,
0.02887780548628429,0.01352092892482219,
0.02892768079800499,-0.002123583587771259,
0.028977556109725685,-0.0022871483972157023,
0.029027431421446384,-0.005510412881969074,
0.029077306733167083,0.0036220336736025325,
0.02912718204488778,-0.01534735290176898,
0.029177057356608478,-0.03964738755562228,
0.029226932668329177,-0.013142577927444984,
0.029276807980049877,-0.027935528356663193,
0.029326683291770572,0.011572050074381422,
0.02937655860349127,-0.007946447840216298,
0.02942643391521197,-0.0007175967075079897,
0.02947630922693267,-0.020258679774283948,
0.029526184538653365,0.013775961912884872,
0.029576059850374065,0.005840230295570512,
0.029625935162094764,-0.008623865293901984,
0.029675810473815463,0.01246156745944068,
0.02972568578553616,0.022482487345659392,
0.029775561097256858,-0.005946905734322137,
0.029825436408977557,-0.006133437920637525,
0.029875311720698253,0.023468033031731002,
0.029925187032418952,0.009028794381944372,
0.02997506234413965,-0.03470333794225352,
0.03002493765586035,-0.0228742463825819,
0.030074812967581046,0.0033022562736519257,
0.030124688279301745,-0.02031689951741586,
0.030174563591022444,-0.0015592150829997426,
0.030224438902743143,-0.027657904216098823,
0.03027431421446384,-0.029606243161741153,
0.03032418952618454,0.0015465051900360582,
0.030374064837905237,-0.02298885750714156,
0.030423940149625937,-0.03550757541454125,
0.030473815461346632,-0.027152987277027425,
0.03052369077306733,-0.01812777373741637,
0.03057356608478803,-0.015041165523302535,
0.03062344139650873,-0.009031060737169756,
0.030673316708229426,0.004268553448048492,
0.030723192019950125,0.00672758015817445,
0.030773067331670824,-0.01573891166671219,
0.03082294264339152,-0.017014333172961835,
0.03087281795511222,-0.02806883691071236,
0.030922693266832918,-0.04936881535630891,
0.030972568578553617,0.005552310788911446,
0.031022443890274313,-0.016112834397164752,
0.031072319201995012,-0.002998842100259363,
0.03112219451371571,-0.028838864710199946,
0.03117206982543641,-0.021928503525954535,
0.031221945137157106,-0.022074374573444154,
0.03127182044887781,-0.006789436056322007,
0.031321695760598504,-0.016161991523460657,
0.0313715710723192,-0.0051301404294639575,
0.0314214463840399,-0.025816403528720888,
0.0314713216957606,-0.014540850467987157,
0.031521197007481294,-0.034351198650326285,
0.031571072319202,-0.014086253213378514,
0.03162094763092269,-0.031075744778536443,
0.03167082294264339,-0.0007060857363594217,
0.03172069825436409,0.011437733828731495,
0.03177057356608479,-0.01410373615785239,
0.03182044887780549,-0.030231339787893403,
0.031870324189526185,-0.008759587015392057,
0.03192019950124688,-0.015551601313570916,
0.03197007481296758,-0.028128389900973827,
0.03201995012468828,-0.025931395244927387,
0.032069825436408975,-0.030601714981750454,
0.03211970074812968,-0.03355728964816229,
0.03216957605985037,-0.021724897230623107,
0.032219451371571076,-0.018162476969801857,
0.03226932668329177,-0.025247850818182427,
0.03231920199501247,-0.024208127077124587,
0.03236907730673317,-0.01294676425569782,
0.032418952618453865,-0.013257313327150673,
0.03246882793017456,-0.032996358568569834,
0.032518703241895264,-0.018448981786585952,
0.03256857855361596,-0.055821818562799136,
0.032618453865336655,-0.025221725105837818,
0.03266832917705736,-0.023525455492240128,
0.032718204488778053,-0.019798166696686603,
0.032768079800498756,-0.010499212623610758,
0.03281795511221945,-0.030954883909192894,
0.03286783042394015,0.006907632079061924,
0.03291770573566085,-0.019968305121675835,
0.032967581047381546,-0.028623349960980454,
0.03301745635910224,-0.00827827197807983,
0.033067331670822944,-0.010733142141049486,
0.03311720698254364,-0.012108980598262459,
0.03316708229426434,-0.02396085850614879,
0.03321695760598504,-0.038573055496971084,
0.033266832917705734,-0.004987474069926327,
0.03331670822942644,-0.00588333906438584,
0.03336658354114713,-0.0558190729740541,
0.03341645885286783,-0.018833087653007577,
0.03346633416458853,-0.017744557389168178,
0.033516209476309226,-0.009357021717040746,
0.03356608478802992,-0.0141278774332214,
0.033615960099750625,-0.02164251340488444,
0.03366583541147132,0.01617548137288936,
0.03371571072319202,-0.016642426506237082,
0.03376558603491272,-0.010886951134070233,
0.033815461346633414,-0.02350558151318414,
0.03386533665835412,-0.013157046828215726,
0.03391521197007481,-0.015075066779573088,
0.03396508728179551,-0.011989610241207383,
0.03401496259351621,-0.012742644552697587,
0.03406483790523691,-0.029220596531641004,
0.0341147132169576,-0.03150348162195636,
0.034164588528678305,-0.05345725608393188,
0.034214463840399,-0.017073459228357995,
0.034264339152119704,-0.02320388496549201,
0.0343142144638404,0.0012596828134596241,
0.034364089775561095,-0.015452212386414229,
0.0344139650872818,-0.02328030967042403,
0.03446384039900249,-0.030545192089745817,
0.03451371571072319,-0.024889225640367607,
0.03456359102244389,-0.004768115048705586,
0.03461346633416459,0.017290022013013967,
0.03466334164588529,-0.033158046590967424,
0.034713216957605986,-0.03707375010349019,
0.03476309226932668,-0.01786177541006731,
0.034812967581047384,-0.02532376110980085,
0.03486284289276808,-0.006801795577664468,
0.034912718204488775,-0.008503250349249297,
0.03496259351620948,-0.0193230242783574,
0.035012468827930174,0.002113597247898731,
0.03506234413965087,-0.04433041604480649,
0.03511221945137157,-0.04187228292023125,
0.03516209476309227,-0.009836227034364445,
0.03521197007481297,-0.020899003757970498,
0.035261845386533666,-0.0042360480244838725,
0.03531172069825436,-0.004388365324953982,
0.035361596009975065,-0.0034884155119357645,
0.03541147132169576,-0.001936427576580359,
0.035461346633416456,-0.013111112847843255,
0.03551122194513716,-0.04067622953647414,
0.035561097256857854,-0.002341919205789132,
0.03561097256857856,0.00676778365613569,
0.03566084788029925,0.0006692932045142732,
0.03571072319201995,0.01853471252399306,
0.03576059850374065,-0.01596149624830318,
0.03581047381546135,-0.02694504974931166,
0.03586034912718204,-0.012960009842199888,
0.035910224438902745,-0.011416868702266703,
0.03596009975062344,-0.017717120538195453,
0.036009975062344136,-0.01453533046365699,
0.03605985037406484,-0.006314469318826215,
0.036109725685785535,-0.005301091170197932,
0.03615960099750624,-0.0004059972938267164,
0.03620947630922693,-0.003552948030317909,
0.03625935162094763,-0.02749954643318957,
0.03630922693266833,-0.010714411992173383,
0.03635910224438903,-0.012354246294916698,
0.03640897755610972,-0.007555634949208752,
0.036458852867830426,-0.005702992389891333,
0.03650872817955112,-0.0054015890642039,
0.036558603491271824,-0.017211577327577297,
0.03660847880299252,0.009712906668446665,
0.036658354114713215,0.01211321806964367,
0.03670822942643392,-0.011370956926288821,
0.036758104738154614,-0.014790528830126685,
0.03680798004987531,-0.009313548649506752,
0.03685785536159601,-0.006451657479130271,
0.03690773067331671,0.008314619432111169,
0.0369576059850374,-0.0151020555561016,
0.037007481296758106,-0.016318753500036916,
0.0370573566084788,-0.0010358287058841124,
0.037107231920199504,0.004986158528898413,
0.0371571072319202,-0.007448799380438069,
0.037206982543640896,-0.03426390858214026,
0.0372568578553616,-0.019744307901604353,
0.037306733167082294,0.010662615861684262,
0.03735660847880299,-0.015188426142727595,
0.03740648379052369,0.007135950172382876,
0.03745635910224439,0.003023666697459606,
0.037506234413965084,0.0323226424684084,
0.037556109725685786,0.020974623485285872,
0.03760598503740648,-0.0009032234313625367,
0.037655860349127185,0.009296712389561942,
0.03770573566084788,0.01995648870627493,
0.037755610972568576,-0.0020321224501971403,
0.03780548628428928,-0.003982682260777928,
0.037855361596009975,-0.00031010270281471114,
0.03790523690773067,0.028944706141341356,
0.03795511221945137,0.013034494713835165,
0.03800498753117207,0.02539989717695294,
0.03805486284289277,0.016239636031963017,
0.03810473815461347,0.015494468654250141,
0.03815461346633416,0.020603770572183037,
0.038204488778054865,-0.007191807069552652,
0.03825436408977556,-0.008639742643896832,
0.03830423940149626,-0.017101814109233966,
0.03835411471321696,0.033104041465223964,
0.038403990024937655,0.015790263167608176,
0.03845386533665835,-0.012589009941029022,
0.03850374064837905,0.01551834940924938,
0.03855361596009975,0.00580229209511242,
0.03860349127182045,-0.009477090037043605,
0.03865336658354115,0.017662198260804646,
0.03870324189526184,-0.0007165087733355547,
0.038753117206982546,-0.03344294850643682,
0.03880299251870324,0.0035695199263061153,
0.03885286783042394,0.02801654639954612,
0.03890274314214464,-0.0025095380670697044,
0.038952618453865336,-0.0025258326149609333,
0.03900249376558604,-0.011080885249620179,
0.039052369077306734,0.02918764190777663,
0.03910224438902743,0.03842776408461729,
0.03915211970074813,-0.01250700120595483,
0.03920199501246883,0.0036285279340255543,
0.039251870324189524,0.02432948678788696,
0.039301745635910226,0.011752355998924088,
0.03935162094763092,0.01690977542496475,
0.03940149625935162,-0.008628825023914174,
0.03945137157107232,-0.007591556707202072,
0.039501246882793016,0.013952239427701412,
0.03955112219451372,-0.0012413751108894082,
0.039600997506234414,0.008382654407281722,
0.03965087281795511,0.030082637837219966,
0.03970074812967581,0.015849258539303003,
0.03975062344139651,0.014895246119937316,
0.039800498753117204,0.034600839023265044,
0.03985037406483791,0.011443448569240216,
0.0399002493765586,-0.0015258017718077777,
0.039950124688279305,-0.004518884470783538,
0.04,0.009445078633736136,
0.0400498753117207,0.019298255064751822,
0.0400997506234414,0.028581064169890792,
0.040149625935162095,0.03796107451570764,
0.04019950124688279,0.027152879235043285,
0.04024937655860349,0.008122636425666659,
0.04029925187032419,0.027793954806587022,
0.040349127182044885,0.022013515007691824,
0.04039900249376559,0.012661307545554872,
0.04044887780548628,0.02442690387778495,
0.040498753117206986,0.00224817699293464,
0.04054862842892768,0.030505999179100702,
0.04059850374064838,0.010997129037879416,
0.04064837905236908,0.058056707324910514,
0.040698254364089775,0.01057239363829803,
0.04074812967581047,0.04161675199708492,
0.040798004987531174,0.01970421893439476,
0.04084788029925187,0.04221565658302974,
0.040897755610972565,7.317563159925378e-05,
0.04094763092269327,0.017558522279892633,
0.04099750623441396,0.042305529637839095,
0.041047381546134666,0.016487564514086433,
0.04109725685785536,0.022522692915692862,
0.04114713216957606,0.004836280522770501,
0.04119700748129676,0.04147456563958474,
0.041246882793017456,0.022623783737480536,
0.04129675810473815,-0.005399766725701666,
0.041346633416458854,0.028025943457378147,
0.04139650872817955,0.027024003972273794,
0.04144638403990025,0.03165907968482142,
0.04149625935162095,0.02246661952031393,
0.041546134663341644,0.048307413973792526,
0.04159600997506235,0.03933143200709084,
0.04164588528678304,-0.012978068696119827,
0.04169576059850374,0.03489222792678992,
0.04174563591022444,0.00709132148307531,
0.041795511221945136,0.028901615818340262,
0.04184538653366583,0.008476665965976743,
0.041895261845386535,0.057625205889773594,
0.04194513715710723,0.013254420109862662,
0.04199501246882793,0.02323029807868897,
0.04204488778054863,0.022866538884504767,
0.042094763092269324,0.00829637501030954,
0.04214463840399003,0.004356819411219983,
0.04219451371571072,0.011891565585776665,
0.04224438902743142,-0.0025545340603668303,
0.04229426433915212,0.017049859375639922,
0.04234413965087282,0.009837861599692143,
0.04239401496259352,0.006437509663734905,
0.042443890274314215,0.035183920471916895,
0.04249376558603491,0.030946890571459565,
0.042543640897755614,0.011170995536917857,
0.04259351620947631,0.056172370015039,
0.042643391521197005,0.026222478361188368,
0.04269326683291771,0.0361123842011322,
0.0427431421446384,0.0019006421332471955,
0.0427930174563591,-0.0040384199310691295,
0.0428428927680798,0.022914437889917025,
0.0428927680798005,0.026128783949180976,
0.0429426433915212,0.025145429287599004,
0.042992518703241896,0.03099072172416975,
0.04304239401496259,0.05889224961829671,
0.043092269326683294,0.016968110383874208,
0.04314214463840399,0.004435097598752807,
0.043192019950124685,0.035824527145928556,
0.04324189526184539,0.02413138378638802,
0.043291770573566084,0.012145507772632713,
0.043341645885286786,0.021082856608483858,
0.04339152119700748,0.009428923919320537,
0.04344139650872818,0.024421098782776325,
0.04349127182044888,0.033068611605460346,
0.043541147132169576,0.02853569928641563,
0.04359102244389027,0.008677396416737362,
0.043640897755610975,0.0020282993499990687,
0.04369077306733167,0.02660024942411214,
0.043740648379052366,0.012668211944398601,
0.04379052369077307,0.01939573490682127,
0.043840399002493764,0.00609263655655963,
0.04389027431421447,0.019947178996399695,
0.04394014962593516,0.026222968430649717,
0.04399002493765586,0.042675419106417284,
0.04403990024937656,-0.002122277375850447,
0.04408977556109726,0.02153657072920123,
0.04413965087281795,0.020803978687371688,
0.044189526184538655,0.008741150922774134,
0.04423940149625935,0.047925075807061415,
0.04428927680798005,0.01936219503344626,
0.04433915211970075,0.024145573223299077,
0.044389027431421445,0.04262818531673451,
0.04443890274314215,0.046193163730710474,
0.04448877805486284,0.02148384400508465,
0.04453865336658354,0.05022482010400457,
0.04458852867830424,0.03551938749336603,
0.04463840399002494,0.056608526689023435,
0.04468827930174563,0.007173049275687777,
0.044738154613466335,-0.0010187144375710007,
0.04478802992518703,0.025276277727327677,
0.044837905236907734,0.018125169240704436,
0.04488778054862843,-0.004751326863901492,
0.044937655860349125,0.008155044997269158,
0.04498753117206983,-0.012686513795760229,
0.045037406483790524,0.014001937213996776,
0.04508728179551122,0.022578858196801395,
0.04513715710723192,0.043141371935827025,
0.04518703241895262,0.023236100885625093,
0.04523690773067331,0.042756303341732006,
0.045286783042394016,0.035271778011285365,
0.04533665835411471,0.03829473429053744,
0.045386533665835414,0.029331545028457855,
0.04543640897755611,0.031024139959635596,
0.045486284289276806,0.026313058721610796,
0.04553615960099751,-0.006949115092971629,
0.045586034912718204,0.030963993757713824,
0.0456359102244389,-0.004588524509275289,
0.0456857855361596,0.017449094198173372,
0.0457356608478803,0.03949925733174489,
0.045785536159601,0.004491642786733582,
0.045835411471321696,0.02668833706928774,
0.04588528678304239,-0.00824063137415397,
0.045935162094763095,0.02669173866358906,
0.04598503740648379,0.004597516663008906,
0.046034912718204486,0.023795475737623768,
0.04608478802992519,0.023974245954484833,
0.046134663341645885,0.020274389492101,
0.04618453865336658,0.03125299339754395,
0.04623441396508728,-0.0038577480349219553,
0.04628428927680798,0.010207431286805974,
0.04633416458852868,0.011770546446121981,
0.04638403990024938,0.014114461381001864,
0.04643391521197007,0.035970484079263905,
0.046483790523690775,0.009762942711780645,
0.04653366583541147,-0.0021582983028561615,
0.04658354114713217,0.004430800168634619,
0.04663341645885287,0.013986759866257895,
0.046683291770573565,0.018050458347380095,
0.04673316708229427,0.038671470378875125,
0.04678304239401496,0.023365557363763473,
0.04683291770573566,0.02003925810092315,
0.04688279301745636,0.024448473282191213,
0.04693266832917706,0.015412050225486345,
0.04698254364089775,0.003924819307368744,
0.047032418952618456,0.0011007916894287349,
0.04708229426433915,0.028502944393550667,
0.04713216957605985,-0.03583168934428198,
0.04718204488778055,-0.0036621455467258247,
0.047231920199501246,0.019825055471478885,
0.04728179551122195,-0.012223481081138597,
0.047331670822942644,0.00808653374713233,
0.04738154613466334,-0.009475520794191953,
0.04743142144638404,0.019725575855545185,
0.04748129675810474,-0.00749774863225405,
0.047531172069825434,0.014545803391000211,
0.047581047381546136,0.0023230370643180223,
0.04763092269326683,0.024790806733795523,
0.047680798004987535,-0.007188188132356336,
0.04773067331670823,0.02228810067491489,
0.047780548628428926,0.010604484423236336,
0.04783042394014963,0.004191533553458735,
0.047880299251870324,-0.022817731433160043,
0.04793017456359102,0.006772922557093213,
0.04798004987531172,0.026272124183001525,
0.04802992518703242,-0.009520331757497613,
0.048079800498753114,-0.018681064735665574,
0.04812967581047382,0.021669288716605804,
0.04817955112219451,-0.004149246130607725,
0.048229426433915215,0.005692452258605583,
0.04827930174563591,0.0016890490530178403,
0.048329177057356607,0.005107701427913132,
0.04837905236907731,-0.005772957278960711,
0.048428927680798005,-0.02520111170259839,
0.0484788029925187,-0.00970740871716101,
0.0485286783042394,0.01222645812325681,
0.0485785536159601,-0.010499392402094838,
0.048628428927680795,0.025596455215543108,
0.0486783042394015,-0.009534214791301858,
0.04872817955112219,-0.01622899414644785,
0.048778054862842896,-0.0037811130299434483,
0.04882793017456359,0.010579100817249831,
0.04887780548628429,-0.03418012090490244,
0.04892768079800499,-0.011468336477957435,
0.048977556109725685,-0.0068908139363083026,
0.04902743142144638,-0.0017585442144523963,
0.049077306733167084,0.027310027686968892,
0.04912718204488778,-0.011405135309326079,
0.04917705735660848,-0.002261014075987638,
0.04922693266832918,0.0005961471304947829,
0.04927680798004987,-0.021380510943370283,
0.049326683291770576,-0.009141902994081349,
0.04937655860349127,-0.00651920664093514,
0.04942643391521197,0.00380899540834377,
0.04947630922693267,6.452769843508753e-05,
0.049526184538653366,0.0021376981745951703,
0.04957605985037406,0.014761546319275058,
0.049625935162094764,-0.01318118448666206,
0.04967581047381546,0.003683420636386766,
0.04972568578553616,-0.012467751825789467,
0.04977556109725686,-0.01632102434530605,
0.049825436408977554,0.0009586443867495653,
0.04987531172069826,-0.022545678821937462,
0.04992518703241895,-0.008562072013753743,
0.04997506234413965,0.002522900576289736,
0.05002493765586035,-0.014327286175356167,
0.050074812967581046,0.006575139114733736,
0.05012468827930175,0.0017374969450009558,
0.050174563591022445,-0.03177559295324701,
0.05022443890274314,-0.004219092868791673,
0.05027431421446384,0.0055998567543061786,
0.05032418952618454,-0.006572498834370138,
0.050374064837905234,-0.014098676974486937,
0.05042394014962594,0.00442964953209655,
0.05047381546134663,-0.01813003471063704,
0.05052369077306733,-0.02603069993524353,
0.05057356608478803,-0.012003177999503532,
0.05062344139650873,-0.011161253413832282,
0.05067331670822943,-0.01268886444059247,
0.050723192019950125,-0.00505021257893314,
0.05077306733167082,-0.005558821336907369,
0.050822942643391524,-0.030112185557984526,
0.05087281795511222,-0.015206864882791049,
0.050922693266832915,-0.053154096169705,
0.05097256857855362,-0.028968680632291112,
0.05102244389027431,-0.0028599247498995554,
0.051072319201995016,-0.010142764141769574,
0.05112219451371571,-0.0013747153088911682,
0.05117206982543641,0.00925707690095492,
0.05122194513715711,0.007473473553430036,
0.051271820448877806,0.010504544354036499,
0.0513216957605985,-0.027280418073314668,
0.051371571072319204,-0.020225745507538886,
0.0514214463840399,-0.008385999599619777,
0.051471321695760595,-0.04242750349770723,
0.0515211970074813,0.004985477770192159,
0.051571072319201994,-0.01841844044449847,
0.051620947630922696,-0.014912521549050421,
0.05167082294264339,0.0025824436609938606,
0.05172069825436409,-0.009232805397251118,
0.05177057356608479,-0.007951977836795583,
0.051820448877805486,0.006701496192347615,
0.05187032418952618,-0.01143735606516769,
0.051920199501246884,-0.041427744135230274,
0.05197007481296758,-0.027147324892539085,
0.052019950124688276,-0.011816363667731748,
0.05206982543640898,0.014760684823975606,
0.052119700748129674,0.00800079753725787,
0.05216957605985038,-0.03135477104285612,
0.05221945137157107,-0.02878165165409465,
0.05226932668329177,-0.020315985236758198,
0.05231920199501247,-0.044254056759014594,
0.05236907730673317,-0.005547307105109282,
0.05241895261845386,-0.01956367901437955,
0.052468827930174565,-0.026043796073339495,
0.05251870324189526,-0.01944137081648393,
0.05256857855361596,-0.01867806899888379,
0.05261845386533666,-0.010018326615395638,
0.052668329177057355,-0.012360402521853255,
0.05271820448877806,-0.01103919705591706,
0.05276807980049875,-0.012890076382451545,
0.05281795511221945,-0.03070770777803383,
0.05286783042394015,-0.021751902374987208,
0.05291770573566085,-0.030277102051423015,
0.05296758104738154,-0.017732493220702382,
0.053017456359102245,-0.010868265451366512,
0.05306733167082294,-0.020070063187594897,
0.053117206982543644,-0.025883838237700074,
0.05316708229426434,-0.0038996527890495097,
0.053216957605985035,-0.025883404424537335,
0.05326683291770574,-0.037022758673141636,
0.053316708229426434,-0.011262302063232678,
0.05336658354114713,-0.03343063057205245,
0.05341645885286783,-0.014913662297663142,
0.05346633416458853,-0.014606117274625022,
0.05351620947630923,0.007950290357986549,
0.053566084788029926,-0.02413364879203036,
0.05361596009975062,-0.01418357519838372,
0.053665835411471324,0.0017464302507342322,
0.05371571072319202,-0.03202836712917069,
0.053765586034912716,-0.018838235069903193,
0.05381546134663342,-0.007913534654412913,
0.053865336658354114,-0.023934058833769534,
0.05391521197007481,0.007438771676766293,
0.05396508728179551,-0.018754296576629165,
0.05401496259351621,-0.023654381033707674,
0.05406483790523691,0.0073449810701825095,
0.054114713216957606,-0.010501035385672486,
0.0541645885286783,0.007365314962925241,
0.054214463840399005,-0.04787653306496857,
0.0542643391521197,-0.02507125809714831,
0.054314214463840396,-0.003969154567996885,
0.0543640897755611,-0.02440479817285123,
0.054413965087281795,-0.031458005781162604,
0.0544638403990025,-0.03463082629088322,
0.05451371571072319,-0.0017630490754479648,
0.05456359102244389,-0.014778397285289518,
0.05461346633416459,-0.04339340418746022,
0.05466334164588529,0.014752485788984703,
0.05471321695760598,-0.0076146461673867885,
0.054763092269326685,-0.016405451445590403,
0.05481296758104738,0.0014883358463293507,
0.05486284289276808,0.0005633075928750033,
0.05491271820448878,0.006621076374739262,
0.054962593516209475,-0.01600628932235641,
0.05501246882793018,-0.0005603973341926811,
0.05506234413965087,-0.031822144764250784,
0.05511221945137157,-0.00708231863566174,
0.05516209476309227,-0.019808812609702603,
0.05521197007481297,-0.008911463978980589,
0.05526184538653366,-0.015376896291035225,
0.055311720698254366,-0.006962432096500611,
0.05536159600997506,-0.010176432515334956,
0.05541147132169576,0.010616378163683871,
0.05546134663341646,-0.007466873130046852,
0.055511221945137156,-0.004657741486274192,
0.05556109725685786,-0.01507360533022508,
0.055610972568578554,-0.048093999995089246,
0.05566084788029925,0.005106188650147784,
0.05571072319201995,-0.020625263125433536,
0.05576059850374065,0.00947015514130011,
0.055810473815461344,-0.017666977504514077,
0.055860349127182046,-0.02042815157814252,
0.05591022443890274,-0.00036438886642478976,
0.055960099750623445,-0.030845868483234926,
0.05600997506234414,-0.0023498289220874463,
0.056059850374064836,-0.013796006270039234,
0.05610972568578554,-0.006623035899139004,
0.056159600997506234,0.005757647351279874,
0.05620947630922693,0.00023208928174956248,
0.05625935162094763,0.002089430719793289,
0.05630922693266833,-0.021576139786107954,
0.056359102244389024,0.0012742040595914196,
0.05640897755610973,-0.00018566146034263396,
0.05645885286783042,-0.011320487704676278,
0.056508728179551125,-0.008762138113752592,
0.05655860349127182,-0.013753489036504186,
0.056608478802992516,-0.007598132377566343,
0.05665835411471322,0.007930537078348489,
0.056708229426433915,-0.007237321934477621,
0.05675810473815461,0.011069817837824519,
0.05680798004987531,0.009477215446135499,
0.05685785536159601,-0.002587389156171584,
0.05690773067331671,0.023475809235601774,
0.05695760598503741,0.013287662289913203,
0.0570074812967581,0.024490442810872412,
0.057057356608478806,-0.014952236449129856,
0.0571072319201995,-0.016305619648464945,
0.0571571072319202,-0.008944071830391906,
0.0572069825436409,-0.009979342702101976,
0.057256857855361595,0.010399296471458364,
0.05730673316708229,0.009158212910920973,
0.057356608478802994,0.0007846038057408721,
0.05740648379052369,-0.01993702228054317,
0.05745635910224439,0.0026436034812678663,
0.05750623441396509,0.03390818322954766,
0.05755610972568578,-0.014416872628112136,
0.057605985037406486,-0.019933617786410993,
0.05765586034912718,0.008114039481958393,
0.05770573566084788,-0.00820263572527028,
0.05775561097256858,0.009221298408803428,
0.057805486284289276,0.031555546177195075,
0.05785536159600998,0.024510710123209954,
0.057905236907730674,-0.0014574414950330322,
0.05795511221945137,0.008181288784357022,
0.05800498753117207,-0.013160053702415242,
0.05805486284289277,-0.013457296059691662,
0.058104738154613464,-0.006348010708335032,
0.05815461346633417,0.00636138270331949,
0.05820448877805486,0.024580280001627274,
0.05825436408977556,-0.010471370477232046,
0.05830423940149626,-0.016040616033826224,
0.058354114713216956,-0.010280060771902019,
0.05840399002493766,0.015032462753143266,
0.058453865336658355,0.02871956376941148,
0.05850374064837905,0.015059245008761067,
0.05855361596009975,0.005995747181861671,
0.05860349127182045,0.01829697092485659,
0.058653366583541144,-0.00250465687473235,
0.05870324189526185,-0.005569955537633285,
0.05875311720698254,0.012236009932163734,
0.05880299251870324,0.0210550809848521,
0.05885286783042394,0.006267411556592657,
0.05890274314214464,-0.003964351856877222,
0.05895261845386534,0.04295697957696584,
0.059002493765586035,0.01590465498919897,
0.05905236907730673,-0.004391294225988511,
0.059102244389027433,-0.007230818817852935,
0.05915211970074813,0.004118196491373358,
0.059201995012468825,0.01691044403900071,
0.05925187032418953,0.00927975592981241,
0.05930174563591022,-0.014748779099919012,
0.059351620947630926,0.01362511769260143,
0.05940149625935162,-0.002831067911488497,
0.05945137157107232,0.020638113776899912,
0.05950124688279302,0.016507740882769312,
0.059551122194513716,0.0033076634496363756,
0.05960099750623441,0.019601299544962526,
0.059650872817955114,-0.0010034568295622971,
0.05970074812967581,-0.011470453775149016,
0.059750623441396505,0.011430872261335073,
0.05980049875311721,0.01364648939504245,
0.059850374064837904,0.03206686329998594,
0.059900249376558606,0.027260377320797547,
0.0599501246882793,-0.004866712169933328,
0.06,0.007025568522762179,
0.0600498753117207,0.02338321465284224,
0.060099750623441396,0.010575836158576626,
0.06014962593516209,0.02860520937360707,
0.060199501246882794,0.028726205682222197,
0.06024937655860349,0.0011143123842493712,
0.06029925187032419,0.013879293714371676,
0.06034912718204489,0.016756761876684005,
0.060399002493765584,0.002498346562534958,
0.06044887780548629,0.03041743279583413,
0.06049875311720698,-0.003504582518608114,
0.06054862842892768,0.012265067793512073,
0.06059850374064838,0.013925667460629655,
0.06064837905236908,0.008718472522313257,
0.06069825436408977,0.033904212691438194,
0.060748129675810475,0.02114133271340386,
0.06079800498753117,0.015800988602229376,
0.06084788029925187,-0.0002473880452492777,
0.06089775561097257,-9.845836033482713e-05,
0.060947630922693265,0.03589267426025005,
0.06099750623441397,0.034757280868728715,
0.06104738154613466,-0.009495206198625115,
0.06109725685785536,-0.00597025440379393,
0.06114713216957606,0.017565129126019943,
0.06119700748129676,0.03747409753612599,
0.06124688279301746,0.03496018100022757,
0.061296758104738155,0.012868923011930298,
0.06134663341645885,0.012045110815819833,
0.061396508728179554,0.03408187056392894,
0.06144638403990025,0.019246686228143055,
0.061496259351620945,0.020210439449032946,
0.06154613466334165,0.01047947042447854,
0.061596009975062344,0.005641214458266975,
0.06164588528678304,0.03859195267041162,
0.06169576059850374,0.0170460380523326,
0.06174563591022444,0.04090841027471855,
0.06179551122194514,0.02705344325542333,
0.061845386533665836,0.023287262978687207,
0.06189526184538653,0.03783544719902927,
0.061945137157107234,0.021551320829790686,
0.06199501246882793,0.033799948686346115,
0.062044887780548626,0.04260279266234672,
0.06209476309226933,0.012059679059272977,
0.062144638403990024,0.005937235387619668,
0.06219451371571072,0.02718372585325504,
0.06224438902743142,0.027593316845102835,
0.06229426433915212,0.01605291060353429,
0.06234413965087282,0.024599190274489608,
0.062394014962593516,0.04009830112586855,
0.06244389027431421,0.01792272295580778,
0.062493765586034915,0.00013730583195173396,
0.06254364089775562,0.05248942880220299,
0.06259351620947631,0.009477357884930005,
0.06264339152119701,0.0034110920421465546,
0.0626932668329177,0.001753946022170015,
0.0627431421446384,0.026867100127095214,
0.0627930174563591,0.0008146571373579478,
0.0628428927680798,0.02233144569490267,
0.0628927680798005,0.046583859732650425,
0.0629426433915212,0.03432707955359196,
0.06299251870324189,0.02386893144644531,
0.06304239401496259,0.041138808565758946,
0.0630922693266833,0.029813196250139555,
0.063142144638404,0.0014701244064822296,
0.06319201995012469,0.0221972852471159,
0.06324189526184539,0.021994041701433056,
0.06329177057356608,-0.0019921089296546166,
0.06334164588528678,-0.011078749870704275,
0.06339152119700749,0.04609913229376894,
0.06344139650872818,0.02431586553658581,
0.06349127182044888,0.034001801720432726,
0.06354114713216957,-0.00444230395928126,
0.06359102244389027,0.024065010608920863,
0.06364089775561098,0.022135036028954204,
0.06369077306733167,0.00815805552016664,
0.06374064837905237,0.015410337515219487,
0.06379052369077307,0.008139748881350675,
0.06384039900249376,0.02573024477410914,
0.06389027431421446,0.012744261973096893,
0.06394014962593517,0.010048592028508463,
0.06399002493765586,0.025332348799389986,
0.06403990024937656,0.006602463524578953,
0.06408977556109725,0.030870991763723817,
0.06413965087281795,0.004164297872665503,
0.06418952618453866,0.02765590780712714,
0.06423940149625935,0.02184178354679462,
0.06428927680798005,0.02056914862758825,
0.06433915211970075,0.04475843049195494,
0.06438902743142144,0.007211288834941286,
0.06443890274314215,0.03443158589147676,
0.06448877805486285,0.03507041730054787,
0.06453865336658354,0.047029199284748746,
0.06458852867830424,0.04952311207209163,
0.06463840399002493,0.036609356647903116,
0.06468827930174563,0.01585909972432401,
0.06473815461346634,0.029582809336525875,
0.06478802992518704,0.050838730159727036,
0.06483790523690773,0.022030328310704003,
0.06488778054862843,-0.018221402930883583,
0.06493765586034912,0.025752872797189956,
0.06498753117206983,0.008244141093125778,
0.06503740648379053,0.009039469543818316,
0.06508728179551122,0.0032149251152030905,
0.06513715710723192,0.022258406738603007,
0.06518703241895261,0.01828929061643783,
0.06523690773067331,0.038220629132210956,
0.06528678304239402,-0.0014105511746945604,
0.06533665835411472,0.03388902643655482,
0.06538653366583541,0.02204588078617749,
0.06543640897755611,0.0019638227576470636,
0.0654862842892768,0.006731801689970797,
0.06553615960099751,0.02893213688093478,
0.06558603491271821,0.027629760566545987,
0.0656359102244389,0.0349301264473635,
0.0656857855361596,0.03749983893248873,
0.0657356608478803,0.009480329473592827,
0.06578553615960099,0.028183525464273558,
0.0658354114713217,0.011237095894029284,
0.0658852867830424,0.0010980782187007612,
0.06593516209476309,0.02688810700860969,
0.06598503740648379,0.005818203218885808,
0.06603491271820448,0.018201481228164944,
0.06608478802992519,0.02561922306537971,
0.06613466334164589,0.018159186288258813,
0.06618453865336658,0.017508086605675967,
0.06623441396508728,0.012683275626074048,
0.06628428927680798,0.018742735953421567,
0.06633416458852869,-0.00244378270008927,
0.06638403990024938,0.015004730379553409,
0.06643391521197008,0.03848764046960129,
0.06648379052369077,0.021851495917204866,
0.06653366583541147,0.0030284421693312375,
0.06658354114713216,0.0028658103063843084,
0.06663341645885287,0.006762182583679981,
0.06668329177057357,0.04207979958569831,
0.06673316708229426,0.029323301407626526,
0.06678304239401496,0.04848216193806127,
0.06683291770573566,-0.006288477280766331,
0.06688279301745637,-0.007765823252712915,
0.06693266832917706,0.006221420791892375,
0.06698254364089776,0.032402638305809014,
0.06703241895261845,0.028935260780825617,
0.06708229426433915,-0.02716684685954065,
0.06713216957605984,0.009285121154794351,
0.06718204488778055,0.012485665555475478,
0.06723192019950125,0.00567891174654044,
0.06728179551122195,0.018029686248825855,
0.06733167082294264,0.01587486053841241,
0.06738154613466334,-0.014991544563455427,
0.06743142144638405,0.013293701570728718,
0.06748129675810474,0.013595871512722289,
0.06753117206982544,0.007029426913511995,
0.06758104738154613,-0.001850380127327196,
0.06763092269326683,0.00582159084987449,
0.06768079800498752,0.022862192603671838,
0.06773067331670823,0.035333622465091176,
0.06778054862842893,-0.01972383299569145,
0.06783042394014963,0.010004521513877816,
0.06788029925187032,-0.005875508564259092,
0.06793017456359102,-0.000841344790030979,
0.06798004987531173,0.000401402489952977,
0.06802992518703242,0.01826718682098562,
0.06807980049875312,0.038814896762269895,
0.06812967581047381,-0.016932257519196227,
0.06817955112219451,-0.007124744151946716,
0.0682294264339152,0.02142328879931805,
0.06827930174563591,-0.025303924828914776,
0.06832917705735661,0.010085071984679894,
0.0683790523690773,-0.005533579694763062,
0.068428927680798,0.01244595967032896,
0.0684788029925187,-0.005331916115353262,
0.06852867830423941,-0.009857529313984759,
0.0685785536159601,0.006959393804033157,
0.0686284289276808,0.02000641816249343,
0.0686783042394015,-0.004751478020292439,
0.06872817955112219,0.008400575860284722,
0.0687780548628429,-0.010102706579524594,
0.0688279301745636,-0.008872624445538014,
0.06887780548628429,0.023176227233582942,
0.06892768079800499,-0.011953932810804369,
0.06897755610972568,0.027202911442022214,
0.06902743142144638,-0.004584951343725109,
0.06907730673316709,-0.007506855326984433,
0.06912718204488778,-0.018025033469037114,
0.06917705735660848,0.020560861623909056,
0.06922693266832917,0.002051014089877513,
0.06927680798004987,0.023125489646539096,
0.06932668329177058,-0.010869514384637128,
0.06937655860349128,0.0050054819551591965,
0.06942643391521197,-3.838347164259186e-05,
0.06947630922693267,0.004646492631237898,
0.06952618453865336,0.002888652362388262,
0.06957605985037406,0.011837496532649632,
0.06962593516209477,0.015563738207641224,
0.06967581047381546,-0.012191179869174883,
0.06972568578553616,0.0063640349190375355,
0.06977556109725686,-0.023828099270181695,
0.06982543640897755,0.0003732661999729693,
0.06987531172069826,0.012065107559981515,
0.06992518703241896,-0.019827340378603408,
0.06997506234413965,-0.021901901963054866,
0.07002493765586035,-0.005507495943734563,
0.07007481296758104,0.0004619323591451554,
0.07012468827930174,-0.014595741935795046,
0.07017456359102245,-0.01965168019046781,
0.07022443890274314,-0.014467573345255362,
0.07027431421446384,-0.009123192359059226,
0.07032418952618454,0.01046998743465832,
0.07037406483790523,-0.009140361698875799,
0.07042394014962594,-0.006133717985585124,
0.07047381546134664,0.003675336644692115,
0.07052369077306733,0.00971544490489801,
0.07057356608478803,0.014013222843927604,
0.07062344139650872,-0.018788496765345237,
0.07067331670822943,-0.001268819878611739,
0.07072319201995013,-0.005219634143690748,
0.07077306733167082,-0.013775106230648879,
0.07082294264339152,-0.008785379979622247,
0.07087281795511222,0.00734282871075162,
0.07092269326683291,-0.02342744463452346,
0.07097256857855362,-0.00817126734873462,
0.07102244389027432,-0.026957146100530575,
0.07107231920199501,-0.0046403666923421185,
0.07112219451371571,0.023671400974716615,
0.0711720698254364,-0.019381363063497647,
0.07122194513715711,-0.0014814567408001408,
0.07127182044887781,-0.003248445711262143,
0.0713216957605985,0.009696378699756873,
0.0713715710723192,-0.015892928889231966,
0.0714214463840399,-0.02567860422048205,
0.07147132169576059,-0.030720915241265575,
0.0715211970074813,0.001184334567831305,
0.071571072319202,-0.014286553016864857,
0.0716209476309227,0.004599402999264953,
0.07167082294264339,-0.005700049818800234,
0.07172069825436408,0.014996409415326963,
0.0717705735660848,-0.019008434341273635,
0.07182044887780549,-0.0007879172339978965,
0.07187032418952619,-0.003908208404216001,
0.07192019950124688,-0.022900331260793112,
0.07197007481296758,-0.04623912121552065,
0.07201995012468827,-0.028780601790815312,
0.07206982543640898,0.005968782596458208,
0.07211970074812968,-0.025773645318341136,
0.07216957605985037,-0.0066618367374710365,
0.07221945137157107,-0.008094001794467525,
0.07226932668329177,-0.017067240567899294,
0.07231920199501247,-0.05948815632878632,
0.07236907730673317,-0.022097751886380773,
0.07241895261845387,-0.01613877307553548,
0.07246882793017456,-0.020526531806803167,
0.07251870324189526,-0.02009007677846859,
0.07256857855361595,-0.01976656536762889,
0.07261845386533666,-0.008463482752687556,
0.07266832917705736,-0.032876701793534684,
0.07271820448877805,-0.01079400765494339,
0.07276807980049875,-0.025319175090806237,
0.07281795511221945,-0.016639916293902407,
0.07286783042394016,-0.008539911960301714,
0.07291770573566085,-0.00998498170745189,
0.07296758104738155,-0.01940933868369593,
0.07301745635910224,0.009163631326620725,
0.07306733167082294,0.004259664950345042,
0.07311720698254365,-0.011215885611499648,
0.07316708229426434,-0.025190797741942175,
0.07321695760598504,-0.01651396701092749,
0.07326683291770573,-0.002534518525685276,
0.07331670822942643,-0.020856270365482314,
0.07336658354114713,0.011759610596501002,
0.07341645885286784,-0.02453569909154144,
0.07346633416458853,-0.01967918041933155,
0.07351620947630923,-0.0388196312044996,
0.07356608478802992,-0.02663730454790284,
0.07361596009975062,-0.008246288001318006,
0.07366583541147133,-0.015476147512679984,
0.07371571072319202,-0.026977982803748184,
0.07376558603491272,0.0026525296716014453,
0.07381546134663342,-0.00973198895356409,
0.07386533665835411,-0.0009395891818177356,
0.0739152119700748,-0.01226438199583564,
0.07396508728179552,-0.008781236411470229,
0.07401496259351621,-0.021742097382341584,
0.07406483790523691,-0.004221247386670473,
0.0741147132169576,-0.028377285006255776,
0.0741645885286783,-0.024625103577691595,
0.07421446384039901,-0.001422161487439233,
0.0742643391521197,-0.02038759089654249,
0.0743142144638404,-0.0031856379814734215,
0.0743640897755611,-0.026230730819897168,
0.07441396508728179,-0.007716466894176335,
0.07446384039900249,-0.0007321072118586566,
0.0745137157107232,-0.0076401928317891,
0.07456359102244389,0.0008504876272572865,
0.07461346633416459,-0.005581548589099326,
0.07466334164588528,-0.01867176799445811,
0.07471321695760598,0.010468759208702001,
0.07476309226932669,0.008618512874348297,
0.07481296758104738,-0.004240999086661739,
0.07486284289276808,-0.02508878129008687,
0.07491271820448878,-0.030809932109331663,
0.07496259351620947,-0.03327009916132728,
0.07501246882793017,-0.004328083466148455,
0.07506234413965088,0.02821734731150675,
0.07511221945137157,-0.009661265156545872,
0.07516209476309227,0.004854939584718609,
0.07521197007481296,-0.007906540501962125,
0.07526184538653366,-0.020479490377758345,
0.07531172069825437,-0.024848907226593758,
0.07536159600997507,-0.03183497005375575,
0.07541147132169576,-0.02303962982764421,
0.07546134663341646,-0.010310173404856158,
0.07551122194513715,-0.0017905075961021522,
0.07556109725685786,-0.00819277642419709,
0.07561097256857856,-0.028378503480608122,
0.07566084788029925,0.015908144071291555,
0.07571072319201995,-0.01889261374147098,
0.07576059850374064,0.011162107317847902,
0.07581047381546134,-0.009812322754241463,
0.07586034912718205,0.003929622123618342,
0.07591022443890275,-0.029847917505827853,
0.07596009975062344,-0.016505622857845015,
0.07600997506234414,-0.003983662308149389,
0.07605985037406483,0.015248555397502287,
0.07610972568578554,-0.013998461664120793,
0.07615960099750624,0.0019694503640939297,
0.07620947630922693,-0.005625988371290483,
0.07625935162094763,-0.00436530485768547,
0.07630922693266833,-0.0029968378816694436,
0.07635910224438902,-0.014283003780331278,
0.07640897755610973,-0.02136285875947403,
0.07645885286783043,-0.020513832255160236,
0.07650872817955112,0.0069453902385951515,
0.07655860349127182,-0.01876078363069376,
0.07660847880299251,-0.02525714348048582,
0.07665835411471322,-0.016709914573108844,
0.07670822942643392,-0.012023199848365293,
0.07675810473815461,0.026285303813664493,
0.07680798004987531,0.001763356228628614,
0.076857855361596,0.020727789612132275,
0.0769077306733167,-0.018461710183739134,
0.07695760598503741,0.003187094425844599,
0.0770074812967581,-0.0012254323363486545,
0.0770573566084788,0.005927232638782263,
0.0771072319201995,-0.004350934252981236,
0.0771571072319202,-0.017612230977860674,
0.0772069825436409,-0.029916549542440662,
0.0772568578553616,-0.004225429295251139,
0.0773067331670823,0.024821392401765664,
0.07735660847880299,0.002310848044446539,
0.07740648379052369,0.002276479529281975,
0.0774563591022444,0.028858792599712683,
0.07750623441396509,-0.010101547738211748,
0.07755610972568579,-0.00855147326692006,
0.07760598503740648,0.013746124427568344,
0.07765586034912718,0.020424180398104688,
0.07770573566084787,-0.012542657882816693,
0.07775561097256858,0.04289608182729914,
0.07780548628428928,0.010433257112057915,
0.07785536159600998,0.0027594620069285297,
0.07790523690773067,-0.004909487778896883,
0.07795511221945137,-0.03369136600804582,
0.07800498753117208,0.03736481355658111,
0.07805486284289277,0.02176647776861696,
0.07810473815461347,0.014413807057670282,
0.07815461346633416,-0.017451427361286843,
0.07820448877805486,-0.009770686709235012,
0.07825436408977555,0.004316844948081325,
0.07830423940149626,-0.016999033563232086,
0.07835411471321696,0.016814930333097566,
0.07840399002493766,0.013873874258543044,
0.07845386533665835,0.005208736300498595,
0.07850374064837905,0.04859676030502775,
0.07855361596009976,0.007944447885544515,
0.07860349127182045,-0.004719495151506949,
0.07865336658354115,0.0017144115297610708,
0.07870324189526184,0.02273620847818627,
0.07875311720698254,0.0012388301729556322,
0.07880299251870324,0.0378117835619545,
0.07885286783042394,0.027836571948929842,
0.07890274314214464,0.022200876841177754,
0.07895261845386534,0.01926138428534365,
0.07900249376558603,0.0034455520866364994,
0.07905236907730673,0.04228426945962606,
0.07910224438902744,-0.0022796439006468206,
0.07915211970074813,0.001364158699660705,
0.07920199501246883,0.006831625446494413,
0.07925187032418952,0.02832138107035183,
0.07930174563591022,-0.003153417514394661,
0.07935162094763092,-0.0065655027472097255,
0.07940149625935163,0.02805331521726946,
0.07945137157107232,0.01666351460988836,
0.07950124688279302,0.004939677330224455,
0.07955112219451371,-0.003848959884330986,
0.07960099750623441,0.022328531336438046,
0.07965087281795512,0.017591833458933944,
0.07970074812967581,0.022990517904490252,
0.07975062344139651,0.02885365351073501,
0.0798004987531172,-0.017279139266816797,
0.0798503740648379,0.024318832572651515,
0.07990024937655861,0.036018945922264164,
0.0799501246882793,-0.00819227907448234,
0.08,0.034536441001897455,
0.0800498753117207,0.011096678662642226,
0.0800997506234414,0.018800762439745947,
0.08014962593516209,0.007803852902580982,
0.0801995012468828,-0.0037063915909273035,
0.0802493765586035,0.023868052124113203,
0.08029925187032419,0.01984700222841059,
0.08034912718204489,0.03364846408958996,
0.08039900249376558,0.01680724779039036,
0.08044887780548629,-0.0033407983697125894,
0.08049875311720699,0.022188002698563858,
0.08054862842892768,0.039752379361240646,
0.08059850374064838,-0.0012231061340494537,
0.08064837905236907,0.02069352292621006,
0.08069825436408977,0.05118069641604757,
0.08074812967581048,0.00614037570361169,
0.08079800498753117,-0.009669173903409288,
0.08084788029925187,0.007201219819033589,
0.08089775561097257,0.04160836128065068,
0.08094763092269326,0.01876470100992166,
0.08099750623441397,0.024179642427267844,
0.08104738154613467,0.022390847948401803,
0.08109725685785536,0.0015375361952163734,
0.08114713216957606,0.016677408705002898,
0.08119700748129675,0.034222845029394725,
0.08124688279301745,0.0019480585981115246,
0.08129675810473816,0.07005837488177177,
0.08134663341645886,-0.0009553306737372612,
0.08139650872817955,0.03791339069041981,
0.08144638403990025,0.036735543390180966,
0.08149625935162094,0.012341896790916983,
0.08154613466334165,0.043627971487109674,
0.08159600997506235,0.03397662085988938,
0.08164588528678304,0.0063762890032294725,
0.08169576059850374,0.04897172714845556,
0.08174563591022443,0.032003038957517105,
0.08179551122194513,0.02004291901518385,
0.08184538653366584,0.007325989019689946,
0.08189526184538654,0.015838187294756507,
0.08194513715710723,0.05544170287822388,
0.08199501246882793,0.03437070317995912,
0.08204488778054862,0.015898406460973166,
0.08209476309226933,0.03581026838950507,
0.08214463840399003,0.030680171712821593,
0.08219451371571072,0.030680973876018452,
0.08224438902743142,0.04311325869454213,
0.08229426433915212,0.032592573532351184,
0.08234413965087282,0.0032357815079213613,
0.08239401496259352,0.038072199372940194,
0.08244389027431422,0.02320499259689372,
0.08249376558603491,0.025514590602720415,
0.08254364089775561,0.025359367823918018,
0.0825935162094763,0.04290921495438847,
0.08264339152119701,0.047421665683798964,
0.08269326683291771,0.023011377337055536,
0.0827431421446384,0.006183157526256981,
0.0827930174563591,0.012618389420422526,
0.0828428927680798,0.03672957527855236,
0.0828927680798005,0.035500764803732335,
0.0829426433915212,0.030079315442074712,
0.0829925187032419,0.03260681026195095,
0.08304239401496259,0.012191168747628347,
0.08309226932668329,0.033129423318350386,
0.08314214463840398,0.008763548216351072,
0.0831920199501247,0.04968359444659188,
0.08324189526184539,0.02173591198972741,
0.08329177057356608,0.045663725432296944,
0.08334164588528678,0.027590354907361975,
0.08339152119700748,0.017089524816776915,
0.08344139650872819,0.020464044681023252,
0.08349127182044888,-0.010273291566069442,
0.08354114713216958,0.05181193779259553,
0.08359102244389027,0.01790225517116459,
0.08364089775561097,0.02638078176367893,
0.08369077306733166,0.027222680112980596,
0.08374064837905237,0.01338560960043839,
0.08379052369077307,0.017693408587685915,
0.08384039900249377,0.017965644260248416,
0.08389027431421446,0.02428185272465091,
0.08394014962593516,0.00863789430543926,
0.08399002493765587,0.02570324427773634,
0.08403990024937656,0.038460851549169346,
0.08408977556109726,0.03537311803378356,
0.08413965087281795,-0.003243316248003808,
0.08418952618453865,0.03787942369616516,
0.08423940149625936,0.01231782021041718,
0.08428927680798005,0.05446784681219191,
0.08433915211970075,0.01693568540635585,
0.08438902743142145,0.029603385011773328,
0.08443890274314214,-0.0068561193762321435,
0.08448877805486284,0.014497620158978805,
0.08453865336658355,0.029093525316923108,
0.08458852867830424,0.03472955003034091,
0.08463840399002494,0.032094700317350865,
0.08468827930174563,-0.00821619160475522,
0.08473815461346633,0.010677098817145939,
0.08478802992518704,0.023889619523367517,
0.08483790523690773,0.02453237992068394,
0.08488778054862843,0.016102022881213346,
0.08493765586034913,0.032450741477023815,
0.08498753117206982,-0.009151561858100829,
0.08503740648379052,0.00603967840289504,
0.08508728179551123,0.026730301688758902,
0.08513715710723192,0.012411476336856199,
0.08518703241895262,0.0062638474836967765,
0.08523690773067331,0.02652048257144886,
0.08528678304239401,0.015658004087110947,
0.08533665835411472,0.05348806113648369,
0.08538653366583542,0.051214104475411956,
0.08543640897755611,0.03693486038639455,
0.0854862842892768,-0.003373619774192215,
0.0855361596009975,0.013383350693402251,
0.0855860349127182,0.012294955063559232,
0.08563591022443891,0.042677079073559894,
0.0856857855361596,0.03277589174096715,
0.0857356608478803,0.02102605929565321,
0.085785536159601,0.013621166383887343,
0.08583541147132169,0.019728764421067073,
0.0858852867830424,0.009558005737675627,
0.0859351620947631,0.006211191435950884,
0.08598503740648379,0.024850747596771416,
0.08603491271820449,0.005166342009712709,
0.08608478802992518,0.0005983494516718993,
0.08613466334164588,0.011512715324415845,
0.08618453865336659,0.028068511840046752,
0.08623441396508728,0.014207409542439927,
0.08628428927680798,0.00581464738531353,
0.08633416458852868,0.037340902352280436,
0.08638403990024937,0.012483041498794763,
0.08643391521197008,0.01472342742971521,
0.08648379052369078,0.010731740843519997,
0.08653366583541147,0.033824970276056715,
0.08658354114713217,0.0037247117273843233,
0.08663341645885286,0.002840081080234799,
0.08668329177057357,0.0255532928087837,
0.08673316708229427,0.02970698160522177,
0.08678304239401496,0.025606556611771858,
0.08683291770573566,-0.008874827872020544,
0.08688279301745636,0.02844390424081422,
0.08693266832917705,0.01398917691827019,
0.08698254364089776,0.002819346377915973,
0.08703241895261846,0.04321720063308984,
0.08708229426433915,0.010137163325903524,
0.08713216957605985,0.025887494583899426,
0.08718204488778054,0.021722340966910114,
0.08723192019950125,0.02711208341793104,
0.08728179551122195,-0.0063015332252984845,
0.08733167082294264,0.015027764877764454,
0.08738154613466334,0.015982038492709533,
0.08743142144638404,0.02378942446777812,
0.08748129675810473,0.009530914566378071,
0.08753117206982544,-0.004086156169528239,
0.08758104738154614,0.006162568242160829,
0.08763092269326683,0.03159374234182597,
0.08768079800498753,0.018804112993715233,
0.08773067331670822,-0.012632132814142626,
0.08778054862842893,0.006254151774800789,
0.08783042394014963,-0.006571757444540374,
0.08788029925187033,0.005465316464247949,
0.08793017456359102,-0.018280010541398765,
0.08798004987531172,0.00883580165288151,
0.08802992518703241,0.03555463471381059,
0.08807980049875312,0.0030314482458840206,
0.08812967581047382,0.011788471391398981,
0.08817955112219451,0.021982368698464226,
0.08822942643391521,0.0040263366733235325,
0.0882793017456359,0.006605832769084982,
0.08832917705735661,-0.003564894837322181,
0.08837905236907731,-0.005396154293436601,
0.088428927680798,0.014114615846439313,
0.0884788029925187,0.017446782417999494,
0.0885286783042394,0.008240539317798765,
0.0885785536159601,-0.03177610404858263,
0.0886284289276808,-0.006275473137872513,
0.0886783042394015,0.049129348800766255,
0.0887281795511222,0.008630559710954359,
0.08877805486284289,-0.017761330729184652,
0.08882793017456359,-0.0097314238662,
0.0888778054862843,0.005031531961646492,
0.08892768079800499,0.009137622243108812,
0.08897755610972569,0.00931775662342858,
0.08902743142144638,0.012111384037459962,
0.08907730673316708,0.0029508686984644197,
0.08912718204488779,0.007927939411200855,
0.08917705735660848,0.019798748595762524,
0.08922693266832918,-0.020038320093070633,
0.08927680798004987,-0.01885549047068881,
0.08932668329177057,-0.008170544589211433,
0.08937655860349127,0.005756285621765071,
0.08942643391521198,0.014848790312647917,
0.08947630922693267,0.022342532425710986,
0.08952618453865337,0.004408024513832852,
0.08957605985037406,0.021900785369635377,
0.08962593516209476,0.001494366494603036,
0.08967581047381547,-0.013701978291916748,
0.08972568578553616,-0.0012071204216179054,
0.08977556109725686,-0.001938166078643204,
0.08982543640897755,0.018215968529415743,
0.08987531172069825,-0.003614938898738575,
0.08992518703241895,-0.035893167429563846,
0.08997506234413966,0.00600592367764349,
0.09002493765586035,-0.020358850340826632,
0.09007481296758105,0.005160052977864145,
0.09012468827930174,-0.003268586869027606,
0.09017456359102244,-0.028251636114360372,
0.09022443890274315,0.017781137794964125,
0.09027431421446384,-0.0019028715735921477,
0.09032418952618454,0.028329789599770717,
0.09037406483790524,-0.005737242298160258,
0.09042394014962593,0.011851749335544587,
0.09047381546134663,-0.018667435699472712,
0.09052369077306734,0.009502962649407157,
0.09057356608478803,0.005739744792952626,
0.09062344139650873,0.0066604652751009645,
0.09067331670822942,-0.011543234856146885,
0.09072319201995012,-0.015433700302037182,
0.09077306733167083,0.011635310468166161,
0.09082294264339152,-0.028142874875296972,
0.09087281795511222,0.0005676561862017725,
0.09092269326683292,-0.02088413678058077,
0.09097256857855361,-0.017938738852548305,
0.09102244389027432,-0.019392334649130812,
0.09107231920199502,-0.026878462302488873,
0.09112219451371571,-0.004144232644916884,
0.09117206982543641,-0.02665111809139298,
0.0912219451371571,-0.008637302450952736,
0.0912718204488778,-0.01601924639641557,
0.09132169576059851,-0.014129141736135779,
0.0913715710723192,1.4491282249489562e-05,
0.0914214463840399,-0.016012092506588867,
0.0914713216957606,0.0024061416421484252,
0.09152119700748129,-0.012251970496857192,
0.091571072319202,-0.011711396620279075,
0.0916209476309227,-0.029944772165062965,
0.09167082294264339,-0.04069934929511246,
0.09172069825436409,-0.000777930177932297,
0.09177057356608478,-0.022700959345187684,
0.09182044887780548,-0.008144260570733648,
0.09187032418952619,0.005300130603153319,
0.09192019950124689,0.007457917812192148,
0.09197007481296758,-0.01085022927416509,
0.09201995012468828,-0.0354283258418078,
0.09206982543640897,-0.019190383959535047,
0.09211970074812968,-0.012691782544377792,
0.09216957605985038,-0.002052543456021941,
0.09221945137157107,-0.013193700675128487,
0.09226932668329177,-0.04429017404548147,
0.09231920199501246,-0.0062823479455062945,
0.09236907730673316,-0.014233090284652642,
0.09241895261845387,-0.011291380862344626,
0.09246882793017457,-0.015294991088217984,
0.09251870324189526,-0.009601228618341968,
0.09256857855361596,-0.010514897248938811,
0.09261845386533665,-0.03494521523009192,
0.09266832917705736,-0.01697036832408979,
0.09271820448877806,0.008735312462141667,
0.09276807980049875,-0.002324361967213178,
0.09281795511221945,-0.02085414106338279,
0.09286783042394015,-0.027131752419150293,
0.09291770573566084,-0.008192034053834393,
0.09296758104738155,-0.0033376986062347014,
0.09301745635910225,-0.012040649591929664,
0.09306733167082294,-0.01578897853829968,
0.09311720698254364,-0.006441398335164635,
0.09316708229426433,-0.03073567975014975,
0.09321695760598504,-0.0037229944944772025,
0.09326683291770574,-0.0028204961124865934,
0.09331670822942643,-0.0027938189693112563,
0.09336658354114713,-0.013394194276452227,
0.09341645885286783,-0.021712921069329087,
0.09346633416458854,-0.04167043851240296,
0.09351620947630923,-0.017126382883508977,
0.09356608478802993,-0.02848580980025381,
0.09361596009975062,-0.001389425529255273,
0.09366583541147132,0.015555823523665533,
0.09371571072319201,-0.0022563202499875003,
0.09376558603491272,-0.019905532491291386,
0.09381546134663342,-0.0014567096946469169,
0.09386533665835411,-0.0017537122324023727,
0.09391521197007481,-0.016947592839646856,
0.0939650872817955,-0.007337304803042959,
0.09401496259351622,0.012573864456023282,
0.09406483790523691,-0.0017538817461755125,
0.09411471321695761,-0.0009009085491062316,
0.0941645885286783,-0.0011247124511024487,
0.094214463840399,-0.014364045579038883,
0.0942643391521197,-0.012968817343548255,
0.0943142144638404,-0.0163762463514648,
0.0943640897755611,-0.033936654200744945,
0.0944139650872818,-0.003754887982790077,
0.09446384039900249,-0.012810616516302668,
0.09451371571072319,-0.009549196572560304,
0.0945635910224439,0.010980347054454324,
0.09461346633416459,-0.007063216822398823,
0.09466334164588529,0.007046164750152153,
0.09471321695760598,0.005257159547446925,
0.09476309226932668,-0.006767399656890848,
0.09481296758104737,-0.010509141648381546,
0.09486284289276808,0.011793001526413372,
0.09491271820448878,-0.02181044213088801,
0.09496259351620948,-0.03038404640955484,
0.09501246882793017,-0.018430770844907664,
0.09506234413965087,-0.01883998808292392,
0.09511221945137158,0.02013580924460091,
0.09516209476309227,-0.024151113088657875,
0.09521197007481297,-0.016997861597256282,
0.09526184538653366,-0.008480384477202717,
0.09531172069825436,-0.05015165074462247,
0.09536159600997507,-0.028736418264296,
0.09541147132169576,-0.03368506802584417,
0.09546134663341646,-0.004452672871455808,
0.09551122194513716,-0.008384878191434809,
0.09556109725685785,0.007807934674115459,
0.09561097256857855,-0.0007654930304764659,
0.09566084788029926,-0.010156106453494936,
0.09571072319201995,-0.017608909811757077,
0.09576059850374065,-0.01997452419156715,
0.09581047381546134,-0.005087073090832579,
0.09586034912718204,-0.002784138304787527,
0.09591022443890275,-0.041799363688888515,
0.09596009975062345,0.006228485622316859,
0.09600997506234414,-4.1821619364838976e-05,
0.09605985037406484,-0.007814826766987207,
0.09610972568578553,-0.017172565054425493,
0.09615960099750623,-0.01533324076727169,
0.09620947630922694,0.003663766711422045,
0.09625935162094763,-0.0011029237558807365,
0.09630922693266833,-0.006645473748057613,
0.09635910224438902,-0.010004755221296726,
0.09640897755610972,0.00268360942904961,
0.09645885286783043,-0.0011750453502869028,
0.09650872817955113,0.018953251296966057,
0.09655860349127182,-0.0032749925047063306,
0.09660847880299252,0.009957953722228774,
0.09665835411471321,-0.0041020208175761835,
0.09670822942643391,-0.012140230037381416,
0.09675810473815462,-0.016565245174805766,
0.09680798004987531,-0.004275774976684804,
0.09685785536159601,0.001765967399230654,
0.0969077306733167,-0.007471638782099552,
0.0969576059850374,0.021801699174328816,
0.09700748129675811,0.0002848710126576964,
0.0970573566084788,0.001432863125788834,
0.0971072319201995,0.00843929507050932,
0.0971571072319202,0.011740215366684029,
0.0972069825436409,0.023811593368696433,
0.09725685785536159,-0.009408541666158414,
0.0973067331670823,-0.014420093154341874,
0.097356608478803,0.004167448431306625,
0.09740648379052369,-0.0032731156856875103,
0.09745635910224439,-0.009862512087684005,
0.09750623441396508,0.0038744952138404626,
0.09755610972568579,-0.0020319341220131374,
0.09760598503740649,0.016087086304547943,
0.09765586034912718,0.006303876327558836,
0.09770573566084788,-0.005029335910665158,
0.09775561097256857,0.0250466801656805,
0.09780548628428928,-0.006642878542230472,
0.09785536159600998,0.033597989159739015,
0.09790523690773068,0.015319561178363944,
0.09795511221945137,0.008488442964248232,
0.09800498753117207,-0.00604256871306284,
0.09805486284289276,0.03474044122954931,
0.09810473815461347,0.017307308926416364,
0.09815461346633417,0.019569539606381258,
0.09820448877805486,0.006684088132870641,
0.09825436408977556,0.019487195465746794,
0.09830423940149625,-0.0008108866247390776,
0.09835411471321696,-0.0050368515661041195,
0.09840399002493766,-0.017985028562104197,
0.09845386533665836,0.0007926037829639977,
0.09850374064837905,0.014204114728153392,
0.09855361596009975,0.014945725856777411,
0.09860349127182044,0.017776247519371055,
0.09865336658354115,-0.002823893614856446,
0.09870324189526185,0.020923780669244895,
0.09875311720698254,0.030415953070653257,
0.09880299251870324,0.0013597112661854257,
0.09885286783042393,0.01697180752971382,
0.09890274314214464,0.006247855490748703,
0.09895261845386534,0.008815551813331662,
0.09900249376558604,0.042458533424388586,
0.09905236907730673,0.034665068513748676,
0.09910224438902743,-0.008979892155261723,
0.09915211970074812,7.255082508743349e-05,
0.09920199501246883,-0.008617161801165504,
0.09925187032418953,0.011621350781812466,
0.09930174563591022,0.03592626126927774,
0.09935162094763092,0.03999007499303135,
0.09940149625935162,0.0073646136237621625,
0.09945137157107233,0.01858604026609065,
0.09950124688279302,0.014469831656203549,
0.09955112219451372,0.004239034737740266,
0.09960099750623441,0.004805306224350702,
0.09965087281795511,-0.014683286157086951,
0.0997007481296758,0.014805528124882953,
0.09975062344139651,0.012331113163977529,
0.09980049875311721,0.01684821670777265,
0.0998503740648379,0.0049058333246291014,
0.0999002493765586,0.0432202559675971,
0.0999501246882793,0.02222676933927671,
0.1,0.018104613948730714,
0.1000498753117207,-0.0003127311792891496,
0.1000997506234414,0.019607179736028522,
0.10014962593516209,0.01686296560600118,
0.10019950124688279,0.03468855531871217,
0.1002493765586035,0.0665671440002133,
0.1002992518703242,0.033194523533236285,
0.10034912718204489,0.017619105620150472,
0.10039900249376559,0.019850422873875537,
0.10044887780548628,0.021349383733711473,
0.10049875311720698,0.017197992164476834,
0.10054862842892769,0.03094516495527521,
0.10059850374064838,0.042514169981791236,
0.10064837905236908,0.05366695776425097,
0.10069825436408977,0.02320954492884254,
0.10074812967581047,0.025134382670077463,
0.10079800498753118,0.008557644209640555,
0.10084788029925187,0.034320046728492835,
0.10089775561097257,0.030479060621028002,
0.10094763092269327,0.03733371539311962,
0.10099750623441396,0.049184981669319706,
0.10104738154613466,0.012952814039301765,
0.10109725685785537,0.021595071017558327,
0.10114713216957606,0.013612922826475774,
0.10119700748129676,0.018315482976462658,
0.10124688279301745,0.003227884716253338,
0.10129675810473815,0.024640974836390273,
0.10134663341645886,0.014861569370207883,
0.10139650872817955,0.013268450498670623,
0.10144638403990025,0.043208930455113995,
0.10149625935162095,0.03237531888865316,
0.10154613466334164,0.007486235575521569,
0.10159600997506234,0.02791430299818962,
0.10164588528678305,0.03545943983806687,
0.10169576059850374,0.020136464482178026,
0.10174563591022444,0.021847791664809164,
0.10179551122194513,0.026573254132783327,
0.10184538653366583,0.05671727308437423,
0.10189526184538654,0.03273650874121789,
0.10194513715710724,0.027380779970249614,
0.10199501246882793,0.07058351549707066,
0.10204488778054863,0.0015737121267163923,
0.10209476309226932,0.034391444211251156,
0.10214463840399003,0.017689697741746807,
0.10219451371571073,0.03385103063802979,
0.10224438902743142,0.010784783716661549,
0.10229426433915212,0.027470952707083437,
0.10234413965087281,0.007718825058792983,
0.10239401496259351,0.02949514596467072,
0.10244389027431422,0.054978856842569465,
0.10249376558603492,0.03070052249023448,
0.10254364089775561,0.03399483718382526,
0.10259351620947631,0.03407953915525837,
0.102643391521197,0.03418275732621746,
0.10269326683291771,0.015953538700040824,
0.10274314214463841,0.01645475700004529,
0.1027930174563591,0.01706981622310528,
0.1028428927680798,0.003908119809908666,
0.1028927680798005,0.017696909958967846,
0.10294264339152119,0.05887364508234921,
0.1029925187032419,0.013461183551678206,
0.1030423940149626,0.04057533704622105,
0.10309226932668329,0.058144495840955504,
0.10314214463840399,0.008599075942401054,
0.10319201995012468,0.03909123601834704,
0.10324189526184539,0.005161786016619686,
0.10329177057356609,0.005823129141026177,
0.10334164588528678,0.027153032049892636,
0.10339152119700748,0.04410811816964674,
0.10344139650872818,0.021412852280226213,
0.10349127182044887,0.04138732517515077,
0.10354114713216958,0.03592219577604668,
0.10359102244389028,0.04690759891870326,
0.10364089775561097,-0.000337181027153112,
0.10369077306733167,0.023336283720932192,
0.10374064837905236,0.016950671094385937,
0.10379052369077307,0.023526570670435096,
0.10384039900249377,0.03125354618100927,
0.10389027431421446,0.034303316858486275,
0.10394014962593516,0.0022297449607454993,
0.10399002493765586,0.05751708942566795,
0.10403990024937655,0.017229058242758378,
0.10408977556109726,0.036560862430079506,
0.10413965087281796,0.025583675100141628,
0.10418952618453865,0.04376759985614432,
0.10423940149625935,0.02675702273746753,
0.10428927680798004,0.023428996970490255,
0.10433915211970075,0.02408547921001415,
0.10438902743142145,0.02945268930192833,
0.10443890274314215,0.04944012664807698,
0.10448877805486284,0.01351634702282316,
0.10453865336658354,0.016981250397397327,
0.10458852867830425,0.030878980036770563,
0.10463840399002494,0.045479208666237794,
0.10468827930174564,0.03388632319270503,
0.10473815461346633,0.041302143172993265,
0.10478802992518703,0.025342472018703266,
0.10483790523690772,0.002362602710562562,
0.10488778054862843,0.011387192241785957,
0.10493765586034913,0.028329160301977765,
0.10498753117206983,0.02848053515954524,
0.10503740648379052,0.017562810961106224,
0.10508728179551122,0.015193409842044002,
0.10513715710723193,-0.002241806867229041,
0.10518703241895262,0.015614814141210655,
0.10523690773067332,0.01566386997599076,
0.10528678304239401,0.017349786614571747,
0.10533665835411471,0.04183094981843877,
0.1053865336658354,0.03986250129212231,
0.10543640897755611,0.016294946528699485,
0.10548628428927681,0.044680502708960707,
0.1055361596009975,0.024570656142058556,
0.1055860349127182,0.021446305967531658,
0.1056359102244389,0.033338935032835006,
0.10568578553615961,0.03729538403417811,
0.1057356608478803,0.012276996718006075,
0.105785536159601,0.014692914169854247,
0.1058354114713217,0.033019284690248375,
0.10588528678304239,0.018822466733596478,
0.10593516209476309,0.045907646565090644,
0.1059850374064838,0.03513538295348655,
0.10603491271820449,0.01536791015167218,
0.10608478802992519,0.023643311984615036,
0.10613466334164588,0.0297169106424807,
0.10618453865336658,0.01585167194818261,
0.10623441396508729,0.0003335101800335076,
0.10628428927680798,0.01035313269371362,
0.10633416458852868,0.01660073516621165,
0.10638403990024937,-0.0052402913775248285,
0.10643391521197007,0.029600108013903746,
0.10648379052369077,-0.016474255290760798,
0.10653366583541148,0.003919312986262174,
0.10658354114713217,0.03855281103672748,
0.10663341645885287,0.014327628779477705,
0.10668329177057356,0.033563388133151247,
0.10673316708229426,0.03694059560100957,
0.10678304239401497,0.024337625445463543,
0.10683291770573566,0.04294882757642257,
0.10688279301745636,0.027713816925530165,
0.10693266832917706,0.0354864428141903,
0.10698254364089775,0.025086042601613692,
0.10703241895261846,0.024113794510732797,
0.10708229426433916,0.023267283084314538,
0.10713216957605985,0.005431457040034953,
0.10718204488778055,0.009561157531009664,
0.10723192019950124,0.01055785985538527,
0.10728179551122194,0.002697389196410915,
0.10733167082294265,0.01888729393397973,
0.10738154613466334,0.023524153739775247,
0.10743142144638404,-0.0013409128662479359,
0.10748129675810474,0.013744085222355483,
0.10753117206982543,0.044570087636530586,
0.10758104738154614,-0.0005119680291500225,
0.10763092269326684,0.023575916614348172,
0.10768079800498753,0.017828863214924866,
0.10773067331670823,0.01557424560582251,
0.10778054862842892,0.008818167677862433,
0.10783042394014962,0.01449437150571189,
0.10788029925187033,0.0002196257546198451,
0.10793017456359102,-0.005147873724664794,
0.10798004987531172,0.03305531752161578,
0.10802992518703242,0.018460695721944555,
0.10807980049875311,-0.016594636397445756,
0.10812967581047382,-0.004214303812813382,
0.10817955112219452,0.0008473458874552545,
0.10822942643391521,-0.015569269449022531,
0.10827930174563591,-0.014061623857337965,
0.1083291770573566,0.0015427157367852431,
0.1083790523690773,-0.004953677577282054,
0.10842892768079801,0.007318543806072645,
0.1084788029925187,0.0010571581548281719,
0.1085286783042394,0.02613355085735949,
0.1085785536159601,0.02830391677181472,
0.10862842892768079,0.02891272706706082,
0.1086783042394015,-0.013402153995877464,
0.1087281795511222,0.017863864497449793,
0.1087780548628429,-0.015309155956857716,
0.10882793017456359,0.012257398268745513,
0.10887780548628428,-0.0053476471120709745,
0.108927680798005,0.003450027866140617,
0.10897755610972569,0.019258186381004086,
0.10902743142144639,0.014394135857404235,
0.10907730673316708,0.033640634415341916,
0.10912718204488778,0.016929629959673936,
0.10917705735660847,-0.022867492754222996,
0.10922693266832918,0.00219196902062679,
0.10927680798004988,-0.013773459531329864,
0.10932668329177057,-0.004223174467953636,
0.10937655860349127,-0.009876916049336562,
0.10942643391521197,-0.009289687790798286,
0.10947630922693267,-0.021228620725584246,
0.10952618453865337,0.0038403138135687186,
0.10957605985037407,0.015963870349197308,
0.10962593516209476,0.026778624608745364,
0.10967581047381546,-0.006851272039104864,
0.10972568578553615,-0.034485458027071106,
0.10977556109725686,-0.004928179620567263,
0.10982543640897756,0.007285274903329666,
0.10987531172069825,-0.01110858533216865,
0.10992518703241895,-0.006793785779746336,
0.10997506234413965,-0.013068058433732854,
0.11002493765586036,0.011345354284307621,
0.11007481296758105,-0.023391709691144062,
0.11012468827930175,0.020080684893095443,
0.11017456359102244,-0.005090299092123417,
0.11022443890274314,-0.013360764503317496,
0.11027431421446383,0.03806073078997391,
0.11032418952618454,-0.008908363514654353,
0.11037406483790524,-0.04519946221247536,
0.11042394014962593,-0.01593972479128159,
0.11047381546134663,0.002870666204690478,
0.11052369077306733,-0.0015754672630358792,
0.11057356608478804,0.0002604575506352288,
0.11062344139650873,0.023663724434544748,
0.11067331670822943,0.00776662512424163,
0.11072319201995012,-0.019726274283895437,
0.11077306733167082,0.0017632468367517612,
0.11082294264339151,0.014688921775596239,
0.11087281795511222,0.010448089747246554,
0.11092269326683292,0.001269426614967645,
0.11097256857855362,-0.03034326178099026,
0.11102244389027431,0.010622651239358818,
0.111072319201995,-0.01345734225792001,
0.11112219451371572,-0.01834774114638072,
0.11117206982543641,-0.03246299190988568,
0.11122194513715711,-0.008143007416177484,
0.1112718204488778,-0.035064777293479926,
0.1113216957605985,-0.007190158659705886,
0.11137157107231921,-0.010819460392137003,
0.1114214463840399,0.012876952865603041,
0.1114713216957606,-0.014305899810224324,
0.1115211970074813,-0.020671280780805937,
0.11157107231920199,-0.01845288295227706,
0.11162094763092269,-0.005088270171928623,
0.1116708229426434,-0.006561448069682153,
0.11172069825436409,-0.019563684546441557,
0.11177057356608479,-0.019966256164340508,
0.11182044887780548,0.012694010659752014,
0.11187032418952618,-0.0361064281097491,
0.11192019950124689,-0.02441165653867516,
0.11197007481296758,-0.012155624099170363,
0.11201995012468828,-0.007598754634467059,
0.11206982543640898,-0.01847834219374522,
0.11211970074812967,-0.020670398834753176,
0.11216957605985037,0.004107316850858042,
0.11221945137157108,-0.01299392229569982,
0.11226932668329177,-0.006755072157474523,
0.11231920199501247,-0.008574219211338245,
0.11236907730673316,-0.003958154494898969,
0.11241895261845386,-0.003143146582749296,
0.11246882793017457,-0.009588643268399756,
0.11251870324189527,-0.014843005813600152,
0.11256857855361596,0.003070028555067267,
0.11261845386533666,0.002550015062026305,
0.11266832917705735,0.024461076402841564,
0.11271820448877805,0.00563949579210001,
0.11276807980049876,-0.017450578747999046,
0.11281795511221945,-0.010282610817410682,
0.11286783042394015,0.01758893255546882,
0.11291770573566084,-0.013493007110626598,
0.11296758104738154,0.02486389694559266,
0.11301745635910225,-0.0063561861946090535,
0.11306733167082295,-0.014287778168801188,
0.11311720698254364,-0.02505121797442229,
0.11316708229426434,-0.020427115112059486,
0.11321695760598503,0.011474387734782494,
0.11326683291770574,-0.028129415397731,
0.11331670822942644,-0.02914278013937701,
0.11336658354114713,-0.013704916589090333,
0.11341645885286783,0.006555162966029711,
0.11346633416458853,-0.025146534026176365,
0.11351620947630922,-0.0018415935911692792,
0.11356608478802993,0.012311751132636816,
0.11361596009975063,-0.0015799837756368777,
0.11366583541147132,0.0009113581753429356,
0.11371571072319202,-0.007602993102526518,
0.11376558603491271,-0.03394651525380742,
0.11381546134663342,0.012744332409604955,
0.11386533665835412,0.012337261568939956,
0.11391521197007481,-0.0016137077314302192,
0.11396508728179551,-0.015549095598447128,
0.1140149625935162,-0.0017333454771061869,
0.1140648379052369,0.005114047700378379,
0.11411471321695761,0.0077226818534585,
0.1141645885286783,-0.0014929253895906748,
0.114214463840399,-0.010559370229554485,
0.1142643391521197,-0.0073717995139862096,
0.1143142144638404,-0.013826560155673271,
0.1143640897755611,-0.010725738553455082,
0.1144139650872818,0.00010937507512578937,
0.1144638403990025,-0.0005433778463703309,
0.11451371571072319,0.0014677127356307815,
0.11456359102244389,0.00014636246620258926,
0.11461346633416458,0.00011527607843077672,
0.11466334164588529,0.014877832373354279,
0.11471321695760599,0.031026983061581512,
0.11476309226932668,-0.02357057166506489,
0.11481296758104738,-0.019273066432443146,
0.11486284289276807,-0.004465590819601826,
0.11491271820448878,-0.014293934158675928,
0.11496259351620948,-0.0163475341233648,
0.11501246882793018,-0.034329549313331896,
0.11506234413965087,0.009149127567050391,
0.11511221945137157,0.0009964522201477283,
0.11516209476309226,-0.00931830734695568,
0.11521197007481297,0.024329262516037987,
0.11526184538653367,-0.004868104925952069,
0.11531172069825436,-0.009572830658187176,
0.11536159600997506,-0.012732678096054724,
0.11541147132169575,0.011675267550745218,
0.11546134663341646,-0.009274124309928581,
0.11551122194513716,0.0016279483157289592,
0.11556109725685786,0.003144036790908064,
0.11561097256857855,0.0013100399634221075,
0.11566084788029925,-0.009190328781544771,
0.11571072319201996,-0.01403173911080486,
0.11576059850374065,-0.0010208641878572079,
0.11581047381546135,-0.012508044209014748,
0.11586034912718204,-0.002300687103002929,
0.11591022443890274,0.011146859014243077,
0.11596009975062344,-0.01543992269101581,
0.11600997506234415,0.016854795563979723,
0.11605985037406484,-0.0018821077067356562,
0.11610972568578554,0.0064913729023523565,
0.11615960099750623,-0.0034331843237327343,
0.11620947630922693,-0.015377222821360476,
0.11625935162094764,-0.010874719860502296,
0.11630922693266833,0.0032156308238252456,
0.11635910224438903,-0.017926545757220264,
0.11640897755610972,0.008084172564669529,
0.11645885286783042,0.0013261876504974857,
0.11650872817955112,-0.0011061920288989947,
0.11655860349127183,-0.033997907644835935,
0.11660847880299252,0.00922076781246448,
0.11665835411471322,0.006540255010915865,
0.11670822942643391,0.01779821794659043,
0.11675810473815461,0.009943648834232023,
0.11680798004987532,-0.008264796422158167,
0.11685785536159601,-0.010306917963180909,
0.11690773067331671,0.01730301995608106,
0.1169576059850374,-0.03993477636791946,
0.1170074812967581,-0.002555051580529113,
0.1170573566084788,-0.024731030688249757,
0.1171072319201995,-0.006269639135353607,
0.1171571072319202,-0.03038318554802822,
0.1172069825436409,0.01922441559174954,
0.1172568578553616,0.007075373287165,
0.11730673316708229,0.014753764625971298,
0.117356608478803,0.026512601790450754,
0.1174064837905237,0.011942831019337824,
0.11745635910224439,-0.00432237053284072,
0.11750623441396509,0.023948962892599693,
0.11755610972568578,0.0024239366171468963,
0.11760598503740648,0.004007470900333945,
0.11765586034912719,0.01281769417312452,
0.11770573566084788,-0.013361597373986877,
0.11775561097256858,0.002756369983165612,
0.11780548628428927,0.0064174949617547975,
0.11785536159600997,0.0025574700848171547,
0.11790523690773068,5.5758290538277834e-05,
0.11795511221945137,-0.011983845738198181,
0.11800498753117207,0.0025644188285541816,
0.11805486284289277,0.012424440746460628,
0.11810473815461346,-0.02375578640424795,
0.11815461346633417,0.008797902446323076,
0.11820448877805487,-0.013384193761496913,
0.11825436408977556,-0.005718881070067161,
0.11830423940149626,0.006894289494423071,
0.11835411471321695,0.014165871718566241,
0.11840399002493765,0.029076693048288235,
0.11845386533665836,0.01786697906990599,
0.11850374064837906,0.03546931057123165,
0.11855361596009975,-0.005840904668369165,
0.11860349127182045,-0.011176991833062087,
0.11865336658354114,0.015669170518043632,
0.11870324189526185,-0.025539667477152646,
0.11875311720698255,0.016410407224041166,
0.11880299251870324,0.01989160545568027,
0.11885286783042394,0.014770620810740105,
0.11890274314214463,-0.0016091088451813066,
0.11895261845386533,0.02401318826689885,
0.11900249376558604,0.010135878673876138,
0.11905236907730674,0.04453528237631285,
0.11910224438902743,0.0060472077103713474,
0.11915211970074813,0.023137345924887247,
0.11920199501246882,0.001490786104394376,
0.11925187032418953,0.022507200810050976,
0.11930174563591023,0.022682608870962934,
0.11935162094763092,0.0042951835905837895,
0.11940149625935162,0.013490001444333306,
0.11945137157107232,0.025335942368666958,
0.11950124688279301,0.004270819334870049,
0.11955112219451372,0.01962888872680551,
0.11960099750623442,0.04239093383986925,
0.11965087281795511,0.03313869908727348,
0.11970074812967581,0.003594959026418673,
0.1197506234413965,0.0292510837716974,
0.11980049875311721,0.02762837492415899,
0.11985037406483791,0.0038273974571725686,
0.1199002493765586,0.022379426095433322,
0.1199501246882793,0.031128164419683305,
0.12,0.016091610631552265,
0.1200498753117207,0.043495127661064434,
0.1200997506234414,0.006004036236499345,
0.1201496259351621,0.017756101928251684,
0.12019950124688279,0.014297451490226834,
0.12024937655860349,-0.006714818519397297,
0.12029925187032418,0.036835555147552074,
0.1203491271820449,-0.010339688461510236,
0.12039900249376559,0.019601893057795115,
0.12044887780548628,0.03554296517767601,
0.12049875311720698,0.02024511921786434,
0.12054862842892768,0.031585234288768124,
0.12059850374064839,0.02606216938154182,
0.12064837905236908,0.015777963940627856,
0.12069825436408978,0.006067213403890676,
0.12074812967581047,0.025834057067772608,
0.12079800498753117,0.04305613403648539,
0.12084788029925186,0.027826591678464352,
0.12089775561097257,0.008908633532417751,
0.12094763092269327,0.027430404842965137,
0.12099750623441397,0.03389609953019637,
0.12104738154613466,0.0006939655718812068,
0.12109725685785536,0.026311869488334295,
0.12114713216957607,0.023657384004830855,
0.12119700748129676,0.0233979635341583,
0.12124688279301746,0.02871902889833816,
0.12129675810473815,0.031184382372106943,
0.12134663341645885,0.029236570351611132,
0.12139650872817954,0.01835619881863962,
0.12144638403990025,0.02301299948039296,
0.12149625935162095,0.035631203563993984,
0.12154613466334165,0.0065364934856602,
0.12159600997506234,0.03345786053571939,
0.12164588528678304,0.007981379339906988,
0.12169576059850375,0.04533513551716224,
0.12174563591022444,0.034672256510750864,
0.12179551122194514,0.03157901443095379,
0.12184538653366583,0.038963079301591104,
0.12189526184538653,0.027722310468228404,
0.12194513715710723,0.026328293408974465,
0.12199501246882793,0.04568676541116986,
0.12204488778054863,0.02436191850114333,
0.12209476309226933,0.04307658172932244,
0.12214463840399002,0.02437004022329873,
0.12219451371571072,0.03032182030932491,
0.12224438902743143,-0.005859275827740686,
0.12229426433915212,0.06016102969519639,
0.12234413965087282,0.06076106488764979,
0.12239401496259351,0.025284990147307666,
0.12244389027431421,0.014294357934121281,
0.12249376558603492,0.019025752072320382,
0.12254364089775562,0.04441170152764125,
0.12259351620947631,0.02107616869110659,
0.122643391521197,0.05586444744004741,
0.1226932668329177,0.030770432552891604,
0.1227431421446384,0.05073553971455733,
0.12279301745635911,0.03628349575015596,
0.1228428927680798,0.034684829507854426,
0.1228927680798005,0.016529300639187554,
0.1229426433915212,0.04462280843509173,
0.12299251870324189,0.03388815801762062,
0.1230423940149626,0.01772561001192453,
0.1230922693266833,0.046864598788392414,
0.12314214463840399,0.025836178660309888,
0.12319201995012469,0.02178168812961184,
0.12324189526184538,0.005818052539073148,
0.12329177057356608,-0.005325379461743593,
0.12334164588528679,0.04271431957495276,
0.12339152119700748,0.046928066017079495,
0.12344139650872818,0.04032052629721017,
0.12349127182044888,0.03791656655120687,
0.12354114713216957,0.026334780210957986,
0.12359102244389028,0.03745337348441323,
0.12364089775561098,0.018468230500001175,
0.12369077306733167,0.038466510342177164,
0.12374064837905237,0.02167635071008461,
0.12379052369077306,0.028240079662099647,
0.12384039900249376,0.058726305188025976,
0.12389027431421447,0.05390572362576177,
0.12394014962593516,0.0355315576573914,
0.12399002493765586,0.005460331501547198,
0.12403990024937656,-0.0032479973122067456,
0.12408977556109725,0.009607470485496882,
0.12413965087281796,0.02718394479644998,
0.12418952618453866,0.004272093604958567,
0.12423940149625935,0.04085319790682919,
0.12428927680798005,0.026508763005141656,
0.12433915211970074,0.022381751298596417,
0.12438902743142144,0.01214978363107629,
0.12443890274314215,0.05577546417063668,
0.12448877805486284,0.025661037919110914,
0.12453865336658354,0.040738926567472196,
0.12458852867830424,0.04021809559403164,
0.12463840399002493,0.012678412217104707,
0.12468827930174564,0.02236644291662461,
0.12473815461346634,0.0450010472578945,
0.12478802992518703,0.02460317910603567,
0.12483790523690773,0.029692424713312106,
0.12488778054862842,0.048710759547820295,
0.12493765586034913,0.032870154167676816,
0.12498753117206983,0.061857716004285405,
0.12503740648379053,0.03862922590422426,
0.12508728179551123,0.03828761290960175,
0.12513715710723192,0.01877266632150558,
0.12518703241895263,0.018681502569897077,
0.1252369077306733,0.005153438889637572,
0.12528678304239402,0.032979021861072814,
0.1253366583541147,0.04235919290531445,
0.1253865336658354,0.04732172716987528,
0.12543640897755612,0.017544404011045078,
0.1254862842892768,0.010939256805365527,
0.1255361596009975,0.00669169913536468,
0.1255860349127182,0.028417896408426256,
0.1256359102244389,-0.0019185866054976554,
0.1256857855361596,0.03500123219771823,
0.1257356608478803,0.031037349142573466,
0.125785536159601,0.041609138127958786,
0.12583541147132168,0.033369143479660635,
0.1258852867830424,0.02790450117789282,
0.1259351620947631,0.010535763870388628,
0.12598503740648379,0.024162182412446102,
0.1260349127182045,0.01486299288181333,
0.12608478802992518,0.026542249893214923,
0.1261346633416459,0.017200342508795666,
0.1261845386533666,0.022565249208495824,
0.12623441396508728,0.0311765078213434,
0.126284289276808,-0.0033991010276117097,
0.12633416458852867,0.04630652804646503,
0.12638403990024938,0.030654521665265895,
0.1264339152119701,0.023813234771350725,
0.12648379052369077,0.035779455420454895,
0.12653366583541148,0.040726781749298877,
0.12658354114713216,0.021203932259578475,
0.12663341645885287,0.027031862451141253,
0.12668329177057355,-0.0018587640995640468,
0.12673316708229426,0.02738804424668068,
0.12678304239401497,0.011766063143866301,
0.12683291770573565,0.02197231531466133,
0.12688279301745636,0.020842566800674714,
0.12693266832917705,0.025564062488840945,
0.12698254364089775,0.037304359407489385,
0.12703241895261846,-0.0004808427505907688,
0.12708229426433915,0.04415647790892192,
0.12713216957605986,0.025390353413645327,
0.12718204488778054,0.023925836685060053,
0.12723192019950125,0.027215321116854783,
0.12728179551122196,0.007482072986853026,
0.12733167082294264,0.012079852337204098,
0.12738154613466335,0.014622544725308122,
0.12743142144638403,0.0410138298655366,
0.12748129675810474,0.012064991792021766,
0.12753117206982545,0.018864414475329917,
0.12758104738154613,0.022578867220989004,
0.12763092269326684,0.02803399369514148,
0.12768079800498752,0.004331700145761501,
0.12773067331670823,0.04714972872723111,
0.1277805486284289,0.005223942179550369,
0.12783042394014962,-0.014112691494642482,
0.12788029925187033,-0.0041616207528200055,
0.12793017456359101,0.03641784870595505,
0.12798004987531172,0.008821063592611087,
0.1280299251870324,0.011858556101851804,
0.12807980049875312,-0.013982878235449293,
0.12812967581047383,0.007215942205100999,
0.1281795511221945,-0.005125392080986916,
0.12822942643391522,0.009142255493818738,
0.1282793017456359,0.027245033896494287,
0.1283291770573566,-0.002327141046814968,
0.12837905236907732,-0.014891614518836544,
0.128428927680798,0.013636979769096082,
0.1284788029925187,0.012570517682511157,
0.1285286783042394,0.014379027058878297,
0.1285785536159601,0.005858570775360247,
0.1286284289276808,-0.0020436535666988167,
0.1286783042394015,-0.02127384538785471,
0.1287281795511222,0.002235869602377881,
0.12877805486284288,0.008372037523698092,
0.1288279301745636,0.00047437593765770666,
0.1288778054862843,0.019863663134092203,
0.12892768079800498,-0.000626332996073382,
0.1289775561097257,0.002783668960917368,
0.12902743142144638,0.006159680723230227,
0.12907730673316709,-0.008370077685256773,
0.12912718204488777,0.03600315954362873,
0.12917705735660848,0.011810734030167538,
0.1292269326683292,0.02973213758784004,
0.12927680798004987,-0.005706192422463075,
0.12932668329177058,0.0007787547968450734,
0.12937655860349126,-0.0019355277783308002,
0.12942643391521197,0.028366664957917447,
0.12947630922693268,-0.01385914030052156,
0.12952618453865336,-0.016837302170103766,
0.12957605985037407,0.0328478316040237,
0.12962593516209475,-0.013985981504975344,
0.12967581047381546,-0.0015547735930358454,
0.12972568578553617,0.015178912364354516,
0.12977556109725685,0.0021400514820563545,
0.12982543640897756,-0.004456735993492327,
0.12987531172069824,-0.005516161967834693,
0.12992518703241895,-0.004624826869204858,
0.12997506234413966,-0.01329731029972803,
0.13002493765586035,-0.009916223466951061,
0.13007481296758105,0.024845795955292363,
0.13012468827930174,0.011859740578676002,
0.13017456359102245,-0.031071909562525857,
0.13022443890274316,-0.01627601445294085,
0.13027431421446384,0.0007107385723470905,
0.13032418952618455,0.002877360333239704,
0.13037406483790523,-0.014428493780510712,
0.13042394014962594,0.0017118409014076144,
0.13047381546134662,-0.010003637710377686,
0.13052369077306733,0.010129492096400655,
0.13057356608478804,-0.018160551708643783,
0.13062344139650872,-0.029443106204265723,
0.13067331670822943,-0.01886250252858216,
0.1307231920199501,0.01329535384341868,
0.13077306733167082,-0.008776120414339308,
0.13082294264339153,-0.019767310125031946,
0.13087281795511221,-0.02111178123548678,
0.13092269326683292,-0.012379920525800586,
0.1309725685785536,-0.03976602885832376,
0.13102244389027431,-0.025018630763135437,
0.13107231920199502,0.009134729587770793,
0.1311221945137157,-0.02303370167630287,
0.13117206982543642,-0.008480915930058373,
0.1312219451371571,-0.018424263330610233,
0.1312718204488778,-0.009726514740108026,
0.13132169576059852,-0.002920040918609246,
0.1313715710723192,0.002138468405259093,
0.1314214463840399,0.0009302913844586175,
0.1314713216957606,0.011823477341436477,
0.1315211970074813,0.0014050908868201914,
0.13157107231920198,-0.011433175524061659,
0.1316209476309227,0.0010122686396121273,
0.1316708229426434,-0.004543233262066114,
0.13172069825436408,-1.973859842865997e-05,
0.1317705735660848,-0.010043424039404454,
0.13182044887780547,-0.009435584226851802,
0.13187032418952618,-0.002413310204152517,
0.1319201995012469,-0.011391925343494617,
0.13197007481296757,0.0016026189895872126,
0.13201995012468828,-0.008794638627050549,
0.13206982543640897,-0.032356610652562304,
0.13211970074812968,0.009181323252761005,
0.13216957605985039,0.020935331041130004,
0.13221945137157107,0.017042180439780442,
0.13226932668329178,-0.003927348894631489,
0.13231920199501246,-0.004293127353216568,
0.13236907730673317,-0.0015853114138040022,
0.13241895261845388,-0.025339672705570984,
0.13246882793017456,0.0155266132963613,
0.13251870324189527,-0.012455319449667249,
0.13256857855361595,-0.012947236057161195,
0.13261845386533666,-0.018792152547025008,
0.13266832917705737,0.017089219921375073,
0.13271820448877805,-0.036745630622687854,
0.13276807980049876,-0.00935283810712434,
0.13281795511221944,-0.002355789184273124,
0.13286783042394015,-0.01610598536276623,
0.13291770573566083,-0.03277371569685776,
0.13296758104738154,0.014354115413286796,
0.13301745635910225,-0.020085218082655565,
0.13306733167082294,0.004704220537941794,
0.13311720698254365,-0.007995383302735425,
0.13316708229426433,0.0004272862619717679,
0.13321695760598504,-0.024122502458335936,
0.13326683291770575,-0.028321051053637417,
0.13331670822942643,0.015222929267426234,
0.13336658354114714,-0.022970937580502157,
0.13341645885286782,0.024649115820237065,
0.13346633416458853,-0.029539658159944398,
0.13351620947630924,-0.017397439686829316,
0.13356608478802992,-0.02503377609274777,
0.13361596009975063,0.006506223300936002,
0.1336658354114713,-0.015342277315765467,
0.13371571072319202,-0.021350368798294522,
0.13376558603491273,0.006721319690538852,
0.1338154613466334,-0.009362356507064077,
0.13386533665835412,-0.008233334389462922,
0.1339152119700748,-0.030584520690716634,
0.13396508728179551,0.0035370446496502776,
0.1340149625935162,0.003310325227627871,
0.1340648379052369,-0.009036873601819305,
0.13411471321695762,0.0009934971404070292,
0.1341645885286783,-0.009554675596794127,
0.134214463840399,-0.01049825236917145,
0.1342643391521197,-0.006286742376199198,
0.1343142144638404,-0.037000400060833584,
0.1343640897755611,0.007222308851889061,
0.1344139650872818,-0.0026268073494261105,
0.1344638403990025,-0.007831145390405395,
0.13451371571072318,-0.017376046013930634,
0.1345635910224439,-0.01010180935621919,
0.1346134663341646,-0.009481373211380885,
0.13466334164588528,-0.018770541184345964,
0.134713216957606,-0.031261067089023445,
0.13476309226932667,-0.03377769597237706,
0.13481296758104738,0.007209369913476994,
0.1348628428927681,-0.010394556529918464,
0.13491271820448877,-0.01213716342104865,
0.13496259351620948,-0.004968782880820289,
0.13501246882793017,-0.00760502987398861,
0.13506234413965088,0.005997235946583249,
0.13511221945137158,-0.046497700255732494,
0.13516209476309227,-0.018220855270486565,
0.13521197007481298,0.01772416687500955,
0.13526184538653366,-0.03026383070041392,
0.13531172069825437,-0.00020544462159825892,
0.13536159600997505,-0.02302517152584094,
0.13541147132169576,-0.03147283183570807,
0.13546134663341647,0.015836430840723923,
0.13551122194513715,-0.007437074735789236,
0.13556109725685786,-0.018086044596677606,
0.13561097256857854,-0.01600614879978954,
0.13566084788029925,-0.026903550443146428,
0.13571072319201996,-0.008234661901030881,
0.13576059850374064,-0.01280287517158821,
0.13581047381546135,0.0028301865642629143,
0.13586034912718203,0.0016833143848606529,
0.13591022443890274,0.011930535038720873,
0.13596009975062345,0.0007468648592709043,
0.13600997506234414,-0.014735952895718116,
0.13605985037406484,-0.009709635975126182,
0.13610972568578553,0.02914459758115072,
0.13615960099750624,-0.007313154939938316,
0.13620947630922695,-0.028989599423088923,
0.13625935162094763,-0.011006550045904217,
0.13630922693266834,-0.026680698063856464,
0.13635910224438902,0.011941412726749603,
0.13640897755610973,-0.025236901555951652,
0.1364588528678304,-0.005887624041810285,
0.13650872817955112,-0.026484711034664647,
0.13655860349127183,0.016432835219010115,
0.1366084788029925,0.022020213492694354,
0.13665835411471322,-0.012490911734287326,
0.1367082294264339,0.011724202524476436,
0.1367581047381546,0.03780031087873899,
0.13680798004987532,0.012513455463640166,
0.136857855361596,-0.009106753303609915,
0.1369077306733167,-0.004028542024131285,
0.1369576059850374,-0.009385127037100444,
0.1370074812967581,0.004458496987132712,
0.13705735660847881,-0.0073944577932007,
0.1371072319201995,0.017376434173403413,
0.1371571072319202,0.006742984965049646,
0.1372069825436409,-0.011901116805533962,
0.1372568578553616,-0.007237633545602565,
0.1373067331670823,0.006354323368729868,
0.137356608478803,0.03643560484901999,
0.1374064837905237,-0.015699588547214472,
0.13745635910224438,0.005169558508519076,
0.1375062344139651,-0.01804123271442247,
0.1375561097256858,0.0075671157116005226,
0.13760598503740648,-0.01236760018825582,
0.1376558603491272,-0.0017525092383219604,
0.13770573566084787,-0.011752775377611099,
0.13775561097256858,-0.004031639031204567,
0.13780548628428926,0.00892019416677135,
0.13785536159600997,0.026263891511901914,
0.13790523690773068,0.006720172824024486,
0.13795511221945136,0.031499368229165596,
0.13800498753117207,0.02816343790341625,
0.13805486284289276,-0.0056828587711002,
0.13810473815461347,0.03683677148074019,
0.13815461346633418,0.02478074275187656,
0.13820448877805486,0.025222875597232915,
0.13825436408977557,-0.01065696270142864,
0.13830423940149625,0.031262661895601604,
0.13835411471321696,0.01201053209373225,
0.13840399002493767,0.03881490406951635,
0.13845386533665835,0.005649197907476454,
0.13850374064837906,0.023092126295501537,
0.13855361596009974,-0.0005356709280024703,
0.13860349127182045,0.03418650392449226,
0.13865336658354116,0.014094160630783217,
0.13870324189526184,0.022905518348319092,
0.13875311720698255,0.016156013746919013,
0.13880299251870323,0.026251961535017437,
0.13885286783042394,0.02407071538882446,
0.13890274314214462,0.010219079003894696,
0.13895261845386533,0.01941967094634548,
0.13900249376558604,0.012274834710349082,
0.13905236907730673,0.0036442131776597587,
0.13910224438902744,0.022426239982357377,
0.13915211970074812,0.025921295715514273,
0.13920199501246883,0.013971186152937968,
0.13925187032418954,0.029938738086205743,
0.13930174563591022,0.03361374477734091,
0.13935162094763093,0.01852353199657508,
0.1394014962593516,-0.002729381267479826,
0.13945137157107232,0.02346031966698875,
0.13950124688279303,0.013612976134121374,
0.1395511221945137,0.018593291492657087,
0.13960099750623442,0.02817032342930463,
0.1396508728179551,0.01373224326218965,
0.1397007481296758,0.01578927307761006,
0.13975062344139652,0.021193806770224383,
0.1398004987531172,0.023650403210964115,
0.1398503740648379,0.016129185786085135,
0.1399002493765586,0.0023906598575742267,
0.1399501246882793,0.012566896376361365,
0.14,0.004594616661593564,
0.1400498753117207,0.045368187751436445,
0.1400997506234414,-0.011514761550464853,
0.1401496259351621,0.02156753002772403,
0.1401995012468828,0.02303254131058452,
0.14024937655860348,0.030908770876490667,
0.1402992518703242,0.008965280876784595,
0.1403491271820449,0.02526165268520226,
0.14039900249376558,0.026065363026927184,
0.1404488778054863,0.02723537073431012,
0.14049875311720697,0.009431312610842464,
0.14054862842892768,0.02027697570684166,
0.1405985037406484,0.019109027624448913,
0.14064837905236907,0.0013996388766231334,
0.14069825436408978,0.006174100531937923,
0.14074812967581046,0.020092675449139195,
0.14079800498753117,0.05025541686567028,
0.14084788029925188,0.025721157671940702,
0.14089775561097256,0.022184684663659384,
0.14094763092269327,0.02998727319316184,
0.14099750623441396,0.037368824240668445,
0.14104738154613466,0.019570449083805026,
0.14109725685785537,0.024296522304756582,
0.14114713216957606,0.042332302307763275,
0.14119700748129677,0.002203465037849746,
0.14124688279301745,0.017705290831989864,
0.14129675810473816,0.0379056917784644,
