time,amplitude,label
0.0,0.02132422661191159,
4.987531172069826e-05,0.01271219417062496,
9.975062344139652e-05,0.006630306613402805,
0.00014962593516209475,0.012212397880373291,
0.00019950124688279303,0.03906420884784606,
0.00024937655860349125,0.02302330995552801,
0.0002992518703241895,-0.0061273735246937105,
0.00034912718204488776,0.02423176232239443,
0.00039900249376558606,0.02985391486444844,
0.0004488778054862843,0.03297571432149812,
0.0004987531172069825,-0.004683617499931916,
0.0005486284289276808,-0.004022483789991614,
0.000598503740648379,0.013463755240720375,
0.0006483790523690773,-0.007695812581747889,
0.0006982543640897755,0.016806426046110098,
0.0007481296758104738,0.01922836994168898,
0.0007980049875311721,0.026592071776621234,
0.0008478802992518703,0.021321588231372264,
0.0008977556109725686,0.0065642754606989335,
0.0009476309226932668,0.0018372704163483848,
0.000997506234413965,0.044062171245527415,
0.0010473815461346633,0.022187217981391647,
0.0010972568578553616,0.005171394215899636,
0.00114713216957606,0.04969056020394515,
0.001197007481296758,0.05562369035075575,
0.0012468827930174563,0.031338274447187016,
0.0012967581047381546,0.008489503585911913,
0.001346633416458853,0.010670107646738518,
0.001396508728179551,0.017017470080076737,
0.0014463840399002493,0.01711160281782268,
0.0014962593516209476,0.04164374655502989,
0.001546134663341646,0.012994276542818768,
0.0015960099750623442,0.030419227325492192,
0.0016458852867830423,-0.009444031033925732,
0.0016957605985037406,0.01601770053900015,
0.001745635910224439,0.012692398344384435,
0.0017955112219451373,0.030640140834395202,
0.0018453865336658353,0.035458536499038774,
0.0018952618453865336,0.0494378151748419,
0.001945137157107232,0.039000863557069,
0.00199501246882793,0.004415409694623078,
0.0020448877805486283,-0.002209262971859905,
0.0020947630922693266,0.000623158325258312,
0.002144638403990025,-0.012339871369232598,
0.0021945137157107233,-0.006345693342997984,
0.0022443890274314216,0.02873962309913334,
0.00229426433915212,0.014261650755780186,
0.0023441396508728177,0.042229445004485236,
0.002394014962593516,0.04941658844030468,
0.0024438902743142144,0.020039727073551214,
0.0024937655860349127,0.019923309250490587,
0.002543640897755611,0.037329234465035874,
0.0025935162094763093,0.018452283867871618,
0.0026433915211970076,0.025662121237621575,
0.002693266832917706,0.011340924678222572,
0.002743142144638404,0.010318165117235625,
0.002793017456359102,-0.003752619514317195,
0.0028428927680798004,-0.010674590350839348,
0.0028927680798004987,0.04100984861967279,
0.002942643391521197,-0.0023208394616632023,
0.0029925187032418953,0.01438588527636078,
0.0030423940149625936,0.014090946913329107,
0.003092269326683292,-0.0013399492547508489,
0.00314214463840399,0.023289506876762373,
0.0031920199501246885,0.014049834076063136,
0.0032418952618453864,0.016121392636140087,
0.0032917705735660847,0.0076225913685259465,
0.003341645885286783,0.025727289814654317,
0.0033915211970074813,0.0056816113492759775,
0.0034413965087281796,0.02267817881536891,
0.003491271820448878,0.02542872769998256,
0.003541147132169576,0.038443805302427865,
0.0035910224438902745,-0.0027011315030756877,
0.0036408977556109724,0.0012341415149972144,
0.0036907730673316707,-0.004275002612660492,
0.003740648379052369,0.014985627721895057,
0.0037905236907730673,-0.010360613260270423,
0.0038403990024937656,0.012660081225880613,
0.003890274314214464,0.017016557038642823,
0.003940149625935162,0.012551647041079998,
0.00399002493765586,0.011168991482358923,
0.004039900249376558,0.0033744891016840913,
0.004089775561097257,0.01699627282627693,
0.004139650872817955,0.00345255763363288,
0.004189526184538653,0.03185952863081169,
0.004239401496259352,0.00696581584531272,
0.00428927680798005,-0.012193875578979902,
0.004339152119700748,0.020427921352312424,
0.0043890274314214465,0.02837379941126604,
0.004438902743142145,0.0055792961274590425,
0.004488778054862843,0.03268878145848736,
0.004538653366583541,0.027588903211830225,
0.00458852867830424,-0.009330595180653597,
0.004638403990024938,0.001975451421174221,
0.0046882793017456355,-0.0008768103629187771,
0.004738154613466334,0.016551928553340624,
0.004788029925187032,0.01334101615592876,
0.00483790523690773,0.02071725062640241,
0.004887780548628429,0.026778366445097762,
0.004937655860349127,0.010955478948966004,
0.004987531172069825,0.013122020577230097,
0.005037406483790524,0.007789960484210945,
0.005087281795511222,0.002859383184563698,
0.00513715710723192,-0.0012762212921416877,
0.0051870324189526185,0.008356413667752137,
0.005236907730673317,0.01067651730044374,
0.005286783042394015,-0.0006751365621604213,
0.0053366583541147134,-0.0008028329708217041,
0.005386533665835412,0.0061487803974395105,
0.00543640897755611,0.013824404558835757,
0.005486284289276808,0.022853101050095588,
0.005536159600997507,0.003423440014487844,
0.005586034912718204,0.022336212229454346,
0.005635910224438902,0.015608108489721715,
0.005685785536159601,0.011805881097010659,
0.005735660847880299,-0.012890068965829187,
0.005785536159600997,-0.018595345679309223,
0.005835411471321696,-0.006200395793520684,
0.005885286783042394,-0.009180506199313489,
0.005935162094763092,-0.004610151397351475,
0.0059850374064837905,-0.009222720941406092,
0.006034912718204489,0.001157996835542974,
0.006084788029925187,0.0277958156489093,
0.0061346633416458855,0.027080096423558696,
0.006184538653366584,0.00477042023253811,
0.006234413965087282,-0.0074818744851481035,
0.00628428927680798,-0.026191815083136716,
0.006334164588528679,-0.014991487473864477,
0.006384039900249377,-0.032828961168500266,
0.006433915211970074,-0.028058405231264363,
0.006483790523690773,-0.025114987010430658,
0.006533665835411471,0.004620013660090981,
0.006583541147132169,-0.01948099570442919,
0.006633416458852868,-0.02262727392795784,
0.006683291770573566,-0.02242669175027276,
0.006733167082294264,-0.003492030799854195,
0.0067830423940149626,-0.008652507245675817,
0.006832917705735661,0.022556594800631505,
0.006882793017456359,-0.004703797457813313,
0.0069326683291770575,0.013152760592693413,
0.006982543640897756,-0.023907121771477195,
0.007032418952618454,0.003703319703732523,
0.007082294264339152,0.0001473885452901863,
0.007132169576059851,-2.5074961270689713e-05,
0.007182044887780549,0.021910926417666156,
0.007231920199501247,-0.020327289580962554,
0.007281795511221945,-0.02634816290309076,
0.007331670822942643,-0.009698848959335569,
0.007381546134663341,0.003865699994062905,
0.00743142144638404,-0.0011848732355074516,
0.007481296758104738,-0.01897761570490511,
0.007531172069825436,0.0016302775769592038,
0.007581047381546135,-0.022701078894461598,
0.007630922693266833,-0.00031018154852319353,
0.007680798004987531,-0.02349343439936788,
0.0077306733167082295,-0.006897704929095789,
0.007780548628428928,0.00189701029615162,
0.007830423940149626,-0.01344302625133259,
0.007880299251870324,0.0030734027145540056,
0.007930174563591023,-0.03469721724381937,
0.00798004987531172,-0.006175700400846891,
0.00802992518703242,-0.02050577849904716,
0.008079800498753117,-0.016020519960417624,
0.008129675810473816,0.009439059074922767,
0.008179551122194513,-0.030756213975543727,
0.008229426433915213,0.0029472406571502355,
0.00827930174563591,-0.009529868590087783,
0.00832917705735661,-0.0006382983749672142,
0.008379052369077307,-0.03151422122483163,
0.008428927680798006,-0.025061861601042172,
0.008478802992518703,-0.02532131594200422,
0.0085286783042394,-0.028606307361150905,
0.0085785536159601,-0.00587538450072932,
0.008628428927680797,-0.022727379838695636,
0.008678304239401496,-0.0015447136587563616,
0.008728179551122194,0.009865590980009966,
0.008778054862842893,-0.02712407099492572,
0.00882793017456359,-0.04890213785998647,
0.00887780548628429,-0.0353949769525553,
0.008927680798004987,-0.0119293348291785,
0.008977556109725686,-0.008897895276617104,
0.009027431421446384,-0.0006381693182668114,
0.009077306733167083,-0.009194028904109555,
0.00912718204488778,-0.01902052830056089,
0.00917705735660848,-0.025211971791492586,
0.009226932668329177,-0.01798403869655352,
0.009276807980049876,-0.028315789004772055,
0.009326683291770574,-0.008961993250004338,
0.009376558603491271,-0.014218781293212048,
0.00942643391521197,0.006495911855143324,
0.009476309226932668,-0.014610904995857946,
0.009526184538653367,-0.019064827013115782,
0.009576059850374064,0.008678349931164314,
0.009625935162094763,-0.009359133512072959,
0.00967581047381546,-0.010711562933843814,
0.00972568578553616,-0.03776993384336858,
0.009775561097256857,-0.024054645616982794,
0.009825436408977557,0.011064790427255715,
0.009875311720698254,-0.01626445642575018,
0.009925187032418953,-0.012083481101540812,
0.00997506234413965,-0.03581301598860738,
0.01002493765586035,-0.016785130268918726,
0.010074812967581047,-0.002578972138209023,
0.010124688279301746,-0.03366323106638548,
0.010174563591022444,-0.025240557674608026,
0.010224438902743141,-0.04916991416246909,
0.01027431421446384,-0.03406785719549003,
0.010324189526184538,-0.000252283434209747,
0.010374064837905237,-0.011621299880803085,
0.010423940149625935,-0.009455758795377725,
0.010473815461346634,-0.026627669653791052,
0.010523690773067331,-0.01930846025724615,
0.01057356608478803,0.0016045919606629683,
0.010623441396508728,-0.0203984079539889,
0.010673316708229427,-0.010926034431688035,
0.010723192019950124,-0.021605777335972298,
0.010773067331670824,-0.033286520910280865,
0.010822942643391521,-0.020134410862228752,
0.01087281795511222,-0.04831286924406089,
0.010922693266832918,0.010384430324492284,
0.010972568578553617,-0.032193524793528765,
0.011022443890274314,-0.029558775978793757,
0.011072319201995013,-0.012835982865082675,
0.01112219451371571,-0.02297575103289262,
0.011172069825436408,-0.03760749709335559,
0.011221945137157107,-0.021769281695543603,
0.011271820448877805,-0.017928373512957035,
0.011321695760598504,0.02014455710498074,
0.011371571072319201,-0.048356071218819005,
0.0114214463840399,-0.03649831283563953,
0.011471321695760598,-0.012719409347971649,
0.011521197007481297,-0.021179824364510946,
0.011571072319201995,-0.029782411521920342,
0.011620947630922694,-0.029773806997981985,
0.011670822942643391,-0.009266519709460639,
0.01172069825436409,-0.02265945853840271,
0.011770573566084788,-0.044950242897270384,
0.011820448877805487,-0.03943171162230011,
0.011870324189526184,0.0001613170711013065,
0.011920199501246884,-0.010432034613318857,
0.011970074812967581,-0.013080382534418454,
0.012019950124688279,0.005675390909878963,
0.012069825436408978,-0.02787997732288118,
0.012119700748129675,-0.013186057167131726,
0.012169576059850374,-0.011877247389841044,
0.012219451371571072,-0.026089616985523742,
0.012269326683291771,-0.005353343548648146,
0.012319201995012468,-0.008487995936565615,
0.012369077306733168,-0.009494808373357946,
0.012418952618453865,-0.021053500154328074,
0.012468827930174564,0.015263798888352446,
0.012518703241895262,-0.002177984224749638,
0.01256857855361596,-0.013939180381285037,
0.012618453865336658,0.013295992477529921,
0.012668329177057357,0.0015170727883508615,
0.012718204488778055,-0.0010485970525727483,
0.012768079800498754,-0.0390305424420181,
0.012817955112219451,-0.021732305605734466,
0.012867830423940149,-0.012029034598684258,
0.012917705735660848,-0.013000207874434566,
0.012967581047381545,-0.036411037106074136,
0.013017456359102245,-0.03571292808022321,
0.013067331670822942,0.0022710345547266274,
0.013117206982543641,-0.005718269850012711,
0.013167082294264339,-0.0018204482999795938,
0.013216957605985038,-0.01035839419104108,
0.013266832917705735,-0.01949932352457109,
0.013316708229426434,0.007724914295799322,
0.013366583541147132,-0.03920270777750396,
0.013416458852867831,-0.02151249113764937,
0.013466334164588529,0.009706614632756311,
0.013516209476309228,-0.043927818880116855,
0.013566084788029925,0.001602327683325704,
0.013615960099750624,0.0066529751968656455,
0.013665835411471322,0.00031204066728219085,
0.01371571072319202,-0.0130029987179761,
0.013765586034912718,-0.018280121789915758,
0.013815461346633416,-0.011047489907759632,
0.013865336658354115,0.009505540253326332,
0.013915211970074812,-0.005336291300226837,
0.013965087281795512,-0.05200885711920621,
0.014014962593516209,-0.015608949944469968,
0.014064837905236908,0.005138936610339496,
0.014114713216957606,-0.011604799065148219,
0.014164588528678305,-0.009626845936753347,
0.014214463840399002,-0.006490098979966262,
0.014264339152119701,-0.003334699288905291,
0.014314214463840399,-0.018364427620688552,
0.014364089775561098,-0.015935877313513577,
0.014413965087281795,0.008319060987586769,
0.014463840399002495,-0.02223064737573836,
0.014513715710723192,-0.013052667937154462,
0.01456359102244389,-0.016497871136490237,
0.014613466334164589,0.005962779893933808,
0.014663341645885286,-0.00448104088747394,
0.014713216957605985,-0.010537245664125141,
0.014763092269326683,-0.011466558908302806,
0.014812967581047382,0.009063607382385227,
0.01486284289276808,-0.016118670924777444,
0.014912718204488778,-0.007559474991176214,
0.014962593516209476,-0.006713882997942105,
0.015012468827930175,-0.008719724020059235,
0.015062344139650873,0.0038085783803235773,
0.015112219451371572,0.00086722568062606,
0.01516209476309227,-0.004559921512620538,
0.015211970074812968,-0.022076442635320978,
0.015261845386533666,-0.017767151138318876,
0.015311720698254365,1.0167391644569368e-05,
0.015361596009975062,-0.023848276713177085,
0.01541147132169576,-0.0027016079007012505,
0.015461346633416459,0.0006290580935172322,
0.015511221945137156,-0.015240912837290167,
0.015561097256857856,-0.0015112048392687798,
0.015610972568578553,0.0033383965643537647,
0.015660847880299252,-0.009359010200617949,
0.01571072319201995,0.0096898358371405,
0.015760598503740647,-0.023895455423980215,
0.015810473815461346,-0.012921543762507169,
0.015860349127182045,0.002196585049407851,
0.015910224438902745,0.013765899504533061,
0.01596009975062344,-0.021324570655283422,
0.01600997506234414,0.0005876542773014524,
0.01605985037406484,-0.010167432294530758,
0.016109725685785538,0.011611543202399615,
0.016159600997506234,0.006295611325171806,
0.016209476309226933,-0.024361332616638223,
0.016259351620947632,0.0009834127079414198,
0.016309226932668328,-0.004007101757809852,
0.016359102244389027,0.016316227285607113,
0.016408977556109726,0.04644821695971446,
0.016458852867830425,-0.007230418052254232,
0.01650872817955112,0.02870254856067963,
0.01655860349127182,0.016831506911131673,
0.01660847880299252,-0.019683264892587704,
0.01665835411471322,0.006290735185496747,
0.016708229426433914,0.020134787867540742,
0.016758104738154613,0.011481299019532949,
0.016807980049875312,0.0043516509255063065,
0.01685785536159601,0.018303307519610505,
0.016907730673316707,0.0450402233990886,
0.016957605985037406,0.02085408667813691,
0.017007481296758106,0.01921493124665119,
0.0170573566084788,-0.0068471781491506074,
0.0171072319201995,0.003806411777846349,
0.0171571072319202,0.004429844027961532,
0.0172069825436409,0.0028271715823582066,
0.017256857855361595,0.02111172097707968,
0.017306733167082294,0.019120259599883945,
0.017356608478802993,-0.0015178708118483084,
0.017406483790523692,-0.004988914931942709,
0.017456359102244388,-0.017861892803499486,
0.017506234413965087,0.029882008300949208,
0.017556109725685786,0.031094357009790657,
0.017605985037406485,0.016050842647819284,
0.01765586034912718,-0.0025492851243639567,
0.01770573566084788,0.0389996512399255,
0.01775561097256858,0.015437497603515557,
0.01780548628428928,0.01826145236389961,
0.017855361596009974,0.02285891943938894,
0.017905236907730673,0.0333292956035794,
0.017955112219451373,-0.0017272535455902013,
0.018004987531172068,-0.003040681161745204,
0.018054862842892767,0.04546935176218533,
0.018104738154613467,0.00033973191012112713,
0.018154613466334166,0.03512113054683143,
0.01820448877805486,0.02141031193892954,
0.01825436408977556,0.012010998013345426,
0.01830423940149626,0.0015944296953409424,
0.01835411471321696,0.01243122007809325,
0.018403990024937655,0.014327290788614538,
0.018453865336658354,-0.011489299937174121,
0.018503740648379053,0.02685996320156257,
0.018553615960099752,0.019043954710034637,
0.018603491271820448,0.00795258279047179,
0.018653366583541147,-0.00778409996998693,
0.018703241895261846,0.0419306761034897,
0.018753117206982542,0.01484537758496348,
0.01880299251870324,0.0196594512935019,
0.01885286783042394,0.00031225530306237467,
0.01890274314214464,0.03714117960406456,
0.018952618453865335,-0.00654987277152114,
0.019002493765586034,0.015440736452140474,
0.019052369077306733,0.023929277169960114,
0.019102244389027433,0.005582563410973322,
0.01915211970074813,0.03296666852686195,
0.019201995012468828,0.026396457617538456,
0.019251870324189527,0.01608323064868859,
0.019301745635910226,0.029000355885932694,
0.01935162094763092,0.0348318588619595,
0.01940149625935162,0.021568853407667947,
0.01945137157107232,0.04437916077976689,
0.01950124688279302,0.005364522846291015,
0.019551122194513715,0.014227819689464918,
0.019600997506234414,0.028612302777074244,
0.019650872817955113,0.028354575464994685,
0.01970074812967581,-0.0015631343593795755,
0.019750623441396508,0.024471470696081188,
0.019800498753117207,-0.0001854476833670557,
0.019850374064837906,0.015813497115553004,
0.019900249376558602,0.023313240033336777,
0.0199501246882793,0.02812954482403583,
0.02,0.018519030455018806,
0.0200498753117207,0.0343720448863718,
0.020099750623441395,0.024339366592260575,
0.020149625935162094,0.03577319855149405,
0.020199501246882794,0.014249540796717555,
0.020249376558603493,0.042302435801932214,
0.02029925187032419,0.03002004822324275,
0.020349127182044888,0.032285783793819196,
0.020399002493765587,0.016171595863547113,
0.020448877805486283,0.027510732983575342,
0.02049875311720698,0.035053551634662845,
0.02054862842892768,0.016019716070845395,
0.02059850374064838,0.01953022908673054,
0.020648379052369076,0.02273201344534579,
0.020698254364089775,0.013985347512935844,
0.020748129675810474,0.027507214031029553,
0.020798004987531173,-0.0010197507378974652,
0.02084788029925187,0.027580559658365617,
0.020897755610972568,0.04252158420494129,
0.020947630922693267,0.022264820482638385,
0.020997506234413967,0.008935689997547045,
0.021047381546134662,0.038889764137956216,
0.02109725685785536,-0.0054645967238195065,
0.02114713216957606,0.022736319594571855,
0.02119700748129676,0.03207100880787642,
0.021246882793017455,0.03257346634326351,
0.021296758104738155,-0.0017158570575512774,
0.021346633416458854,0.024819504735248327,
0.02139650872817955,0.0038065636099063813,
0.02144638403990025,0.034150055599458475,
0.021496259351620948,0.022397530968606544,
0.021546134663341647,0.022423925573362494,
0.021596009975062343,-0.003310379156366696,
0.021645885286783042,0.009084246632750606,
0.02169576059850374,0.026720944180312255,
0.02174563591022444,0.03175835198254112,
0.021795511221945136,0.024215587897066963,
0.021845386533665835,0.04017956540170825,
0.021895261845386534,0.038810687769997534,
0.021945137157107233,0.00608771978614514,
0.02199501246882793,0.019781560529430628,
0.02204488778054863,0.010109274806298547,
0.022094763092269327,0.01286488264788257,
0.022144638403990027,0.025536736776568557,
0.022194513715710722,0.009852912210856577,
0.02224438902743142,0.012319960492848153,
0.02229426433915212,-0.00924239421084835,
0.022344139650872816,0.031033154366605344,
0.022394014962593516,-0.012990242792394566,
0.022443890274314215,0.045278291528348405,
0.022493765586034914,-0.007928988554133744,
0.02254364089775561,0.027637884379642166,
0.02259351620947631,0.006267184376604272,
0.022643391521197008,0.02122399370939292,
0.022693266832917707,0.021205108201374556,
0.022743142144638403,0.009573626176961452,
0.022793017456359102,0.014561334823046642,
0.0228428927680798,0.0017451852192488064,
0.0228927680798005,0.02374541702198102,
0.022942643391521196,0.009258205030253281,
0.022992518703241895,0.012000857825241903,
0.023042394014962594,0.019159308030009033,
0.02309226932668329,0.013431598066515166,
0.02314214463840399,0.016930237997599726,
0.02319201995012469,0.029431813898556418,
0.023241895261845388,0.036500170454845854,
0.023291770573566083,0.007617854915343605,
0.023341645885286783,0.02006905607523488,
0.02339152119700748,-0.008307695824392582,
0.02344139650872818,0.003262859545743983,
0.023491271820448877,0.018763209533344143,
0.023541147132169576,0.003367973629185122,
0.023591022443890275,0.02399826819673039,
0.023640897755610974,0.017184578197294454,
0.02369077306733167,0.0006208462436300115,
0.02374064837905237,0.04410080482401239,
0.023790523690773068,0.003834357318743266,
0.023840399002493767,0.01966924102494717,
0.023890274314214463,0.018357669622219182,
0.023940149625935162,0.02466519318661707,
0.02399002493765586,0.025666296520173514,
0.024039900249376557,-0.003706021692150596,
0.024089775561097256,0.014779171873301366,
0.024139650872817955,0.010609767340470339,
0.024189526184538655,-0.00831726026113353,
0.02423940149625935,-0.0011585058500352963,
0.02428927680798005,0.029547229554946406,
0.02433915211970075,0.012447292651038205,
0.024389027431421448,-0.00807714663592122,
0.024438902743142144,-0.0023774279811093237,
0.024488778054862843,-0.012814256563894748,
0.024538653366583542,0.02034993165034415,
0.02458852867830424,0.009967321165967463,
0.024638403990024937,0.026695711093009358,
0.024688279301745636,-0.0005708315550590048,
0.024738154613466335,0.0045647601193728625,
0.02478802992518703,0.009177454408555996,
0.02483790523690773,0.018842953052150335,
0.02488778054862843,0.01763252950539026,
0.02493765586034913,-0.0024431648098333664,
0.024987531172069824,0.022408160298887272,
0.025037406483790523,0.014121587312652683,
0.025087281795511222,-0.004996048166309126,
0.02513715710723192,-0.003788889935062054,
0.025187032418952617,-0.006079492723925935,
0.025236907730673316,0.006885883675762142,
0.025286783042394016,0.025130101075307863,
0.025336658354114715,0.009422486424044167,
0.02538653366583541,-0.01626795825598029,
0.02543640897755611,0.007655862724789188,
0.02548628428927681,-0.019471451086443,
0.025536159600997508,0.005715962303908924,
0.025586034912718204,0.008850938940315141,
0.025635910224438903,0.01100886961950916,
0.025685785536159602,0.01719121644618296,
0.025735660847880298,-0.00571377826774336,
0.025785536159600997,-0.016018702844345888,
0.025835411471321696,-0.0001346763707683169,
0.025885286783042395,-0.02470356875183878,
0.02593516209476309,0.02189615904454958,
0.02598503740648379,-0.007329746879410807,
0.02603491271820449,0.00881648256447256,
0.02608478802992519,0.01106428302913229,
0.026134663341645884,0.013429434905590043,
0.026184538653366583,-0.028559541069837196,
0.026234413965087282,-0.016544002457658195,
0.02628428927680798,0.009127595927361919,
0.026334164588528677,0.009820584055700035,
0.026384039900249377,0.001401316892383183,
0.026433915211970076,0.006143972888566715,
0.02648379052369077,-0.020559925903368213,
0.02653366583541147,0.012999860892640458,
0.02658354114713217,0.017957851221095313,
0.02663341645885287,0.006470571542774558,
0.026683291770573565,-0.01653287266893471,
0.026733167082294264,-0.006658462947529533,
0.026783042394014963,0.0058448786608720025,
0.026832917705735662,-0.03187172771505155,
0.026882793017456358,-0.02566766664512251,
0.026932668329177057,0.00765873045386832,
0.026982543640897756,0.008958231931080307,
0.027032418952618455,-0.03673950092416449,
0.02708229426433915,-0.006427896471073873,
0.02713216957605985,0.00411316296256427,
0.02718204488778055,-0.009009810241619912,
0.02723192019950125,-0.0011109990137704714,
0.027281795511221944,-0.0153090461954805,
0.027331670822942643,-0.01495843339219551,
0.027381546134663343,-0.02414362428415876,
0.02743142144638404,-0.01911683720759966,
0.027481296758104738,0.006136853979326323,
0.027531172069825437,0.018473596795334335,
0.027581047381546136,0.016358790122882473,
0.02763092269326683,-0.022966206775607526,
0.02768079800498753,-0.004463402621967779,
0.02773067331670823,-0.023917800456892416,
0.02778054862842893,-0.017489347625033277,
0.027830423940149625,-0.014135227021006782,
0.027880299251870324,-0.026677207932394573,
0.027930174563591023,-0.013364794335092224,
0.027980049875311722,0.007000637266244591,
0.028029925187032418,-0.023369336534017425,
0.028079800498753117,-0.01969926342803469,
0.028129675810473816,-0.015645630438844822,
0.028179551122194512,-0.021050794975752074,
0.02822942643391521,-0.007357828505112687,
0.02827930174563591,-0.007677406144426066,
0.02832917705735661,-0.0019093205988054418,
0.028379052369077305,-0.010829102741888386,
0.028428927680798004,-0.03294296043704016,
0.028478802992518704,-0.0028476145019784033,
0.028528678304239403,-0.038747357050631696,
0.0285785536159601,-0.024542472097563175,
0.028628428927680798,-0.012366671568290692,
0.028678304239401497,0.027663579472110587,
0.028728179551122196,-0.02147547048009534,
0.02877805486284289,0.004622066928388506,
0.02882793017456359,0.0009747653034905355,
0.02887780548628429,0.0028025767684002056,
0.02892768079800499,-0.00036239641754872917,
0.028977556109725685,-0.021218324283482554,
0.029027431421446384,0.002783654829391524,
0.029077306733167083,0.011362168466444805,
0.02912718204488778,-0.019753405356169,
0.029177057356608478,-0.010052648805973953,
0.029226932668329177,-0.014961724300332234,
0.029276807980049877,-0.022358531402746535,
0.029326683291770572,-0.0357422179179355,
0.02937655860349127,-0.025909732937260586,
0.02942643391521197,-0.02973039907577158,
0.02947630922693267,-0.026892797587881004,
0.029526184538653365,-0.020996941739359787,
0.029576059850374065,-0.022439883705235013,
0.029625935162094764,0.006175916456948219,
0.029675810473815463,-0.02002583866119052,
0.02972568578553616,-0.010398481005048484,
0.029775561097256858,-0.03064635101279306,
0.029825436408977557,0.0036513226761459433,
0.029875311720698253,-0.0019793110431000436,
0.029925187032418952,-0.04245893465202043,
0.02997506234413965,-0.007241775352400968,
0.03002493765586035,-0.031096717425738413,
0.030074812967581046,-0.022679511121944714,
0.030124688279301745,-0.029728256174984622,
0.030174563591022444,-0.027726408837664727,
0.030224438902743143,-0.008008630719429624,
0.03027431421446384,-0.021638921068008247,
0.03032418952618454,-0.006263461215397994,
0.030374064837905237,-0.018786729630650104,
0.030423940149625937,-0.02971449230694556,
0.030473815461346632,-0.028247056002553703,
0.03052369077306733,-0.010389208042118217,
0.03057356608478803,-0.032099656137462476,
0.03062344139650873,-0.011845661618941107,
0.030673316708229426,-0.02004936626160302,
0.030723192019950125,-0.054359137870613854,
0.030773067331670824,-0.0007145940906458023,
0.03082294264339152,-0.016081679405168806,
0.03087281795511222,0.007253779712078988,
0.030922693266832918,-0.007408581274656463,
0.030972568578553617,-0.009926018499725426,
0.031022443890274313,-0.012834579818836877,
0.031072319201995012,0.001237510167914159,
0.03112219451371571,-0.009094294056182483,
0.03117206982543641,-0.00441397328809162,
0.031221945137157106,-0.043669802360662875,
0.03127182044887781,-0.02286753897765971,
0.031321695760598504,-0.0009144341473143955,
0.0313715710723192,-0.02685915158466387,
0.0314214463840399,-0.020820794869099622,
0.0314713216957606,-0.02701629590669573,
0.031521197007481294,-0.016408549998988664,
0.031571072319202,-0.006483101191578822,
0.03162094763092269,-0.014636401481202068,
0.03167082294264339,-0.032444316426068646,
0.03172069825436409,-0.03773245901612016,
0.03177057356608479,-0.028445896368535943,
0.03182044887780549,-0.046044941876053375,
0.031870324189526185,0.004336953992652659,
0.03192019950124688,-0.013215777885032186,
0.03197007481296758,0.006427765799962241,
0.03201995012468828,-0.016982767122816354,
0.032069825436408975,-0.013120255636414122,
0.03211970074812968,-0.03858392189306612,
0.03216957605985037,0.0011077418848743567,
0.032219451371571076,0.00808088591978904,
0.03226932668329177,-0.03004693362919851,
0.03231920199501247,-0.027972824989552128,
0.03236907730673317,-0.003938421370111838,
0.032418952618453865,-0.007243896261400668,
0.03246882793017456,-0.020362838741726043,
0.032518703241895264,-0.020698286678169142,
0.03256857855361596,-0.00107922861044619,
0.032618453865336655,0.012886312942286095,
0.03266832917705736,-0.000976883389871527,
0.032718204488778053,0.0034751720730986785,
0.032768079800498756,-0.004545226990462338,
0.03281795511221945,-0.04062637181901969,
0.03286783042394015,0.011942484864583528,
0.03291770573566085,-0.0033017841652169845,
0.032967581047381546,-0.01895889549731273,
0.03301745635910224,-0.026919216182979842,
0.033067331670822944,-0.020725116051731437,
0.03311720698254364,-0.0048327717911490625,
0.03316708229426434,-0.04429692971393438,
0.03321695760598504,-0.007154913857384319,
0.033266832917705734,-0.0009260720562250697,
0.03331670822942644,-0.034339621536708595,
0.03336658354114713,-0.02083525721955215,
0.03341645885286783,-0.028328545892960848,
0.03346633416458853,-0.0027545309624447904,
0.033516209476309226,0.019028332087487818,
0.03356608478802992,-0.017928702030468265,
0.033615960099750625,-0.012107685952546238,
0.03366583541147132,-0.014455365883318425,
0.03371571072319202,-0.028771275977180252,
0.03376558603491272,-0.023273285770193275,
0.033815461346633414,-0.0012606602444659078,
0.03386533665835412,-0.011434699066107046,
0.03391521197007481,0.008446869558091558,
0.03396508728179551,-0.0064831674791323984,
0.03401496259351621,-0.007696328944275654,
0.03406483790523691,-0.004169402625594201,
0.0341147132169576,0.02067730747770695,
0.034164588528678305,-0.03961585264459483,
0.034214463840399,-0.02233766980065074,
0.034264339152119704,-0.005862471140995466,
0.0343142144638404,-0.007903525941060873,
0.034364089775561095,0.009023553519098402,
0.0344139650872818,-0.005499050718547907,
0.03446384039900249,0.0036976185239734243,
0.03451371571072319,-0.010062640203744226,
0.03456359102244389,0.0006519175956378638,
0.03461346633416459,0.00863083230453553,
0.03466334164588529,-0.02147806822319551,
0.034713216957605986,-0.008768771023575261,
0.03476309226932668,-0.01354405678205596,
0.034812967581047384,0.003671518950166555,
0.03486284289276808,0.005067824082703518,
0.034912718204488775,0.0055511824599248066,
0.03496259351620948,0.0003570294419800251,
0.035012468827930174,-0.004125950090797213,
0.03506234413965087,-0.011713487567109965,
0.03511221945137157,0.009531296801967059,
0.03516209476309227,-0.00031786278466003977,
0.03521197007481297,-0.0034851659446547677,
0.035261845386533666,0.023386158486741932,
0.03531172069825436,-0.011687622760718294,
0.035361596009975065,-0.015476265416335903,
0.03541147132169576,0.000819956943371536,
0.035461346633416456,-0.027157412418261483,
0.03551122194513716,0.004018869066638233,
0.035561097256857854,-0.0047603859022961855,
0.03561097256857856,0.03675216523657649,
0.03566084788029925,0.01466481126504002,
0.03571072319201995,-0.0033692440169963526,
0.03576059850374065,-0.0006478882658379759,
0.03581047381546135,0.03010080461518902,
0.03586034912718204,0.022115634415071618,
0.035910224438902745,0.015305827185412828,
0.03596009975062344,0.028241863076579075,
0.036009975062344136,-0.002736904407068448,
0.03605985037406484,0.023805200158644565,
0.036109725685785535,0.002662000233290012,
0.03615960099750624,0.0008809504018436917,
0.03620947630922693,-0.005400864642578086,
0.03625935162094763,0.008661543869870112,
0.03630922693266833,0.011480853464084647,
0.03635910224438903,0.002816773806359052,
0.03640897755610972,-0.007060333826571158,
0.036458852867830426,0.011911158158611553,
0.03650872817955112,-0.008682393096771338,
0.036558603491271824,-0.02055853991650891,
0.03660847880299252,-0.005005289485826788,
0.036658354114713215,0.025191153681064643,
0.03670822942643392,0.04174957985723297,
0.036758104738154614,0.00631596437706517,
0.03680798004987531,-0.004118729317700565,
0.03685785536159601,0.016876504796435206,
0.03690773067331671,0.023288985262797275,
0.0369576059850374,0.02006896451275067,
0.037007481296758106,0.01344038152474403,
0.0370573566084788,0.028151032003587657,
0.037107231920199504,0.019275627016587138,
0.0371571072319202,0.015010027120597604,
0.037206982543640896,-0.012295018594712563,
0.0372568578553616,0.025310772204924573,
0.037306733167082294,0.02741640612123482,
0.03735660847880299,0.010930870667414421,
0.03740648379052369,-0.0014505157513787798,
0.03745635910224439,0.005931893665505411,
0.037506234413965084,0.012799852058787897,
0.037556109725685786,0.006319468764287921,
0.03760598503740648,0.020380945945222467,
0.037655860349127185,0.0272481185180262,
0.03770573566084788,0.00014580434768027978,
0.037755610972568576,-0.0036266283817748424,
0.03780548628428928,-0.0002913574914209325,
0.037855361596009975,-0.0044889036512057705,
0.03790523690773067,0.03344859953858557,
0.03795511221945137,0.018263013563629308,
0.03800498753117207,0.02695537740427844,
0.03805486284289277,-0.010092523431113665,
0.03810473815461347,0.0038668351448938165,
0.03815461346633416,0.027221245121257474,
0.038204488778054865,0.01849691926785619,
0.03825436408977556,0.02101867243576626,
0.03830423940149626,-0.0019066164149218745,
0.03835411471321696,-0.017689501708610583,
0.038403990024937655,0.011514567753289658,
0.03845386533665835,-0.0023815391620341415,
0.03850374064837905,0.04288561523372085,
0.03855361596009975,0.03448610410328798,
0.03860349127182045,0.017155071121191644,
0.03865336658354115,0.007361138813878908,
0.03870324189526184,0.005973243328549236,
0.038753117206982546,0.028548253126729144,
0.03880299251870324,-0.006073944206933555,
0.03885286783042394,0.02641783917954269,
0.03890274314214464,0.019424498474002662,
0.038952618453865336,-0.003590317543706884,
0.03900249376558604,0.022523626897711386,
0.039052369077306734,0.02024375542703105,
0.03910224438902743,0.011153403164127183,
0.03915211970074813,0.005183948123065586,
0.03920199501246883,0.02907668930366745,
0.039251870324189524,0.040587946884464536,
0.039301745635910226,0.015208045732370987,
0.03935162094763092,-0.01346517547402653,
0.03940149625935162,0.016544032455655392,
0.03945137157107232,0.013449916200230337,
0.039501246882793016,0.005949392042176392,
0.03955112219451372,0.017264863534153286,
0.039600997506234414,0.029896994320764946,
0.03965087281795511,0.04125036329508351,
0.03970074812967581,0.038981912935704674,
0.03975062344139651,0.04095879546325355,
0.039800498753117204,0.00033628306812742703,
0.03985037406483791,0.024200602397057076,
0.0399002493765586,0.026677520188727696,
0.039950124688279305,0.01589816968389791,
0.04,9.242154956834794e-05,
0.0400498753117207,0.0002393896649070873,
0.0400997506234414,0.0225090878862053,
0.040149625935162095,0.02756272183570993,
0.04019950124688279,0.03634475582566285,
0.04024937655860349,0.03205478076628364,
0.04029925187032419,-0.006802962007635891,
0.040349127182044885,0.021114122750051357,
0.04039900249376559,-9.425515190162465e-05,
0.04044887780548628,0.03005148267982057,
0.040498753117206986,0.03470921411802647,
0.04054862842892768,0.03575648381569304,
0.04059850374064838,0.031780070350473255,
0.04064837905236908,-0.002543986339241161,
0.040698254364089775,0.005828479238317877,
0.04074812967581047,0.01786890498983863,
0.040798004987531174,0.014252655458983509,
0.04084788029925187,0.03198601430574972,
0.040897755610972565,0.035252777943473215,
0.04094763092269327,0.002578289578564281,
0.04099750623441396,0.04139163227944352,
0.041047381546134666,0.027870602175183903,
0.04109725685785536,0.03962159308847947,
0.04114713216957606,0.05728497823129072,
0.04119700748129676,0.019020170353867126,
0.041246882793017456,0.007011947530417579,
0.04129675810473815,-0.006611501195889276,
0.041346633416458854,0.03694427450634379,
0.04139650872817955,0.032054965553328256,
0.04144638403990025,0.03323404918718731,
0.04149625935162095,0.02823481100183713,
0.041546134663341644,0.02213862029268858,
0.04159600997506235,0.03974131803526449,
0.04164588528678304,0.00385399508835705,
0.04169576059850374,0.012791464897409194,
0.04174563591022444,0.008390916492457434,
0.041795511221945136,0.02849907767389473,
0.04184538653366583,0.01891052782728698,
0.041895261845386535,0.011593619821152186,
0.04194513715710723,0.028539123225711584,
0.04199501246882793,0.01645949291144845,
0.04204488778054863,0.0039705295987331295,
0.042094763092269324,0.011343245012917674,
0.04214463840399003,0.01960418000017743,
0.04219451371571072,0.01401155759183012,
0.04224438902743142,0.02617863297291459,
0.04229426433915212,0.00903313475863297,
0.04234413965087282,-0.004587647424457296,
0.04239401496259352,0.012776171607145021,
0.042443890274314215,0.004133948011732801,
0.04249376558603491,0.018529186105810027,
0.042543640897755614,0.013701403814936609,
0.04259351620947631,0.041983853825821024,
0.042643391521197005,-0.009232718528149012,
0.04269326683291771,0.021183162887670193,
0.0427431421446384,0.013498984284026905,
0.0427930174563591,0.022438139542476136,
0.0428428927680798,0.014887955375854741,
0.0428927680798005,0.004602556518254593,
0.0429426433915212,-0.012722279926755804,
0.042992518703241896,0.04325902076391371,
0.04304239401496259,0.005114028029632983,
0.043092269326683294,0.03344399374951676,
0.04314214463840399,0.016439134958749525,
0.043192019950124685,0.024719330472069347,
0.04324189526184539,0.01966539464123787,
0.043291770573566084,-0.016069986390402972,
0.043341645885286786,0.02927936420028674,
0.04339152119700748,0.03463493712070369,
0.04344139650872818,-0.00432120594316503,
0.04349127182044888,0.00819017377872164,
0.043541147132169576,0.011042855882134887,
0.04359102244389027,0.012241510361605378,
0.043640897755610975,0.03223260788922298,
0.04369077306733167,0.035225294297647584,
0.043740648379052366,0.02528545203868127,
0.04379052369077307,0.018685823253754206,
0.043840399002493764,-0.004849858957870922,
0.04389027431421447,0.026324412222916017,
0.04394014962593516,0.010625865851336187,
0.04399002493765586,-0.00425139537001403,
0.04403990024937656,0.032224859071330395,
0.04408977556109726,0.023717441178016406,
0.04413965087281795,0.0035688384882611064,
0.044189526184538655,0.025353752073126762,
0.04423940149625935,-0.00626049100991065,
0.04428927680798005,0.002372968913740838,
0.04433915211970075,0.018597850074593514,
0.044389027431421445,0.02584434090336307,
0.04443890274314215,0.011783219593960248,
0.04448877805486284,0.03152634114994563,
0.04453865336658354,0.004791057752953204,
0.04458852867830424,0.048147281856226146,
0.04463840399002494,0.017516951956132735,
0.04468827930174563,0.03403249122739316,
0.044738154613466335,-0.021460728491288262,
0.04478802992518703,-0.0070934148409160045,
0.044837905236907734,0.02849254487149186,
0.04488778054862843,0.01279139842326536,
0.044937655860349125,-0.01421002052641814,
0.04498753117206983,-0.02518666112142849,
0.045037406483790524,-0.011017717027452568,
0.04508728179551122,0.01898819890378528,
0.04513715710723192,0.011852694534640247,
0.04518703241895262,0.0023755806584196204,
0.04523690773067331,0.014632562988106446,
0.045286783042394016,0.013365093740306857,
0.04533665835411471,-0.02738738099650641,
0.045386533665835414,0.03796075993574674,
0.04543640897755611,-0.004535337852490068,
0.045486284289276806,0.029134675354588205,
0.04553615960099751,0.028703420160250334,
0.045586034912718204,0.020902975465898116,
0.0456359102244389,0.012758868879261673,
0.0456857855361596,-0.0025588397290035227,
0.0457356608478803,0.01593433267861977,
0.045785536159601,0.004975659014136032,
0.045835411471321696,0.01226849863952531,
0.04588528678304239,0.009163324216999082,
0.045935162094763095,0.019916690008714242,
0.04598503740648379,0.00944156689581512,
0.046034912718204486,-0.026231551221603824,
0.04608478802992519,-0.009351724716051578,
0.046134663341645885,0.00839228106294798,
0.04618453865336658,0.02624916571865847,
0.04623441396508728,0.00513959493208303,
0.04628428927680798,-0.0034258012000835266,
0.04633416458852868,-0.0057343573327733564,
0.04638403990024938,0.012206128884628306,
0.04643391521197007,0.010174993197980396,
0.046483790523690775,0.021896791747663843,
0.04653366583541147,-0.012793574713473602,
0.04658354114713217,-0.013837100564849094,
0.04663341645885287,-0.0090887394183453,
0.046683291770573565,-0.021265567135949105,
0.04673316708229427,-0.020525738497143335,
0.04678304239401496,-0.0017491990630658974,
0.04683291770573566,0.009374612082512307,
0.04688279301745636,-0.011483273197188806,
0.04693266832917706,-0.024822296273739088,
0.04698254364089775,0.003996496058821627,
0.047032418952618456,-0.0066219797988937,
0.04708229426433915,-0.01743743289747518,
0.04713216957605985,0.004812966005793045,
0.04718204488778055,-0.02369359684716405,
0.047231920199501246,-0.026582609941823106,
0.04728179551122195,-0.036195390560748275,
0.047331670822942644,0.003509803646149396,
0.04738154613466334,-0.010187322446765956,
0.04743142144638404,-0.00013659944761931948,
0.04748129675810474,0.014009818101119897,
0.047531172069825434,-0.01701098910639214,
0.047581047381546136,-0.02648327589995114,
0.04763092269326683,-0.024041755619792767,
0.047680798004987535,-0.011951548686816265,
0.04773067331670823,-0.0009229686636764321,
0.047780548628428926,0.008908029551360903,
0.04783042394014963,0.005319886222991645,
0.047880299251870324,-0.01390052358681444,
0.04793017456359102,-0.011722709336747322,
0.04798004987531172,-0.01200665726468024,
0.04802992518703242,-0.010210659580839134,
0.048079800498753114,-0.0016354290645172898,
0.04812967581047382,0.025996170446925444,
0.04817955112219451,0.005439989165420359,
0.048229426433915215,-0.0010272845898859975,
0.04827930174563591,0.007314636182337762,
0.048329177057356607,0.006566926307039481,
0.04837905236907731,-0.04214552093920073,
0.048428927680798005,-0.0178554946306397,
0.0484788029925187,-0.01629809108167334,
0.0485286783042394,-0.030221737662212235,
0.0485785536159601,-0.015813632877883118,
0.048628428927680795,-0.009423735849894373,
0.0486783042394015,-0.003712393764303816,
0.04872817955112219,-0.019051790353503264,
0.048778054862842896,-0.015020324990954799,
0.04882793017456359,-0.03801594445377596,
0.04887780548628429,-0.015389730809275002,
0.04892768079800499,-0.029263798373958358,
0.048977556109725685,-0.031521859585404335,
0.04902743142144638,-0.021176016215389254,
0.049077306733167084,-0.008835994714326044,
0.04912718204488778,-0.025244051687104842,
0.04917705735660848,-0.006841064038938351,
0.04922693266832918,-0.04008707143940929,
0.04927680798004987,0.002685346560859435,
0.049326683291770576,-0.025223800999738165,
0.04937655860349127,-0.001533955026077307,
0.04942643391521197,-0.013936258896834579,
0.04947630922693267,-0.015437238174036323,
0.049526184538653366,-0.0405749647697166,
0.04957605985037406,-0.034785930360062785,
0.049625935162094764,0.0007481788836399654,
0.04967581047381546,-0.025796693596137742,
0.04972568578553616,-0.0006629321027542268,
0.04977556109725686,-0.04297033606964517,
0.049825436408977554,-0.04838144035770537,
0.04987531172069826,-0.02022117699729928,
0.04992518703241895,-0.029311277065266157,
0.04997506234413965,-0.03176396709430324,
0.05002493765586035,-0.03328835918546117,
0.050074812967581046,-0.008796731765280553,
0.05012468827930175,-0.0016334362742846942,
0.050174563591022445,-0.026781288736915966,
0.05022443890274314,-0.00959901570729715,
0.05027431421446384,-0.03919362503453482,
0.05032418952618454,0.005593345874325237,
0.050374064837905234,-0.04649275342539336,
0.05042394014962594,-0.03304800905447433,
0.05047381546134663,-0.009702469634793633,
0.05052369077306733,0.01325507517478982,
0.05057356608478803,-0.04422620534977601,
0.05062344139650873,-0.016348983974305186,
0.05067331670822943,-0.03590889632501483,
0.050723192019950125,-0.05673799079756313,
0.05077306733167082,0.016184017683269707,
0.050822942643391524,-0.01735997692475773,
0.05087281795511222,-0.011910144633008556,
0.050922693266832915,-0.03566372654836761,
0.05097256857855362,-0.025503866676575827,
0.05102244389027431,0.000685129375048981,
0.051072319201995016,-0.013086477868895741,
0.05112219451371571,-0.006903918694619454,
0.05117206982543641,-0.023219655240410225,
0.05122194513715711,-0.03434678204213713,
0.051271820448877806,-0.03661164711165353,
0.0513216957605985,-0.011703254984448836,
0.051371571072319204,-0.025344271904125946,
0.0514214463840399,-0.018554983919291206,
0.051471321695760595,-0.031411563580127685,
0.0515211970074813,-0.011018885335758675,
0.051571072319201994,0.0029561617848137163,
0.051620947630922696,-0.033144945029385336,
0.05167082294264339,-0.026440686864391834,
0.05172069825436409,-0.005374390239519003,
0.05177057356608479,-0.02383724579442936,
0.051820448877805486,-0.012699835914369772,
0.05187032418952618,-0.01540227641172677,
0.051920199501246884,-0.0019053166288804813,
0.05197007481296758,-0.01871519168481446,
0.052019950124688276,-0.008385295680210717,
0.05206982543640898,-0.029407953891860794,
0.052119700748129674,-0.024071677953320138,
0.05216957605985038,-0.02366126266206115,
0.05221945137157107,-0.03811693423499768,
0.05226932668329177,0.006060023616678895,
0.05231920199501247,-0.016541433021693218,
0.05236907730673317,0.0030940539855063183,
0.05241895261845386,-0.006354750966768721,
0.052468827930174565,-0.007152663802121113,
0.05251870324189526,-0.00917518327501999,
0.05256857855361596,-0.024076992388777856,
0.05261845386533666,0.0018938599858254693,
0.052668329177057355,-0.012453730661964845,
0.05271820448877806,0.0009465643415754628,
0.05276807980049875,-0.02031571545093455,
0.05281795511221945,-0.005398583688678709,
0.05286783042394015,-0.017083092550866683,
0.05291770573566085,-0.03771510605903802,
0.05296758104738154,-0.02239762555778344,
0.053017456359102245,-0.027429639504700426,
0.05306733167082294,-0.005235646314147297,
0.053117206982543644,-0.018506509866857614,
0.05316708229426434,-0.007244946052004066,
0.053216957605985035,-0.015580401804886427,
0.05326683291770574,-0.014837854992928053,
0.053316708229426434,0.01707818989115854,
0.05336658354114713,-0.023730312656390057,
0.05341645885286783,-0.01424843662722982,
0.05346633416458853,0.00538763007638637,
0.05351620947630923,-0.017420487769400424,
0.053566084788029926,-0.022428034678508027,
0.05361596009975062,-0.0040079642896302,
0.053665835411471324,0.0019257665882454408,
0.05371571072319202,0.0014297534514931525,
0.053765586034912716,0.000445150632847802,
0.05381546134663342,-0.03295817879277778,
0.053865336658354114,0.000248317163086478,
0.05391521197007481,-0.005137757623620586,
0.05396508728179551,-0.03291189117095375,
0.05401496259351621,-0.017851070036531386,
0.05406483790523691,-0.03248070292802749,
0.054114713216957606,-0.011320435400640668,
0.0541645885286783,-0.03909866229243206,
0.054214463840399005,-0.029171626399162397,
0.0542643391521197,-0.024862865043971054,
0.054314214463840396,-0.00437908373456611,
0.0543640897755611,-0.0074027802259293615,
0.054413965087281795,0.024022826448590332,
0.0544638403990025,9.743374755218429e-05,
0.05451371571072319,-0.008483141971878681,
0.05456359102244389,0.010393351919921275,
0.05461346633416459,-0.03271128722914806,
0.05466334164588529,0.010731803923637599,
0.05471321695760598,-0.014899991939201648,
0.054763092269326685,0.00030001678995519,
0.05481296758104738,0.006812984908864321,
0.05486284289276808,-0.005421558868758042,
0.05491271820448878,-0.0015598163861503095,
0.054962593516209475,0.01938220609794473,
0.05501246882793018,-0.005187950927023747,
0.05506234413965087,-0.015284597637187643,
0.05511221945137157,0.0026287954127136364,
0.05516209476309227,-0.022839704133025156,
0.05521197007481297,0.0030859569205993792,
0.05526184538653366,0.0019175592820159743,
0.055311720698254366,0.05161016448589586,
0.05536159600997506,-0.006733141511428691,
0.05541147132169576,-0.0036321958393879267,
0.05546134663341646,0.008289878167473041,
0.055511221945137156,-0.019527339680605715,
0.05556109725685786,-0.005460372904019042,
0.055610972568578554,0.02061715223535663,
0.05566084788029925,0.035447785820395115,
0.05571072319201995,-0.012596148815988115,
0.05576059850374065,-0.0015738451428525839,
0.055810473815461344,-0.017305713364535,
0.055860349127182046,0.010209035591750243,
0.05591022443890274,-0.022616156350295374,
0.055960099750623445,0.01967759865309103,
0.05600997506234414,-0.00736517958375775,
0.056059850374064836,0.024618853343364014,
0.05610972568578554,-0.004977193595190431,
0.056159600997506234,0.004806650783082712,
0.05620947630922693,-0.013480529449480132,
0.05625935162094763,0.015829067436892667,
0.05630922693266833,0.01098671185815803,
0.056359102244389024,0.005357471500481968,
0.05640897755610973,-0.0161255635227444,
0.05645885286783042,0.02479267257285521,
0.056508728179551125,0.008675364580196463,
0.05655860349127182,0.01939431999018784,
0.056608478802992516,-0.013556489641881851,
0.05665835411471322,0.012278637367244204,
0.056708229426433915,0.012858560188696126,
0.05675810473815461,0.007057203760863873,
0.05680798004987531,0.007832351311049306,
0.05685785536159601,-0.00026206623297878734,
0.05690773067331671,0.045154104463456565,
0.05695760598503741,0.0016840720434714695,
0.0570074812967581,0.0023434396725751615,
0.057057356608478806,0.023843849077059658,
0.0571072319201995,0.006954049165694737,
0.0571571072319202,0.013838413699570713,
0.0572069825436409,0.012874234105326026,
0.057256857855361595,0.02371237995055486,
0.05730673316708229,0.027468787696981273,
0.057356608478802994,-0.009194449869566303,
0.05740648379052369,0.024063042104943186,
0.05745635910224439,0.03198141620365383,
0.05750623441396509,0.021582428017133035,
0.05755610972568578,0.009961542725289098,
0.057605985037406486,0.01419367080758674,
0.05765586034912718,0.04174879975389762,
0.05770573566084788,0.00776566525099102,
0.05775561097256858,0.0019450851174137047,
0.057805486284289276,0.0136289301519242,
0.05785536159600998,0.027291183637513344,
0.057905236907730674,0.016669949462136586,
0.05795511221945137,0.007785048394393482,
0.05800498753117207,0.03352287684214394,
0.05805486284289277,0.027147028226918717,
0.058104738154613464,0.011095340274388308,
0.05815461346633417,0.016822002567854225,
0.05820448877805486,0.01487613746899282,
0.05825436408977556,0.044242142480232546,
0.05830423940149626,0.03525223644708967,
0.058354114713216956,0.04570064197182201,
0.05840399002493766,0.016601763740120665,
0.058453865336658355,0.027198811354712277,
0.05850374064837905,0.008552425277125903,
0.05855361596009975,0.0038492178852001686,
0.05860349127182045,-0.011389929798475761,
0.058653366583541144,0.015220740270689911,
0.05870324189526185,0.0008825820555441038,
0.05875311720698254,0.007480980066932772,
0.05880299251870324,0.044054161766706394,
0.05885286783042394,0.0319648169329578,
0.05890274314214464,0.04818435191625864,
0.05895261845386534,0.050546281652167645,
0.059002493765586035,0.01386255204566483,
0.05905236907730673,0.001048337830836861,
0.059102244389027433,0.011332167808031996,
0.05915211970074813,0.006932968870562361,
0.059201995012468825,0.03550151225822579,
0.05925187032418953,0.016558698246417446,
0.05930174563591022,0.023483223281331417,
0.059351620947630926,0.038985966654711615,
0.05940149625935162,0.019305734348924602,
0.05945137157107232,0.03795874470670918,
0.05950124688279302,0.018487989136595048,
0.059551122194513716,-0.002510107526741495,
0.05960099750623441,0.043358983187881214,
0.059650872817955114,0.03636615502733042,
0.05970074812967581,0.016728270186937275,
0.059750623441396505,0.034099723323500475,
0.05980049875311721,-0.005094362797085326,
0.059850374064837904,0.04367959004744225,
0.059900249376558606,0.02610615635167283,
0.0599501246882793,0.02990133427051276,
0.06,0.028227306607031214,
0.0600498753117207,-0.01691171744900493,
0.060099750623441396,0.006692105340490195,
0.06014962593516209,0.04033511131128917,
0.060199501246882794,0.011273969643414,
0.06024937655860349,0.03251551631454637,
0.06029925187032419,0.003910443760872007,
0.06034912718204489,0.0021393073491139426,
0.060399002493765584,0.011052241146655012,
0.06044887780548629,0.026546108172920028,
0.06049875311720698,0.04697155349226457,
0.06054862842892768,0.02320148923300103,
0.06059850374064838,0.040939087203932606,
0.06064837905236908,0.001906524444543714,
0.06069825436408977,0.015732945226526546,
0.060748129675810475,0.020656180793508755,
0.06079800498753117,0.01084379381078999,
0.06084788029925187,0.024532034124696206,
0.06089775561097257,-0.0017775984066655884,
0.060947630922693265,-0.007231596358726642,
0.06099750623441397,0.028789949928126005,
0.06104738154613466,0.02625466474257088,
0.06109725685785536,0.0258225957003674,
0.06114713216957606,0.04506229726918072,
0.06119700748129676,0.028156455869012206,
0.06124688279301746,0.02175277984436383,
0.061296758104738155,0.01706011542083418,
0.06134663341645885,0.02795903744860507,
0.061396508728179554,0.039012830327011715,
0.06144638403990025,0.04230190938572469,
0.061496259351620945,0.02825454770746848,
0.06154613466334165,0.006942723697005396,
0.061596009975062344,0.023079513769222373,
0.06164588528678304,-0.004854975094977749,
0.06169576059850374,0.008596762650484598,
0.06174563591022444,0.01920415504043185,
0.06179551122194514,0.015051870798193086,
0.061845386533665836,0.011400710098333133,
0.06189526184538653,-0.0001238195637902409,
0.061945137157107234,0.02380162729550574,
0.06199501246882793,0.047015516280234634,
0.062044887780548626,0.008785128615121157,
0.06209476309226933,0.031759006004372675,
0.062144638403990024,0.05289186151148628,
0.06219451371571072,0.0013662108882116879,
0.06224438902743142,0.017985733593334954,
0.06229426433915212,0.03063331739898897,
0.06234413965087282,0.02370934767398476,
0.062394014962593516,0.014538828649896968,
0.06244389027431421,-0.008481876298485406,
0.062493765586034915,0.03039954022020551,
0.06254364089775562,0.04458881626271422,
0.06259351620947631,0.027634512697445615,
0.06264339152119701,0.017531710045523494,
0.0626932668329177,0.055957146144946,
0.0627431421446384,0.012278398169237117,
0.0627930174563591,0.039208093481214644,
0.0628428927680798,0.04507622341113819,
0.0628927680798005,0.014544586153709634,
0.0629426433915212,0.0027088404406950643,
0.06299251870324189,0.02243779614305844,
0.06304239401496259,0.015069379662304904,
0.0630922693266833,0.03003646379107531,
0.063142144638404,0.022788873879813064,
0.06319201995012469,0.02144164899712973,
0.06324189526184539,0.046663558817638624,
0.06329177057356608,0.04833923500609602,
0.06334164588528678,0.04073055635702093,
0.06339152119700749,-0.015505150950061507,
0.06344139650872818,0.027569884272026068,
0.06349127182044888,0.004104748759286526,
0.06354114713216957,0.0238504103639914,
0.06359102244389027,0.020128596739767784,
0.06364089775561098,0.015688896523957274,
0.06369077306733167,0.0007715687985705953,
0.06374064837905237,0.04481967664637779,
0.06379052369077307,-0.014839229031065819,
0.06384039900249376,0.02533499777620921,
0.06389027431421446,0.02305579681787824,
0.06394014962593517,-0.007792388254248515,
0.06399002493765586,0.004947221691032171,
0.06403990024937656,0.010895684872364728,
0.06408977556109725,0.030490954383686368,
0.06413965087281795,-2.366751303304465e-05,
0.06418952618453866,0.010005953808664904,
0.06423940149625935,-0.0004533615058946658,
0.06428927680798005,0.013138881614681408,
0.06433915211970075,0.006478866630071332,
0.06438902743142144,0.051593185881808376,
0.06443890274314215,0.010203089148455658,
0.06448877805486285,0.017752514651685012,
0.06453865336658354,0.0031337556487650454,
0.06458852867830424,0.014092184088248961,
0.06463840399002493,0.017881804882915825,
0.06468827930174563,-0.006941104504230749,
0.06473815461346634,0.013937865070825386,
0.06478802992518704,0.03405691483917947,
0.06483790523690773,0.005710927915441885,
0.06488778054862843,-0.00610246784075202,
0.06493765586034912,0.016045581769217672,
0.06498753117206983,-0.012670159771224081,
0.06503740648379053,0.021169341440000065,
0.06508728179551122,0.015410218097007796,
0.06513715710723192,0.0054776876028902735,
0.06518703241895261,0.0019101521869066473,
0.06523690773067331,0.009460097952331355,
0.06528678304239402,0.008748755408591376,
0.06533665835411472,0.020499412740094387,
0.06538653366583541,0.01814608526374299,
0.06543640897755611,0.04826079393967124,
0.0654862842892768,-0.018257577676502393,
0.06553615960099751,-0.015269088803214578,
0.06558603491271821,0.011980299854918696,
0.0656359102244389,-0.016125799377380446,
0.0656857855361596,0.009475459583230709,
0.0657356608478803,0.0015823097864096072,
0.06578553615960099,0.02030523959632799,
0.0658354114713217,0.0011506333254008572,
0.0658852867830424,0.011330973203407403,
0.06593516209476309,0.007635485110846146,
0.06598503740648379,-0.002385415080945392,
0.06603491271820448,0.009409177413897041,
0.06608478802992519,0.02111669216059553,
0.06613466334164589,0.005205035234627465,
0.06618453865336658,-0.006002271554437243,
0.06623441396508728,0.01724768528272621,
0.06628428927680798,-0.017479153976240714,
0.06633416458852869,0.02211202331077334,
0.06638403990024938,-0.019061223712133254,
0.06643391521197008,-0.008770535416629283,
0.06648379052369077,0.016922316722180197,
0.06653366583541147,-0.004990880508775157,
0.06658354114713216,0.008436584449369875,
0.06663341645885287,0.00013450308024790637,
0.06668329177057357,-0.018128723338506986,
0.06673316708229426,-0.015470599206049731,
0.06678304239401496,-0.012929695322639274,
0.06683291770573566,-0.015731275293307104,
0.06688279301745637,-0.012170595565998251,
0.06693266832917706,0.020457799318731033,
0.06698254364089776,-0.003433038069193312,
0.06703241895261845,-0.02195055247303494,
0.06708229426433915,0.0019931040426330324,
0.06713216957605984,0.009505588629003097,
0.06718204488778055,-0.003387668448781217,
0.06723192019950125,-0.0069867687476073935,
0.06728179551122195,-0.019807347546445673,
0.06733167082294264,0.01907599985576646,
0.06738154613466334,0.008292697256082483,
0.06743142144638405,-0.0005866868727821446,
0.06748129675810474,-0.011721838916293342,
0.06753117206982544,-0.010420428041514518,
0.06758104738154613,0.0026642077107671847,
0.06763092269326683,-0.013740213657770596,
0.06768079800498752,0.0012251342069541935,
0.06773067331670823,0.0013575649578302026,
0.06778054862842893,-0.018927622979900954,
0.06783042394014963,-0.009599284781194959,
0.06788029925187032,-0.0025759379329257873,
0.06793017456359102,0.0016792871543545524,
0.06798004987531173,-0.014676185322483996,
0.06802992518703242,0.004032611140870627,
0.06807980049875312,0.001789621279174646,
0.06812967581047381,-0.012635086844426827,
0.06817955112219451,-0.011708871242459425,
0.0682294264339152,-0.008150805072848839,
0.06827930174563591,-0.015586450668225591,
0.06832917705735661,-0.03217052334406849,
0.0683790523690773,-0.007635000736108639,
0.068428927680798,0.016403080115335485,
0.0684788029925187,-0.0012387866743678849,
0.06852867830423941,0.015452751958921027,
0.0685785536159601,-0.03871239611294991,
0.0686284289276808,0.005775701764972829,
0.0686783042394015,0.003749617467975504,
0.06872817955112219,-0.0066366710649749605,
0.0687780548628429,-0.022036780255543495,
0.0688279301745636,-0.026031893353017085,
0.06887780548628429,-0.029949240365487635,
0.06892768079800499,-0.02443458757704681,
0.06897755610972568,-0.0025721498463058597,
0.06902743142144638,-0.00026652326182029056,
0.06907730673316709,-0.003651941654668346,
0.06912718204488778,-0.002079306346137089,
0.06917705735660848,-0.016981731037087857,
0.06922693266832917,-0.01893386181566145,
0.06927680798004987,-0.031265563016905216,
0.06932668329177058,-0.030169156794261583,
0.06937655860349128,-0.005151042710860335,
0.06942643391521197,-0.03421056511372561,
0.06947630922693267,-0.020037464535066524,
0.06952618453865336,-0.01580007315302499,
0.06957605985037406,-0.01627188021512239,
0.06962593516209477,-0.030093394847495406,
0.06967581047381546,-0.021904222259430343,
0.06972568578553616,0.002061799022642816,
0.06977556109725686,-0.02710165207113792,
0.06982543640897755,-0.017674365946287372,
0.06987531172069826,0.007115120948539555,
0.06992518703241896,-0.012553454345141721,
0.06997506234413965,-0.006110976367869471,
0.07002493765586035,-0.0047996903257718545,
0.07007481296758104,-0.03635824811605681,
0.07012468827930174,-0.021653282868632676,
0.07017456359102245,-0.009207749755945002,
0.07022443890274314,0.00755372840255043,
0.07027431421446384,-0.010797121458430089,
0.07032418952618454,-0.005688081941625234,
0.07037406483790523,-0.007840657479321838,
0.07042394014962594,-0.003823103790718735,
0.07047381546134664,-0.02812202876034036,
0.07052369077306733,-0.02206109692619973,
0.07057356608478803,-0.026581043091745686,
0.07062344139650872,-0.014693755544608349,
0.07067331670822943,-0.01005880069925294,
0.07072319201995013,-0.008627345508462917,
0.07077306733167082,-0.026817987952889262,
0.07082294264339152,-0.017103151603243678,
0.07087281795511222,-0.024066108775736256,
0.07092269326683291,-0.04424128267274574,
0.07097256857855362,-0.031732059762779055,
0.07102244389027432,-0.022920484714438145,
0.07107231920199501,-0.04423890326130269,
0.07112219451371571,0.00633674914618009,
0.0711720698254364,-0.01927011123046784,
0.07122194513715711,-0.013289342842253443,
0.07127182044887781,0.009152292100251473,
0.0713216957605985,0.0010553732865063465,
0.0713715710723192,-0.019319108336341442,
0.0714214463840399,-0.005107450588258847,
0.07147132169576059,-0.008518639516383224,
0.0715211970074813,-0.025058832535285694,
0.071571072319202,-0.026209995109848498,
0.0716209476309227,-0.017477023297669873,
0.07167082294264339,-0.02099616844838892,
0.07172069825436408,-0.017715646258632076,
0.0717705735660848,-0.002598048722270506,
0.07182044887780549,-0.020729965329678034,
0.07187032418952619,-0.001331895172336995,
0.07192019950124688,0.01786717368588393,
0.07197007481296758,0.0043391719287692275,
0.07201995012468827,-0.017161113249661252,
0.07206982543640898,-0.04262144033554856,
0.07211970074812968,-0.0023347808617380384,
0.07216957605985037,-0.028462584032811787,
0.07221945137157107,-0.01679254462007378,
0.07226932668329177,0.005279861434593993,
0.07231920199501247,-0.01695473598403959,
0.07236907730673317,-0.016479116337297928,
0.07241895261845387,-0.013187383251370597,
0.07246882793017456,-0.026783093833417197,
0.07251870324189526,-0.03799373716688316,
0.07256857855361595,-0.02005602165660149,
0.07261845386533666,-0.0067756041472866275,
0.07266832917705736,-0.02173845028308935,
0.07271820448877805,0.006210366934938569,
0.07276807980049875,-0.02928196735630626,
0.07281795511221945,0.0031959717914396765,
0.07286783042394016,0.021086611021661258,
0.07291770573566085,0.0010531727476866572,
0.07296758104738155,-0.0024281366141561365,
0.07301745635910224,-0.017333509584447567,
0.07306733167082294,-0.028769767931986257,
0.07311720698254365,-0.010711227183820069,
0.07316708229426434,-0.00806385046662557,
0.07321695760598504,-0.04154593007021014,
0.07326683291770573,-0.01563414997119523,
0.07331670822942643,-0.013536040785005012,
0.07336658354114713,-0.02585975449948899,
0.07341645885286784,-0.0025122788875678193,
0.07346633416458853,-0.022537897556444773,
0.07351620947630923,-0.011670248332605118,
0.07356608478802992,-0.006086048559419096,
0.07361596009975062,0.006894316092685174,
0.07366583541147133,0.008746348044223846,
0.07371571072319202,-0.006211232246412081,
0.07376558603491272,0.00937795722658549,
0.07381546134663342,-0.01949146431011799,
0.07386533665835411,-0.024510946385241726,
0.0739152119700748,0.013278370072936144,
0.07396508728179552,0.007826538358374296,
0.07401496259351621,-0.025092790433429938,
0.07406483790523691,-0.0008748235999953002,
0.0741147132169576,-0.004427065236415491,
0.0741645885286783,-0.02135046946988247,
0.07421446384039901,0.0024415900739806207,
0.0742643391521197,-0.012791162991233535,
0.0743142144638404,-0.014603676535225187,
0.0743640897755611,0.02086102290071051,
0.07441396508728179,0.0137001656608721,
0.07446384039900249,0.010314811577692587,
0.0745137157107232,0.006838328191756167,
0.07456359102244389,0.011428729108452815,
0.07461346633416459,-0.015299408102675108,
0.07466334164588528,-0.01346059630305783,
0.07471321695760598,0.027506764430462988,
0.07476309226932669,0.009853312068175083,
0.07481296758104738,0.018738869647477317,
0.07486284289276808,-0.011873223492069002,
0.07491271820448878,-0.02607503125060573,
0.07496259351620947,-0.027156599132567075,
0.07501246882793017,-0.02931323912100746,
0.07506234413965088,-0.022813519103725626,
0.07511221945137157,0.0003998766053423394,
0.07516209476309227,-0.005865281882493949,
0.07521197007481296,-0.0007386861568876189,
0.07526184538653366,-0.015023199497048272,
0.07531172069825437,-0.0006098551161660124,
0.07536159600997507,0.013729124952753035,
0.07541147132169576,0.00879448341465096,
0.07546134663341646,0.019868711587567423,
0.07551122194513715,0.020721615721016863,
0.07556109725685786,0.009178692791455407,
0.07561097256857856,-0.014581139596865406,
0.07566084788029925,-0.0021928429109719337,
0.07571072319201995,-0.003815077337603173,
0.07576059850374064,-0.0024894544786950483,
0.07581047381546134,-0.010280498446769029,
0.07586034912718205,0.007727281515092407,
0.07591022443890275,0.0023431967743608247,
0.07596009975062344,0.01365648050621988,
0.07600997506234414,-0.002396123027299645,
0.07605985037406483,-0.013272020996724043,
0.07610972568578554,-0.0021395411937878573,
0.07615960099750624,-0.0037011837438201203,
0.07620947630922693,-0.0033411919993592267,
0.07625935162094763,-0.003011371375467387,
0.07630922693266833,0.01873148210331295,
0.07635910224438902,0.0005826125660033099,
0.07640897755610973,-0.0016114223433810436,
0.07645885286783043,0.02048459703905766,
0.07650872817955112,0.022936474292593545,
0.07655860349127182,0.00786722827140482,
0.07660847880299251,0.01837140886485608,
0.07665835411471322,0.007233620652972483,
0.07670822942643392,0.007134204673026091,
0.07675810473815461,0.0071442324227501824,
0.07680798004987531,0.02828760321459452,
0.076857855361596,0.030941184668045036,
0.0769077306733167,0.01918545009097057,
0.07695760598503741,0.026991793793277444,
0.0770074812967581,0.016690133285726425,
0.0770573566084788,0.01647170595755203,
0.0771072319201995,-0.01930477501445329,
0.0771571072319202,0.01092617608052399,
0.0772069825436409,0.022523177969973142,
0.0772568578553616,0.007461483846031319,
0.0773067331670823,-0.014310676929981534,
0.07735660847880299,0.038081025151898845,
0.07740648379052369,0.01069515988526417,
0.0774563591022444,0.02855636856416537,
0.07750623441396509,0.02113443558508244,
0.07755610972568579,0.0020155451128905447,
0.07760598503740648,0.021839412450245836,
0.07765586034912718,0.005442926368385762,
0.07770573566084787,0.016736655190014868,
0.07775561097256858,0.02489622602807698,
0.07780548628428928,0.014370976140120145,
0.07785536159600998,0.005385784640984801,
0.07790523690773067,0.004739724973140704,
0.07795511221945137,0.042694958681266,
0.07800498753117208,0.026505027807036667,
0.07805486284289277,0.025207271785506462,
0.07810473815461347,0.03687349429847425,
0.07815461346633416,0.01434043552414368,
0.07820448877805486,0.03279428949585728,
0.07825436408977555,0.016741208262427986,
0.07830423940149626,0.0489893912983035,
0.07835411471321696,0.018212354659762384,
0.07840399002493766,0.04472446812277486,
0.07845386533665835,0.03673355080499745,
0.07850374064837905,0.02443676318676443,
0.07855361596009976,0.03934008589505938,
0.07860349127182045,0.0458034375677368,
0.07865336658354115,0.019650785908388216,
0.07870324189526184,0.026777035936609905,
0.07875311720698254,0.05030828346685953,
0.07880299251870324,0.02266661984556841,
0.07885286783042394,0.01818167087658653,
0.07890274314214464,0.025382164171135754,
0.07895261845386534,0.008828364758214005,
0.07900249376558603,0.031385235662309365,
0.07905236907730673,0.006554195576609228,
0.07910224438902744,0.058018207224159415,
0.07915211970074813,0.05160731587237634,
0.07920199501246883,0.014533663800094644,
0.07925187032418952,0.027016352094686478,
0.07930174563591022,0.00017147588750600698,
0.07935162094763092,0.0333176790565768,
0.07940149625935163,0.03285468906637282,
0.07945137157107232,-0.01978964947235115,
0.07950124688279302,0.014526683442265376,
0.07955112219451371,0.04116456323697859,
0.07960099750623441,0.06294154649575527,
0.07965087281795512,0.026149919118171543,
0.07970074812967581,0.011385989460415444,
0.07975062344139651,0.02699517216989832,
0.0798004987531172,0.016391232553310847,
0.0798503740648379,0.03175900124624801,
0.07990024937655861,0.0022025669632093764,
0.0799501246882793,0.013066238512048802,
0.08,0.05214419199245644,
0.0800498753117207,0.020995554510545945,
0.0800997506234414,0.02697392554995679,
0.08014962593516209,0.028391355747764045,
0.0801995012468828,0.015087899801069917,
0.0802493765586035,0.01153375044672759,
0.08029925187032419,0.005850470788147998,
0.08034912718204489,0.0509508738399793,
0.08039900249376558,0.00839825574538429,
0.08044887780548629,0.03362037772556541,
0.08049875311720699,0.01782833079976482,
0.08054862842892768,0.01215148390184573,
0.08059850374064838,-7.275216300517418e-05,
0.08064837905236907,0.014738536101619066,
0.08069825436408977,0.03637839540240148,
0.08074812967581048,0.02426099215803947,
0.08079800498753117,0.01579761450348311,
0.08084788029925187,0.03788159187965638,
0.08089775561097257,-0.004651478900785221,
0.08094763092269326,0.016893461463545773,
0.08099750623441397,0.0004456296494937291,
0.08104738154613467,0.014054165313503097,
0.08109725685785536,0.01220461231234502,
0.08114713216957606,0.013717291939897467,
0.08119700748129675,0.035473904227674,
0.08124688279301745,0.019077618509992622,
0.08129675810473816,0.036157015074311356,
0.08134663341645886,0.008188479506953818,
0.08139650872817955,0.03780116861405597,
0.08144638403990025,0.05113652850844561,
0.08149625935162094,0.0237484477206252,
0.08154613466334165,0.010367318916387636,
0.08159600997506235,0.03903347754855781,
0.08164588528678304,0.029512629357871425,
0.08169576059850374,0.034916956640072626,
0.08174563591022443,0.00933157207247649,
0.08179551122194513,0.024445957203678648,
0.08184538653366584,0.022705302994809103,
0.08189526184538654,0.02369413600597301,
0.08194513715710723,0.01870807694432535,
0.08199501246882793,0.019449505488095636,
0.08204488778054862,0.022665383965793307,
0.08209476309226933,0.02453589758012638,
0.08214463840399003,0.021029457500574805,
0.08219451371571072,0.04921982570058109,
0.08224438902743142,0.032166528978076016,
0.08229426433915212,-0.01488415114641179,
0.08234413965087282,0.05434412575611351,
0.08239401496259352,-0.003167255959105216,
0.08244389027431422,0.03066268929998505,
0.08249376558603491,0.0521706331693588,
0.08254364089775561,0.03779721717489942,
0.0825935162094763,-0.0036398699963889995,
0.08264339152119701,0.018761161299882072,
0.08269326683291771,0.028423534973609797,
0.0827431421446384,0.0309729938014279,
0.0827930174563591,0.040589339584749876,
0.0828428927680798,0.034838983703650454,
0.0828927680798005,0.014585507791938372,
0.0829426433915212,0.03445782248298662,
0.0829925187032419,0.03930842928138048,
0.08304239401496259,0.010566016192237408,
0.08309226932668329,0.03220841976013688,
0.08314214463840398,0.04078326796816028,
0.0831920199501247,0.004111586193445749,
0.08324189526184539,0.03419389648345897,
0.08329177057356608,0.00889100560180427,
0.08334164588528678,0.0017167017797859417,
0.08339152119700748,0.034867464291765654,
0.08344139650872819,0.0310142656589871,
0.08349127182044888,0.038642687807601425,
0.08354114713216958,0.01251200041224241,
0.08359102244389027,0.020662771300995367,
0.08364089775561097,0.010657913145374544,
0.08369077306733166,-0.008116572484785693,
0.08374064837905237,0.005917103956703907,
0.08379052369077307,0.013525374286692544,
0.08384039900249377,0.0026060098019166297,
0.08389027431421446,0.007965205888646583,
0.08394014962593516,0.03855312073727252,
0.08399002493765587,0.0005794725969489462,
0.08403990024937656,0.01089729194519224,
0.08408977556109726,0.06075984224072771,
0.08413965087281795,0.013281918546260383,
0.08418952618453865,0.016589150965739596,
0.08423940149625936,0.00909124065361715,
0.08428927680798005,0.015276089346193946,
0.08433915211970075,0.012542590466090159,
0.08438902743142145,0.010464717897402017,
0.08443890274314214,0.003677683084258825,
0.08448877805486284,0.013458426520999676,
0.08453865336658355,0.006876582642353996,
0.08458852867830424,0.01953897973762178,
0.08463840399002494,0.0032430090438190264,
0.08468827930174563,0.021043627181511648,
0.08473815461346633,0.019223054660887588,
0.08478802992518704,0.01799555809817916,
0.08483790523690773,0.017760394186311403,
0.08488778054862843,0.02905664490281626,
0.08493765586034913,0.02635509020121919,
0.08498753117206982,0.030470653280331057,
0.08503740648379052,0.01309924908590803,
0.08508728179551123,-0.015113378946711931,
0.08513715710723192,0.04216817537974727,
0.08518703241895262,5.5135208138445274e-05,
0.08523690773067331,0.0032244689866903565,
0.08528678304239401,0.032630827789597826,
0.08533665835411472,-0.007553743924627616,
0.08538653366583542,-0.0028784947843981615,
0.08543640897755611,0.018191304774806422,
0.0854862842892768,0.028887020933589184,
0.0855361596009975,0.00412816815641616,
0.0855860349127182,0.03231162158328932,
0.08563591022443891,0.0019716037564197937,
0.0856857855361596,-0.00826905417457711,
0.0857356608478803,0.017766258939009356,
0.085785536159601,-0.010252209302624674,
0.08583541147132169,0.02335530187867657,
0.0858852867830424,0.019720949482523564,
0.0859351620947631,-0.0038702940323885986,
0.08598503740648379,0.019692450583390305,
0.08603491271820449,0.022578144346858984,
0.08608478802992518,0.015031490546110514,
0.08613466334164588,-0.018723270465190595,
0.08618453865336659,-0.0024150428869727453,
0.08623441396508728,0.0020943711217287064,
0.08628428927680798,-0.0008781536311727126,
0.08633416458852868,-0.00025974047891142967,
0.08638403990024937,-0.014857584413366327,
0.08643391521197008,0.01753018768501305,
0.08648379052369078,0.001306830540177275,
0.08653366583541147,-0.019417953030484505,
0.08658354114713217,0.00967840913103278,
0.08663341645885286,-0.014247143307592008,
0.08668329177057357,0.008056779123709343,
0.08673316708229427,0.006353782722491459,
0.08678304239401496,-0.01348448622298181,
0.08683291770573566,0.008013255992897962,
0.08688279301745636,0.01765172730642296,
0.08693266832917705,0.0049817942581866035,
0.08698254364089776,-0.0027964151356656476,
0.08703241895261846,0.013396640006662824,
0.08708229426433915,-0.019452011959314845,
0.08713216957605985,0.006194965580730609,
0.08718204488778054,-0.014476657815090693,
0.08723192019950125,-0.015299087810877299,
0.08728179551122195,-0.03574979906505204,
0.08733167082294264,-0.0018492947920588359,
0.08738154613466334,-0.008077315410718326,
0.08743142144638404,-0.0016660349460063393,
0.08748129675810473,-0.009771530013068373,
0.08753117206982544,0.03244440519616535,
0.08758104738154614,-0.007139701900220421,
0.08763092269326683,3.3812401069040644e-05,
0.08768079800498753,0.006358082850594621,
0.08773067331670822,-0.004858897409684634,
0.08778054862842893,0.01629518753796108,
0.08783042394014963,-0.012002504646970108,
0.08788029925187033,-0.014350978199281678,
0.08793017456359102,0.010336224737782104,
0.08798004987531172,-0.030287929074403305,
0.08802992518703241,0.00106390852364,
0.08807980049875312,-0.0011335959177614643,
0.08812967581047382,-0.006347066144000663,
0.08817955112219451,-0.019533591300348575,
0.08822942643391521,-0.012687227092819066,
0.0882793017456359,-0.013914838392790958,
0.08832917705735661,-0.01027441647577161,
0.08837905236907731,-0.02950535217319413,
0.088428927680798,-0.008838030687751283,
0.0884788029925187,0.0010699092776639742,
0.0885286783042394,-0.012124367381403513,
0.0885785536159601,-0.039072323647917184,
0.0886284289276808,0.005705482990611363,
0.0886783042394015,0.0032544458257241244,
0.0887281795511222,-0.005131815728568644,
0.08877805486284289,-0.008754556502312626,
0.08882793017456359,-0.010416748582906293,
0.0888778054862843,0.015323888611599817,
0.08892768079800499,0.017391627317725238,
0.08897755610972569,0.0038939705070832175,
0.08902743142144638,-0.04340086212350502,
0.08907730673316708,-0.002911693390725041,
0.08912718204488779,-0.02081424596790292,
0.08917705735660848,-0.001735075528365682,
0.08922693266832918,-0.010055787845861778,
0.08927680798004987,-0.009317972174643875,
0.08932668329177057,-0.018202247826856442,
0.08937655860349127,-0.028836881035256515,
0.08942643391521198,-0.009749340181430529,
0.08947630922693267,-0.005388126580320777,
0.08952618453865337,-0.010992048348957612,
0.08957605985037406,-0.01198711560664686,
0.08962593516209476,-0.00022098003506433074,
0.08967581047381547,-0.015559089839918787,
0.08972568578553616,0.012455625528839526,
0.08977556109725686,-0.0076758497048706395,
0.08982543640897755,-0.01960114710143971,
0.08987531172069825,-0.0014631277645769623,
0.08992518703241895,-0.004353406315035262,
0.08997506234413966,-0.004660009436374301,
0.09002493765586035,-0.028362942198852745,
0.09007481296758105,0.004238143662636827,
0.09012468827930174,-0.036050643351922804,
0.09017456359102244,-0.026466642649638723,
0.09022443890274315,-5.84880297569354e-05,
0.09027431421446384,-0.0019462396659892973,
0.09032418952618454,-0.02843243643967435,
0.09037406483790524,-0.01874349275632125,
0.09042394014962593,-0.017436823538583824,
0.09047381546134663,-0.002277127650423757,
0.09052369077306734,-0.007657627945595169,
0.09057356608478803,-0.020896770646116124,
0.09062344139650873,-0.029635042389080362,
0.09067331670822942,0.021615516616276795,
0.09072319201995012,-0.04419627327112211,
0.09077306733167083,-0.013942203767606581,
0.09082294264339152,-0.037478456196224405,
0.09087281795511222,0.013081534415797095,
0.09092269326683292,-0.019050917067451427,
0.09097256857855361,0.005312763050843215,
0.09102244389027432,-0.023280297598609286,
0.09107231920199502,-0.0080790248055647,
0.09112219451371571,-0.028488695814980976,
0.09117206982543641,-0.005743274825818554,
0.0912219451371571,0.02235062187141439,
0.0912718204488778,0.002257169827984809,
0.09132169576059851,-0.026439773630692345,
0.0913715710723192,-0.01722072929519332,
0.0914214463840399,-0.014820514362359049,
0.0914713216957606,-0.005890686789974747,
0.09152119700748129,0.0042090948560418,
0.091571072319202,-0.019066297086969053,
0.0916209476309227,-0.016010334196097112,
0.09167082294264339,-0.004095640005935581,
0.09172069825436409,-0.012845146749132083,
0.09177057356608478,0.010674348793974164,
0.09182044887780548,-0.00928967842351678,
0.09187032418952619,0.0007902770007062916,
0.09192019950124689,-0.008257088867961263,
0.09197007481296758,0.015036768167521232,
0.09201995012468828,-0.004718478982539826,
0.09206982543640897,0.02526092202576872,
0.09211970074812968,-0.0033950288403128345,
0.09216957605985038,0.0027274735585726684,
0.09221945137157107,0.008706798371239752,
0.09226932668329177,0.00448750007828768,
0.09231920199501246,0.017845100895317264,
0.09236907730673316,-0.011775166241161135,
0.09241895261845387,-0.015963717867246322,
0.09246882793017457,0.0027162903280036864,
0.09251870324189526,-0.009585918310036573,
0.09256857855361596,-0.03615513448030331,
0.09261845386533665,-0.017522015145864434,
0.09266832917705736,0.0028784896530027384,
0.09271820448877806,-0.0005673485721700497,
0.09276807980049875,0.020620656893955706,
0.09281795511221945,-0.0100046450602676,
0.09286783042394015,-0.02853574821455224,
0.09291770573566084,0.001531872654272003,
0.09296758104738155,0.008112195339232554,
0.09301745635910225,0.023792537532472107,
0.09306733167082294,-0.0074045807323171895,
0.09311720698254364,-0.0052988909755760935,
0.09316708229426433,-0.004539872728048049,
0.09321695760598504,0.0496830204046482,
0.09326683291770574,-0.013506788270931408,
0.09331670822942643,0.00740730608599858,
0.09336658354114713,0.0030605270708923783,
0.09341645885286783,0.002237485295603351,
0.09346633416458854,0.03479429010927054,
0.09351620947630923,-0.01649449430744169,
0.09356608478802993,-0.002026952153700282,
0.09361596009975062,-0.011167104779919447,
0.09366583541147132,-0.02235766135085295,
0.09371571072319201,0.014691940711769044,
0.09376558603491272,0.004054818597275374,
0.09381546134663342,-0.011574494808979959,
0.09386533665835411,0.006649610413341673,
0.09391521197007481,-0.015124141447415307,
0.0939650872817955,-0.0010632642049777153,
0.09401496259351622,-0.017941016209745097,
0.09406483790523691,0.017856301499225603,
0.09411471321695761,-0.003463399268514728,
0.0941645885286783,0.013010763057369961,
0.094214463840399,0.013137223247733617,
0.0942643391521197,-0.00037539976577984037,
0.0943142144638404,-0.008160128013621645,
0.0943640897755611,-0.00786300761628132,
0.0944139650872818,0.01805357969187855,
0.09446384039900249,0.01296795190673897,
0.09451371571072319,0.005790990234557065,
0.0945635910224439,0.00039055584607001776,
0.09461346633416459,-0.01817986905517488,
0.09466334164588529,0.018286562479556144,
0.09471321695760598,-0.029592118196655175,
0.09476309226932668,-0.003790146921438103,
0.09481296758104737,-0.00761875338223974,
0.09486284289276808,0.0035965348152803716,
0.09491271820448878,-0.011109018868548629,
0.09496259351620948,0.02231831845464103,
0.09501246882793017,-0.001464450055323481,
0.09506234413965087,0.009551619273474563,
0.09511221945137158,-0.0011395229411229235,
0.09516209476309227,-0.009650840825878035,
0.09521197007481297,0.0208779387888609,
0.09526184538653366,0.014007329840167336,
0.09531172069825436,-0.006407994539674484,
0.09536159600997507,0.047806585237679756,
0.09541147132169576,0.012606675130316906,
0.09546134663341646,-0.009903840700800543,
0.09551122194513716,0.016191425568841615,
0.09556109725685785,0.0005101970960177541,
0.09561097256857855,0.0262518972179436,
0.09566084788029926,0.015079812618720986,
0.09571072319201995,-0.011909607974567521,
0.09576059850374065,0.011836544790793446,
0.09581047381546134,0.025380069080353947,
0.09586034912718204,-0.00872990699966646,
0.09591022443890275,0.005864662698470554,
0.09596009975062345,0.022218629796587064,
0.09600997506234414,-0.004988422086541456,
0.09605985037406484,-0.0051514402919125585,
0.09610972568578553,-0.0020014902591586354,
0.09615960099750623,-0.004544449586326601,
0.09620947630922694,-0.020287433399854032,
0.09625935162094763,-0.020813453737348372,
0.09630922693266833,0.009006274512073956,
0.09635910224438902,0.02362692828625918,
0.09640897755610972,-0.014800378421259476,
0.09645885286783043,0.009940297921510351,
0.09650872817955113,-0.008723892471643391,
0.09655860349127182,0.028783078302107246,
0.09660847880299252,0.015378274990028994,
0.09665835411471321,1.3079132055707557e-05,
0.09670822942643391,-0.033863529811429205,
0.09675810473815462,0.054449131455904666,
0.09680798004987531,0.01477939973703992,
0.09685785536159601,0.0355526781244741,
0.0969077306733167,0.011565018796967228,
0.0969576059850374,0.013708943963574593,
0.09700748129675811,-0.002242195972823595,
0.0970573566084788,0.020123091078178505,
0.0971072319201995,-0.003466649638094621,
0.0971571072319202,0.023332169300164657,
0.0972069825436409,0.012701736959268245,
0.09725685785536159,0.020898762968402488,
0.0973067331670823,0.03351225190430697,
0.097356608478803,0.03166084556879195,
0.09740648379052369,0.030243552625409623,
0.09745635910224439,0.0031902979444162014,
0.09750623441396508,0.006560431820336089,
0.09755610972568579,0.0001698150939132559,
0.09760598503740649,0.02114969257350066,
0.09765586034912718,0.03166920039635279,
0.09770573566084788,0.019762620169225364,
0.09775561097256857,0.0387212670701892,
0.09780548628428928,0.00931037121836054,
0.09785536159600998,0.0009328344687616723,
0.09790523690773068,0.0017639046822989363,
0.09795511221945137,0.02043101033534961,
0.09800498753117207,-0.0013110086652759513,
0.09805486284289276,0.0375982699511893,
0.09810473815461347,0.033339450670949525,
0.09815461346633417,0.01460147362316026,
0.09820448877805486,0.026815702321815398,
0.09825436408977556,0.01542487228168126,
0.09830423940149625,0.014780226995124024,
0.09835411471321696,0.03537056900041688,
0.09840399002493766,0.019148407592489435,
0.09845386533665836,0.03591862974611822,
0.09850374064837905,0.015151482961655499,
0.09855361596009975,0.02044370741695695,
0.09860349127182044,0.05284958704750785,
0.09865336658354115,0.005047906881221094,
0.09870324189526185,0.02989875482724768,
0.09875311720698254,0.04643229927268876,
0.09880299251870324,-0.0059082574234620815,
0.09885286783042393,0.025649546952844222,
0.09890274314214464,0.05521912224790063,
0.09895261845386534,0.02054413960025603,
0.09900249376558604,0.05176336929651745,
0.09905236907730673,0.007113975676873344,
0.09910224438902743,0.01921165101932086,
0.09915211970074812,0.023954189945214886,
0.09920199501246883,0.012225272202025595,
0.09925187032418953,0.014242826081113246,
0.09930174563591022,0.0014614909978166273,
0.09935162094763092,0.021045987857943337,
0.09940149625935162,0.05023120499644368,
0.09945137157107233,0.03995809095956025,
0.09950124688279302,0.012821661367795669,
0.09955112219451372,0.020449355611336286,
0.09960099750623441,0.03161691332682319,
0.09965087281795511,0.03395998797388218,
0.0997007481296758,0.011968509197468426,
0.09975062344139651,0.04483943811164104,
0.09980049875311721,0.030429089642304518,
0.0998503740648379,0.0493146149996911,
0.0999002493765586,0.024508841194791135,
0.0999501246882793,0.046061890439125536,
0.1,0.029704342399180347,
0.1000498753117207,0.041731284322500964,
0.1000997506234414,0.04915910999472829,
0.10014962593516209,-0.005136971653168836,
0.10019950124688279,0.039617922714485165,
0.1002493765586035,0.038847626896344925,
0.1002992518703242,0.014642371181366807,
0.10034912718204489,0.027203405830681076,
0.10039900249376559,0.009581219521110563,
0.10044887780548628,0.0453572938472141,
0.10049875311720698,0.01834090573926487,
0.10054862842892769,0.037924033162306345,
0.10059850374064838,0.0258166545121105,
0.10064837905236908,0.02386311520702161,
0.10069825436408977,0.04259165965243822,
0.10074812967581047,0.005167841506256533,
0.10079800498753118,0.011155780884359912,
0.10084788029925187,0.02987381707419092,
0.10089775561097257,0.028670604060134396,
0.10094763092269327,0.001036767506085414,
0.10099750623441396,0.05945408634126198,
0.10104738154613466,0.024900055152600704,
0.10109725685785537,0.022839814970371387,
0.10114713216957606,0.03319899320373909,
0.10119700748129676,0.00041638761801627774,
0.10124688279301745,0.05757170491107898,
0.10129675810473815,0.0383531267310988,
0.10134663341645886,0.025651212410368232,
0.10139650872817955,0.0020712493871645303,
0.10144638403990025,0.025153438126647436,
0.10149625935162095,0.06993770094766383,
0.10154613466334164,0.010339622580745254,
0.10159600997506234,0.029949644795600153,
0.10164588528678305,0.019585632631774326,
0.10169576059850374,0.037646701563401164,
0.10174563591022444,0.017960728346347862,
0.10179551122194513,0.03308910732716237,
0.10184538653366583,0.015637492198414902,
0.10189526184538654,0.03438443831833641,
0.10194513715710724,0.016609402951280064,
0.10199501246882793,0.01610818367698162,
0.10204488778054863,0.04224945574378694,
0.10209476309226932,0.004028849524578139,
0.10214463840399003,0.012338144655459113,
0.10219451371571073,0.020012825171428383,
0.10224438902743142,0.03112652123385782,
0.10229426433915212,0.02116162675243417,
0.10234413965087281,0.003236093321819178,
0.10239401496259351,0.03370504484654721,
0.10244389027431422,0.015878164624807067,
0.10249376558603492,0.012414611875857238,
0.10254364089775561,0.026127264627686473,
0.10259351620947631,0.020465566177728906,
0.102643391521197,0.05307814183038458,
0.10269326683291771,0.030864448386489454,
0.10274314214463841,0.003528768157975263,
0.1027930174563591,0.051950249033808474,
0.1028428927680798,0.020695790518712086,
0.1028927680798005,0.025475339150626827,
0.10294264339152119,0.029129379001129135,
0.1029925187032419,-0.008610706937806235,
0.1030423940149626,0.032560488962907426,
0.10309226932668329,-0.00835371089881453,
0.10314214463840399,0.03584032176972339,
0.10319201995012468,0.0355833083301528,
0.10324189526184539,0.027395830797836942,
0.10329177057356609,0.01656427952528293,
0.10334164588528678,0.020983488588663703,
0.10339152119700748,0.051993243468514194,
0.10344139650872818,-0.005807046522622053,
0.10349127182044887,0.02337123331633372,
0.10354114713216958,0.03483617428341776,
0.10359102244389028,0.05144120920938369,
0.10364089775561097,0.020451853047280106,
0.10369077306733167,0.01639351837750679,
0.10374064837905236,0.03410549801605972,
0.10379052369077307,0.022264245178412218,
0.10384039900249377,0.021106909908441617,
0.10389027431421446,0.020791545305503013,
0.10394014962593516,0.032778180596735346,
0.10399002493765586,0.022974513336235212,
0.10403990024937655,0.015266535418669909,
0.10408977556109726,0.026440139754462494,
0.10413965087281796,0.03557549353687048,
0.10418952618453865,0.0028785885048483503,
0.10423940149625935,0.019210206265076895,
0.10428927680798004,0.033136796401934315,
0.10433915211970075,0.01913009223142177,
0.10438902743142145,-0.0073246555517949286,
0.10443890274314215,0.028433570215825252,
0.10448877805486284,0.013171919446986136,
0.10453865336658354,-0.004187068423505285,
0.10458852867830425,0.0006006059012661213,
0.10463840399002494,0.009891602331527763,
0.10468827930174564,0.02549480561880165,
0.10473815461346633,0.019290597037028807,
0.10478802992518703,-0.0038537112040371545,
0.10483790523690772,0.03181238319789617,
0.10488778054862843,0.03262083838632976,
0.10493765586034913,0.0170840634516212,
0.10498753117206983,0.011626132016779034,
0.10503740648379052,-0.0002284145020633125,
0.10508728179551122,0.012334915378802342,
0.10513715710723193,0.04169213469606656,
0.10518703241895262,0.010921827438053875,
0.10523690773067332,0.0025321690397053214,
0.10528678304239401,0.01480195762861208,
0.10533665835411471,0.0012336298831078802,
0.1053865336658354,0.009695298785029498,
0.10543640897755611,0.005768105236709306,
0.10548628428927681,0.024029035043959958,
0.1055361596009975,0.00641846061710729,
0.1055860349127182,0.007569286044948073,
0.1056359102244389,-7.721969421739874e-05,
0.10568578553615961,0.010815218782315186,
0.1057356608478803,-0.0004173710111951383,
0.105785536159601,0.007771257910651374,
0.1058354114713217,-0.018472003467048602,
0.10588528678304239,-0.01854725458218231,
0.10593516209476309,0.024135933133700112,
0.1059850374064838,-0.00031544279918690327,
0.10603491271820449,0.005905480554837363,
0.10608478802992519,0.006154431216406674,
0.10613466334164588,-0.005632589711249613,
0.10618453865336658,-0.013563068616273608,
0.10623441396508729,-0.01216468384277572,
0.10628428927680798,0.0007114859221511276,
0.10633416458852868,0.030343940847726625,
0.10638403990024937,0.017990674410332808,
0.10643391521197007,-0.010444557321604242,
0.10648379052369077,0.026517551447065146,
0.10653366583541148,0.029744390339497565,
0.10658354114713217,-0.00995805754172554,
0.10663341645885287,0.005814290189834322,
0.10668329177057356,0.007709919532150656,
0.10673316708229426,-0.009161137283353118,
0.10678304239401497,0.01238816674325086,
0.10683291770573566,0.008981264329161194,
0.10688279301745636,0.020922990972387378,
0.10693266832917706,0.006273001992461751,
0.10698254364089775,-0.005313612690406645,
0.10703241895261846,-0.011841530736960877,
0.10708229426433916,-0.028316079475160266,
0.10713216957605985,-0.01648065431271134,
0.10718204488778055,0.005611828791115504,
0.10723192019950124,-0.017784403305181697,
0.10728179551122194,-0.0036739130620707825,
0.10733167082294265,0.0017213109548981872,
0.10738154613466334,0.020512982826879772,
0.10743142144638404,0.009499151874677148,
0.10748129675810474,0.0018401920079006424,
0.10753117206982543,-0.0016713376106503052,
0.10758104738154614,-0.011073273582659788,
0.10763092269326684,-0.016318390533033886,
0.10768079800498753,0.010475100849554227,
0.10773067331670823,0.0027789414563218094,
0.10778054862842892,-0.0038069393835004394,
0.10783042394014962,-0.007725292727090607,
0.10788029925187033,0.0014182349359549056,
0.10793017456359102,-0.000815407706767122,
0.10798004987531172,0.015067235366207207,
0.10802992518703242,-0.009303985867803797,
0.10807980049875311,0.0031051545916038993,
0.10812967581047382,-0.019873988883267767,
0.10817955112219452,-0.030027158785814936,
0.10822942643391521,-0.007229615840048491,
0.10827930174563591,-0.014489314562841159,
0.1083291770573566,-0.024803684258490263,
0.1083790523690773,-0.010289711873547679,
0.10842892768079801,-0.0255309910694475,
0.1084788029925187,-0.0076548256007144405,
0.1085286783042394,-0.007058378693917649,
0.1085785536159601,-0.037597906822181455,
0.10862842892768079,-0.03275728537172028,
0.1086783042394015,-0.02181045268161793,
0.1087281795511222,0.008211198794438858,
0.1087780548628429,-0.0020475295128104375,
0.10882793017456359,0.007960531434370626,
0.10887780548628428,-0.011413036620868105,
0.108927680798005,-0.0014700044787082376,
0.10897755610972569,-0.020173210087744656,
0.10902743142144639,0.006819929941833504,
0.10907730673316708,-0.01044779960001258,
0.10912718204488778,-0.025984885967888043,
0.10917705735660847,0.02050588544826139,
0.10922693266832918,-0.0115529558290646,
0.10927680798004988,0.027021444950189023,
0.10932668329177057,-0.007200181163109222,
0.10937655860349127,-0.02353928116887545,
0.10942643391521197,0.0009539521747007201,
0.10947630922693267,-0.026640243445443544,
0.10952618453865337,0.008485758989598456,
0.10957605985037407,-0.0035901264548486777,
0.10962593516209476,-0.013476581181797391,
0.10967581047381546,0.011902694038281711,
0.10972568578553615,-0.020823066063426383,
0.10977556109725686,0.011528232800205741,
0.10982543640897756,-0.03357508024763497,
0.10987531172069825,-0.0020998039056528816,
0.10992518703241895,0.004287125798377849,
0.10997506234413965,-0.023895507991866405,
0.11002493765586036,-0.020009116462915366,
0.11007481296758105,-0.014216197652015799,
0.11012468827930175,-0.0210415317628528,
0.11017456359102244,0.00562606075414452,
0.11022443890274314,-0.00885619713138948,
0.11027431421446383,-0.0004532068181372813,
0.11032418952618454,0.04210338154388495,
0.11037406483790524,-0.02039683398922286,
0.11042394014962593,0.004069430255075921,
0.11047381546134663,-0.011320723135528853,
0.11052369077306733,-0.02042195459726154,
0.11057356608478804,-0.019494074817225072,
0.11062344139650873,0.009031083844819359,
0.11067331670822943,-0.013105966710929024,
0.11072319201995012,0.0009259393547931712,
0.11077306733167082,-0.003612699540657939,
0.11082294264339151,0.00283562685463999,
0.11087281795511222,-0.03875889062529605,
0.11092269326683292,0.007552371602751285,
0.11097256857855362,-0.015058571235098421,
0.11102244389027431,-0.009112059611463774,
0.111072319201995,-0.013931376439584378,
0.11112219451371572,-0.0015894463526742418,
0.11117206982543641,-0.024300761388315786,
0.11122194513715711,-0.030682367448407924,
0.1112718204488778,-0.01581704013223166,
0.1113216957605985,0.005082228205276963,
0.11137157107231921,-0.03832042450600103,
0.1114214463840399,-0.01185709538851325,
0.1114713216957606,-0.016732062030342075,
0.1115211970074813,-0.013188041204771798,
0.11157107231920199,0.027151445606886163,
0.11162094763092269,-0.014930336026230588,
0.1116708229426434,-0.027598915628041933,
0.11172069825436409,0.010668024817475882,
0.11177057356608479,-0.003999789431864296,
0.11182044887780548,-0.013267448656072444,
0.11187032418952618,-0.004423998386479369,
0.11192019950124689,-0.003230120591736446,
0.11197007481296758,-0.011075062438951873,
0.11201995012468828,-0.013754277200112266,
0.11206982543640898,-0.0007140702014401291,
0.11211970074812967,0.03229690188770741,
0.11216957605985037,-0.003944883893473712,
0.11221945137157108,-0.02708296239265233,
0.11226932668329177,-0.00195821187980965,
0.11231920199501247,-0.008801178736338067,
0.11236907730673316,-0.011980038567767973,
0.11241895261845386,-0.014934982673785006,
0.11246882793017457,-0.002309839793286063,
0.11251870324189527,-0.010502196324960878,
0.11256857855361596,-0.008109212787339667,
0.11261845386533666,-0.003955195776010545,
0.11266832917705735,-0.014748194796514544,
0.11271820448877805,0.006018546027491186,
0.11276807980049876,0.001720439016809865,
0.11281795511221945,-0.004884254777683285,
0.11286783042394015,0.0011937690852328146,
0.11291770573566084,-0.013013203253876261,
0.11296758104738154,-0.000806191083796955,
0.11301745635910225,0.013701737865098023,
0.11306733167082295,-0.017764971693691206,
0.11311720698254364,-0.004512800736166182,
0.11316708229426434,-0.004063267840206263,
0.11321695760598503,3.342520467753459e-05,
0.11326683291770574,-0.007450700293073167,
0.11331670822942644,-0.02574012399513083,
0.11336658354114713,0.0002827795383826713,
0.11341645885286783,-0.005603726443903043,
0.11346633416458853,-0.01236552562823328,
0.11351620947630922,-0.0033206627029340853,
0.11356608478802993,-0.0336512726835483,
0.11361596009975063,-0.020849042356254257,
0.11366583541147132,-0.008050195058366901,
0.11371571072319202,0.009323599253820154,
0.11376558603491271,-0.025352342333348207,
0.11381546134663342,-0.014381243861221958,
0.11386533665835412,0.016726600801199833,
0.11391521197007481,0.003995784412194416,
0.11396508728179551,-0.02587375340055401,
0.1140149625935162,-0.003412403678720516,
0.1140648379052369,0.0021777864929609595,
0.11411471321695761,-0.00241403807114665,
0.1141645885286783,0.028460864774573512,
0.114214463840399,0.025233256178147437,
0.1142643391521197,-0.013459314692606958,
0.1143142144638404,-0.03344366571497812,
0.1143640897755611,0.002177464765654469,
0.1144139650872818,0.006108076814645062,
0.1144638403990025,0.00336651404151686,
0.11451371571072319,0.0163294613828596,
0.11456359102244389,0.01088992243765506,
0.11461346633416458,-0.004119322518722903,
0.11466334164588529,0.022114862677482305,
0.11471321695760599,0.010467010490279052,
0.11476309226932668,-0.0062942325955909345,
0.11481296758104738,0.006341875645297603,
0.11486284289276807,-0.0019937298985840367,
0.11491271820448878,-0.027593378840024906,
0.11496259351620948,0.008159897880390643,
0.11501246882793018,-0.003892919010527563,
0.11506234413965087,0.005280747130061668,
0.11511221945137157,0.026550019186436815,
0.11516209476309226,0.006547799723148881,
0.11521197007481297,-0.00586954148079025,
0.11526184538653367,0.02022338467556639,
0.11531172069825436,-0.01260059357879696,
0.11536159600997506,0.014804525219982838,
0.11541147132169575,0.013249944915930498,
0.11546134663341646,0.03153795244935535,
0.11551122194513716,0.018064948386492863,
0.11556109725685786,-0.022359679819172286,
0.11561097256857855,0.0026269390098002596,
0.11566084788029925,-0.0019211416989419585,
0.11571072319201996,-0.0071276883988048104,
0.11576059850374065,0.007540911262675086,
0.11581047381546135,0.003134196015533085,
0.11586034912718204,-0.004378252499647307,
0.11591022443890274,0.005244094531629658,
0.11596009975062344,0.015000759417616964,
0.11600997506234415,-0.008062878379791288,
0.11605985037406484,0.019272286622463983,
0.11610972568578554,0.014473542410203032,
0.11615960099750623,0.0016758660496199,
0.11620947630922693,0.004418994940954085,
0.11625935162094764,0.021912395896683017,
0.11630922693266833,0.004182394880544336,
0.11635910224438903,0.008743022609536535,
0.11640897755610972,-0.001381505105973159,
0.11645885286783042,-0.007466626964204068,
0.11650872817955112,0.021924113653538614,
0.11655860349127183,0.028376201757752247,
0.11660847880299252,0.037408719327499416,
0.11665835411471322,0.008940322603695233,
0.11670822942643391,-4.71913436205177e-05,
0.11675810473815461,0.03147131458526718,
0.11680798004987532,0.022397690739393697,
0.11685785536159601,0.025948088379291478,
0.11690773067331671,0.02228744119770054,
0.1169576059850374,0.025795069532747225,
0.1170074812967581,0.024192279053076297,
0.1170573566084788,0.029435089345107985,
0.1171072319201995,0.024512815270660383,
0.1171571072319202,0.037119533615991615,
0.1172069825436409,0.00834837380782327,
0.1172568578553616,0.04165390772342095,
0.11730673316708229,0.0027496027347882236,
0.117356608478803,0.029390873804952707,
0.1174064837905237,0.02173498167552306,
0.11745635910224439,0.03739641000966831,
0.11750623441396509,0.020744122292626586,
0.11755610972568578,0.022200474345857587,
0.11760598503740648,0.02916228356804572,
0.11765586034912719,0.02445319592343169,
0.11770573566084788,0.027611749131921524,
0.11775561097256858,0.0201080487693065,
0.11780548628428927,0.019740636223607805,
0.11785536159600997,0.020834106089457138,
0.11790523690773068,0.0188307718483561,
0.11795511221945137,0.03964741542497016,
0.11800498753117207,0.019314669489983626,
0.11805486284289277,0.014628177225600919,
0.11810473815461346,0.029165658026078806,
0.11815461346633417,0.023529500727540616,
0.11820448877805487,0.029151856271791225,
0.11825436408977556,0.014178169387525212,
0.11830423940149626,0.012918894438712204,
0.11835411471321695,0.061837813285078536,
0.11840399002493765,0.01405588259889723,
0.11845386533665836,0.05003069742713762,
0.11850374064837906,0.040077412714947094,
0.11855361596009975,0.01689223572491509,
0.11860349127182045,0.028713330521434627,
0.11865336658354114,0.05666255956932187,
0.11870324189526185,0.04662740063676849,
0.11875311720698255,0.01398335661625566,
0.11880299251870324,0.024700747148032953,
0.11885286783042394,0.033938444961656614,
0.11890274314214463,0.046603290880167,
0.11895261845386533,0.013421115696965401,
0.11900249376558604,0.017203921909801134,
0.11905236907730674,0.03585006085695239,
0.11910224438902743,0.017588510538767626,
0.11915211970074813,0.02864091372494883,
0.11920199501246882,0.06248950255810512,
0.11925187032418953,0.01071731678818823,
0.11930174563591023,0.020884588174551355,
0.11935162094763092,0.06640017988839031,
0.11940149625935162,0.025001227274534885,
0.11945137157107232,0.04499137869222453,
0.11950124688279301,0.02293558774546344,
0.11955112219451372,0.039437610756267186,
0.11960099750623442,0.01558979692588392,
0.11965087281795511,0.020066520016914866,
0.11970074812967581,0.024763292247171942,
0.1197506234413965,0.02589335790800222,
0.11980049875311721,0.03633691677987602,
0.11985037406483791,0.021900104088784563,
0.1199002493765586,0.025902405045226777,
0.1199501246882793,0.03591938432540849,
0.12,0.05124588479485087,
0.1200498753117207,0.02489646213835596,
0.1200997506234414,0.0044456519860392694,
0.1201496259351621,0.02612588464826826,
0.12019950124688279,0.019868810687245594,
0.12024937655860349,0.028725826154746507,
0.12029925187032418,0.035092408329605376,
0.1203491271820449,0.0413174183500387,
0.12039900249376559,0.012062646266243128,
0.12044887780548628,0.035339552621194176,
0.12049875311720698,0.04579717640775112,
0.12054862842892768,-0.004703514513363927,
0.12059850374064839,0.03292771720911046,
0.12064837905236908,0.014045633996068972,
0.12069825436408978,0.01842853789572397,
0.12074812967581047,0.016187608772747046,
0.12079800498753117,0.020526038684046517,
0.12084788029925186,0.022995812884633416,
0.12089775561097257,0.03759975224684974,
0.12094763092269327,0.036035256669927476,
0.12099750623441397,0.012453922163599244,
0.12104738154613466,0.04818137376416025,
0.12109725685785536,0.01888988850412926,
0.12114713216957607,0.0006671435803134312,
0.12119700748129676,0.03446918556248868,
0.12124688279301746,0.03393243092666581,
0.12129675810473815,0.022320568580305986,
0.12134663341645885,0.03427048663686183,
0.12139650872817954,0.04716723186488059,
0.12144638403990025,0.048006284727813875,
0.12149625935162095,0.011730802356493437,
0.12154613466334165,0.054484727014308024,
0.12159600997506234,0.013296427793921638,
0.12164588528678304,0.028595541423354548,
0.12169576059850375,0.032600602812346,
0.12174563591022444,0.029884010385739908,
0.12179551122194514,0.007152252834468693,
0.12184538653366583,0.04094282612761834,
0.12189526184538653,0.0005610346481896671,
0.12194513715710723,0.010755426322588729,
0.12199501246882793,0.009525182211248744,
0.12204488778054863,0.04731303389000795,
0.12209476309226933,0.024044551652893646,
0.12214463840399002,0.015287398083764012,
0.12219451371571072,0.023712362028194066,
0.12224438902743143,0.01768106869417729,
0.12229426433915212,0.019407507278920287,
0.12234413965087282,0.020617606690038426,
0.12239401496259351,0.039802737062207036,
0.12244389027431421,0.02081939883270806,
0.12249376558603492,0.014396186098576512,
0.12254364089775562,0.025702335090888612,
0.12259351620947631,0.034028009339711215,
0.122643391521197,0.01414096479482525,
0.1226932668329177,0.04337816635637123,
0.1227431421446384,0.01543649615030304,
0.12279301745635911,0.0029332591994710513,
0.1228428927680798,0.025736602374065633,
0.1228927680798005,0.027679337751226652,
0.1229426433915212,0.020266285798760195,
0.12299251870324189,0.02440414476428924,
0.1230423940149626,0.030050111524178205,
0.1230922693266833,0.03929475898789511,
0.12314214463840399,0.03594447449327698,
0.12319201995012469,0.023505806952751028,
0.12324189526184538,0.033359684073634176,
0.12329177057356608,0.003840522673773456,
0.12334164588528679,0.004771660861918509,
0.12339152119700748,0.04759007599585821,
0.12344139650872818,0.00967236881944479,
0.12349127182044888,0.024743469750193734,
0.12354114713216957,0.022025150054974272,
0.12359102244389028,-0.002894553313143238,
0.12364089775561098,-0.005894682933530435,
0.12369077306733167,0.030775797425389,
0.12374064837905237,0.01424399006340872,
0.12379052369077306,0.02602969018392351,
0.12384039900249376,0.01991579840788954,
0.12389027431421447,0.0010594763732003978,
0.12394014962593516,-0.014456080566675251,
0.12399002493765586,0.021119277088927742,
0.12403990024937656,0.007830244950426465,
0.12408977556109725,0.011576877069597877,
0.12413965087281796,0.003605671317735943,
0.12418952618453866,0.0033824505938390877,
0.12423940149625935,0.026882432941553715,
0.12428927680798005,0.021581355876626497,
0.12433915211970074,0.042275289551477496,
0.12438902743142144,0.01595590159326663,
0.12443890274314215,0.01951145543184206,
0.12448877805486284,0.01295844748939598,
0.12453865336658354,0.022688177013366603,
0.12458852867830424,0.02841393905597759,
0.12463840399002493,0.027606639469599292,
0.12468827930174564,0.008291302088675945,
0.12473815461346634,0.011990161720596706,
0.12478802992518703,0.017153573210299977,
0.12483790523690773,0.016847027069304486,
0.12488778054862842,0.03111125584878496,
0.12493765586034913,0.01113406887878245,
0.12498753117206983,0.04353757404503856,
0.12503740648379053,0.014354940179732205,
0.12508728179551123,0.007892471710811786,
0.12513715710723192,-0.013482256577227014,
0.12518703241895263,0.011804279748203507,
0.1252369077306733,-0.005166168009338449,
0.12528678304239402,0.01335637280450146,
0.1253366583541147,0.02034458910102656,
0.1253865336658354,-0.004862252974590723,
0.12543640897755612,-0.014872457770413015,
0.1254862842892768,-0.007199175940771284,
0.1255361596009975,-0.004995594157104556,
0.1255860349127182,0.019266602666198337,
0.1256359102244389,-0.000723390593176703,
0.1256857855361596,0.02843891785209686,
0.1257356608478803,0.032579613515324374,
0.125785536159601,0.004674245778479484,
0.12583541147132168,0.0015951507280044068,
0.1258852867830424,0.01008350628649824,
0.1259351620947631,0.0004888528357091266,
0.12598503740648379,0.021783220650172262,
0.1260349127182045,0.005687887470794871,
0.12608478802992518,0.013639857517439832,
0.1261346633416459,0.012078661539315402,
0.1261845386533666,0.006607754352291163,
0.12623441396508728,0.013112714241725637,
0.126284289276808,0.008931282297693108,
0.12633416458852867,-0.0026992147194279375,
0.12638403990024938,0.009011240034583513,
0.1264339152119701,0.022906612458772187,
0.12648379052369077,0.013251765617373838,
0.12653366583541148,0.0009990481431455004,
0.12658354114713216,0.04269141925981006,
0.12663341645885287,0.0046499426447306974,
0.12668329177057355,-0.008219558990796454,
0.12673316708229426,0.002231125560410089,
0.12678304239401497,-0.03389333043442977,
0.12683291770573565,0.009190708899268141,
0.12688279301745636,0.01774528684547274,
0.12693266832917705,0.013909158585190103,
0.12698254364089775,0.004060605016732941,
0.12703241895261846,-0.0008350968723770933,
0.12708229426433915,0.005744093958713199,
0.12713216957605986,0.003991840702040091,
0.12718204488778054,-0.024694853970917408,
0.12723192019950125,0.01374991433916011,
0.12728179551122196,0.010755044575668376,
0.12733167082294264,-0.006685742245122184,
0.12738154613466335,-0.0019317969509110907,
0.12743142144638403,0.023356412612434645,
0.12748129675810474,-0.020305820597706598,
0.12753117206982545,-0.008132991476652125,
0.12758104738154613,-0.02030471006630084,
0.12763092269326684,-0.01771237659123017,
0.12768079800498752,0.0029253154834909256,
0.12773067331670823,0.020536014653470262,
0.1277805486284289,0.008216130982467719,
0.12783042394014962,-0.01644784354711473,
0.12788029925187033,-0.004602134010033217,
0.12793017456359101,-0.02074386052676744,
0.12798004987531172,0.0017770188496362164,
0.1280299251870324,-0.01160827635848977,
0.12807980049875312,0.000978592065142214,
0.12812967581047383,0.005223384014307128,
0.1281795511221945,-0.006467721545568899,
0.12822942643391522,-0.009087701488631882,
0.1282793017456359,-0.0048111848185031884,
0.1283291770573566,-0.014280630310701226,
0.12837905236907732,-0.02140625127143215,
0.128428927680798,-0.020500715628954433,
0.1284788029925187,0.003398546588980901,
0.1285286783042394,-0.01611504407629088,
0.1285785536159601,-0.019335456141184586,
0.1286284289276808,0.0032739279444210997,
0.1286783042394015,0.006314163653345533,
0.1287281795511222,-0.02290354061823814,
0.12877805486284288,0.01706752197099281,
0.1288279301745636,0.009714875660357596,
0.1288778054862843,-0.013665628999181917,
0.12892768079800498,-0.006456170521395826,
0.1289775561097257,-0.006935258543696758,
0.12902743142144638,-0.007314733203062454,
0.12907730673316709,-0.005970724270711122,
0.12912718204488777,0.029058577724680932,
0.12917705735660848,0.005857862165770021,
0.1292269326683292,0.004473685726816355,
0.12927680798004987,-0.021720120685091035,
0.12932668329177058,-0.011586015268511125,
0.12937655860349126,0.0007646657163284352,
0.12942643391521197,0.0010659032206653245,
0.12947630922693268,-0.011404905606735287,
0.12952618453865336,-0.014921595655599185,
0.12957605985037407,-0.005855921406299137,
0.12962593516209475,-0.022923196325381662,
0.12967581047381546,-0.024690853045383307,
0.12972568578553617,-0.017751225694866375,
0.12977556109725685,0.019517062865128845,
0.12982543640897756,-0.007068466618138472,
0.12987531172069824,-0.015621159812565285,
0.12992518703241895,0.0010855479429993497,
0.12997506234413966,-0.029205169360589596,
0.13002493765586035,0.002381136962314293,
0.13007481296758105,-0.015137452823029852,
0.13012468827930174,-0.011008725382938208,
0.13017456359102245,-0.008308029724135434,
0.13022443890274316,0.013610443735999667,
0.13027431421446384,-0.01987885425745075,
0.13032418952618455,-0.014420863724842373,
0.13037406483790523,-0.02140997742515708,
0.13042394014962594,-0.003932701462953535,
0.13047381546134662,-0.022946415088102776,
0.13052369077306733,-0.024414200694205482,
0.13057356608478804,-0.014786667559521762,
0.13062344139650872,-0.00582229020345497,
0.13067331670822943,-0.00985207477394208,
0.1307231920199501,-0.007417033786308999,
0.13077306733167082,-0.03806072808142898,
0.13082294264339153,-0.011847722028241851,
0.13087281795511221,0.021755566119495806,
0.13092269326683292,0.011543806600300957,
0.1309725685785536,-0.016542104014043484,
0.13102244389027431,-0.017011888189741295,
0.13107231920199502,-0.03146662560640518,
0.1311221945137157,-0.010641882622505514,
0.13117206982543642,-0.017100744440691977,
0.1312219451371571,-0.005532545490444627,
0.1312718204488778,-0.025633579875703486,
0.13132169576059852,-0.007063836651213707,
0.1313715710723192,-0.012487862964686937,
0.1314214463840399,-0.017876348882301964,
0.1314713216957606,-0.03394947200360242,
0.1315211970074813,-0.007514120273911053,
0.13157107231920198,-0.03755453918442494,
0.1316209476309227,0.02656649296241114,
0.1316708229426434,-0.010684227878277283,
0.13172069825436408,-0.015134688173375321,
0.1317705735660848,-0.030169656965303472,
0.13182044887780547,-0.039130684996023186,
0.13187032418952618,0.0007116058204218664,
0.1319201995012469,0.009273225373262138,
0.13197007481296757,-0.02490187626892886,
0.13201995012468828,0.01441270070219575,
0.13206982543640897,-0.016554873552323615,
0.13211970074812968,-0.012651376077221724,
0.13216957605985039,0.006744335463980832,
0.13221945137157107,-0.0034761943687936173,
0.13226932668329178,-0.031735323465868506,
0.13231920199501246,-0.012815645936237428,
0.13236907730673317,-0.019528509013072022,
0.13241895261845388,-0.022593613051092226,
0.13246882793017456,-0.013163662069954337,
0.13251870324189527,-0.00905776772261475,
0.13256857855361595,0.003812605638592566,
0.13261845386533666,-0.017852461105653587,
0.13266832917705737,-0.002429409555914013,
0.13271820448877805,0.002093230448869759,
0.13276807980049876,-0.03934238474930129,
0.13281795511221944,-0.0208475138753974,
0.13286783042394015,0.0065925671205705125,
0.13291770573566083,0.023148438080249106,
0.13296758104738154,-0.002433689329850986,
0.13301745635910225,-0.02265385298426243,
0.13306733167082294,0.014178081186993518,
0.13311720698254365,0.0010125239490093325,
0.13316708229426433,-0.015018400479422328,
0.13321695760598504,-0.01759853914104137,
0.13326683291770575,0.005041230031411725,
0.13331670822942643,-0.013150928672338788,
0.13336658354114714,0.011925438686919067,
0.13341645885286782,0.0106966668569943,
0.13346633416458853,0.004359992872767022,
0.13351620947630924,0.012152342019758284,
0.13356608478802992,-0.011535682135249602,
0.13361596009975063,-0.009784905237204277,
0.1336658354114713,0.004336589890121354,
0.13371571072319202,0.004593060580207348,
0.13376558603491273,0.013988226825516818,
0.1338154613466334,-0.0008904195424091108,
0.13386533665835412,-0.02931587040545781,
0.1339152119700748,-0.027365729036685396,
0.13396508728179551,-0.013277883299050384,
0.1340149625935162,-0.021057812738635873,
0.1340648379052369,-0.011813562612818667,
0.13411471321695762,0.0011082021149380486,
0.1341645885286783,0.034579732348574393,
0.134214463840399,0.007368218858533639,
0.1342643391521197,0.006128075964367609,
0.1343142144638404,-0.012164410156522091,
0.1343640897755611,0.026493258230893255,
0.1344139650872818,0.001103255894259874,
0.1344638403990025,0.0058790094356656495,
0.13451371571072318,0.0012894764319114347,
0.1345635910224439,0.0009250117310759375,
0.1346134663341646,-0.010427209744989499,
0.13466334164588528,-0.017299215494433,
0.134713216957606,-0.010309543438615638,
0.13476309226932667,0.005235527218065469,
0.13481296758104738,0.029906481275372848,
0.1348628428927681,0.02625912599482866,
0.13491271820448877,0.0030612507103297067,
0.13496259351620948,-0.019375079786168467,
0.13501246882793017,-0.00417855762070866,
0.13506234413965088,0.005064127969298417,
0.13511221945137158,-0.009699435745294112,
0.13516209476309227,-0.0053020034140893865,
0.13521197007481298,0.006784735353004285,
0.13526184538653366,-0.020524452958871047,
0.13531172069825437,0.004308809246346608,
0.13536159600997505,-0.008853347751648595,
0.13541147132169576,0.02728426102304757,
0.13546134663341647,0.033404842304841656,
0.13551122194513715,-0.010874339094325069,
0.13556109725685786,0.013175904867956353,
0.13561097256857854,0.0242829292780571,
0.13566084788029925,0.029552203082745025,
0.13571072319201996,0.030330476217701338,
0.13576059850374064,-0.0040564837436780875,
0.13581047381546135,-0.005329050509463341,
0.13586034912718203,0.009239698958026126,
0.13591022443890274,0.00826809613097583,
0.13596009975062345,0.025197131785778884,
0.13600997506234414,0.011353016910423371,
0.13605985037406484,0.01343614080892588,
0.13610972568578553,0.011820913153479462,
0.13615960099750624,-0.013019273824314616,
0.13620947630922695,0.02562440637425909,
0.13625935162094763,0.037027629186106685,
0.13630922693266834,-0.000732106976650224,
0.13635910224438902,-0.0076190888395256135,
0.13640897755610973,0.007506005107784978,
0.1364588528678304,0.015276746073634868,
0.13650872817955112,0.0014307783418940692,
0.13655860349127183,0.019889018095231893,
0.1366084788029925,-0.0017273503322134988,
0.13665835411471322,0.011110091024375457,
0.1367082294264339,0.02671447046129128,
0.1367581047381546,0.008368981623568184,
0.13680798004987532,0.013192979894932363,
0.136857855361596,0.02580737325417667,
0.1369077306733167,0.04389294896057841,
0.1369576059850374,0.006534692826584216,
0.1370074812967581,0.012894809444113416,
0.13705735660847881,-0.03203273556010534,
0.1371072319201995,-0.008034690923306182,
0.1371571072319202,0.028471898731309668,
0.1372069825436409,0.01474604621107983,
0.1372568578553616,-0.018069216198921705,
0.1373067331670823,0.042642200641071965,
0.137356608478803,0.011043446039645164,
0.1374064837905237,0.03382081517135775,
0.13745635910224438,0.016671104324103812,
0.1375062344139651,0.030700835626141114,
0.1375561097256858,0.02888091933457508,
0.13760598503740648,0.008560223957247814,
0.1376558603491272,0.009971556468771178,
0.13770573566084787,0.012869370908531096,
0.13775561097256858,0.029969912542828506,
0.13780548628428926,0.0415132218916613,
0.13785536159600997,-0.00431768099806383,
0.13790523690773068,0.025083913705531237,
0.13795511221945136,0.023262355794774432,
0.13800498753117207,0.03994950143577985,
0.13805486284289276,0.025106340192855243,
0.13810473815461347,0.04535670416173457,
0.13815461346633418,0.005532485152446694,
0.13820448877805486,0.03041781794953377,
0.13825436408977557,0.034800053314289495,
0.13830423940149625,0.03311365982109116,
0.13835411471321696,0.0023942011444050212,
0.13840399002493767,0.03919932055005514,
0.13845386533665835,0.029311173315746668,
0.13850374064837906,0.017960680484561006,
0.13855361596009974,0.03815068619981146,
0.13860349127182045,0.026630780526140884,
0.13865336658354116,0.025523138609149,
0.13870324189526184,0.038091093785542776,
0.13875311720698255,0.02228496298422937,
0.13880299251870323,0.031240540922633397,
0.13885286783042394,0.017733307795108594,
0.13890274314214462,0.023862806448953253,
0.13895261845386533,0.019497712014247052,
0.13900249376558604,0.029112469229836437,
0.13905236907730673,0.0387267871833987,
0.13910224438902744,0.04023204837422744,
0.13915211970074812,0.02355627039189301,
0.13920199501246883,0.03105424772783258,
0.13925187032418954,0.05514349198358311,
0.13930174563591022,-0.014623094379424294,
0.13935162094763093,0.02844722116030271,
0.1394014962593516,0.019281102855541615,
0.13945137157107232,0.04614913572011209,
0.13950124688279303,0.03606890108903631,
0.1395511221945137,-0.00813986462889604,
0.13960099750623442,0.008077058735025875,
0.1396508728179551,0.043055891873460664,
0.1397007481296758,0.027357887191356726,
0.13975062344139652,0.019755327486035815,
0.1398004987531172,0.037725714185069315,
0.1398503740648379,0.044597709726034246,
0.1399002493765586,0.03896809940797773,
0.1399501246882793,0.04314763785576314,
0.14,0.03215342069771192,
0.1400498753117207,0.011623742276564292,
0.1400997506234414,0.013080198795988925,
0.1401496259351621,-0.004002703729390045,
0.1401995012468828,0.03424952829094536,
0.14024937655860348,0.03029057603147364,
0.1402992518703242,0.015181879841891403,
0.1403491271820449,0.02208061487772174,
0.14039900249376558,0.032214867944767946,
0.1404488778054863,0.036910735757985744,
0.14049875311720697,0.05457722276927167,
0.14054862842892768,0.06311891714495196,
0.1405985037406484,0.023180038049476544,
0.14064837905236907,0.017786303826069313,
0.14069825436408978,0.015485985800069378,
0.14074812967581046,0.026226150625550185,
0.14079800498753117,0.00799183544764585,
0.14084788029925188,0.01930362000442449,
0.14089775561097256,0.0228973953404338,
0.14094763092269327,0.043203571771196755,
0.14099750623441396,0.026090446408100265,
0.14104738154613466,0.07342825234490583,
0.14109725685785537,0.0094330197198658,
0.14114713216957606,0.015332559782211005,
0.14119700748129677,0.05259623112540298,
0.14124688279301745,0.048038935723123344,
0.14129675810473816,0.0184735879566846,
0.14134663341645887,0.049448121030685285,
0.14139650872817955,0.010725610183469625,
