time,amplitude,label
0.0,-0.032368738749295675,
4.987531172069826e-05,-0.011206858957973692,
9.975062344139652e-05,-0.010646455195127821,
0.00014962593516209475,-0.04000284911313791,
0.00019950124688279303,-0.00024639459864438454,
0.00024937655860349125,-0.022711429547334683,
0.0002992518703241895,-0.03400928309742671,
0.00034912718204488776,-0.006117545403691254,
0.00039900249376558606,-0.011227706411313468,
0.0004488778054862843,-0.029588286518120885,
0.0004987531172069825,-0.015144448233469091,
0.0005486284289276808,-0.022639720909179907,
0.000598503740648379,-0.023257551903180546,
0.0006483790523690773,-0.02156282967970463,
0.0006982543640897755,-0.009853765502310584,
0.0007481296758104738,-0.02649897122396789,
0.0007980049875311721,-0.017651755966739912,
0.0008478802992518703,-0.016110320492564438,
0.0008977556109725686,0.011769066950422447,
0.0009476309226932668,-0.004754014612822837,
0.000997506234413965,-0.015572234185877807,
0.0010473815461346633,-0.021826333383172702,
0.0010972568578553616,-0.025008694793122597,
0.00114713216957606,-0.007515931540017189,
0.001197007481296758,-0.0066018248244277804,
0.0012468827930174563,-0.014702770813378774,
0.0012967581047381546,0.004968490214873177,
0.001346633416458853,-0.02287559024457601,
0.001396508728179551,-0.012660464035899117,
0.0014463840399002493,-0.009848652448186812,
0.0014962593516209476,-0.022995578772050995,
0.001546134663341646,-0.017949485350068097,
0.0015960099750623442,-0.0013995136559159585,
0.0016458852867830423,0.02068009437970044,
0.0016957605985037406,-0.01987918626541567,
0.001745635910224439,-0.036083076231723896,
0.0017955112219451373,-0.013565670115733262,
0.0018453865336658353,-0.00251141380706367,
0.0018952618453865336,-0.012057163772300355,
0.001945137157107232,-0.00906730472309522,
0.00199501246882793,-0.02382250971587952,
0.0020448877805486283,-0.030006906348614765,
0.0020947630922693266,-0.038586862402083325,
0.002144638403990025,-0.010145863155543155,
0.0021945137157107233,-0.022853654896272613,
0.0022443890274314216,-0.012198856276410349,
0.00229426433915212,-0.0040379950583322045,
0.0023441396508728177,-0.00021378417296643096,
0.002394014962593516,-0.02912976126469572,
0.0024438902743142144,-0.010938819410427104,
0.0024937655860349127,-0.03706879422157193,
0.002543640897755611,-0.02887677297258297,
0.0025935162094763093,-0.04016582193305789,
0.0026433915211970076,-0.022085068811972735,
0.002693266832917706,0.0033983669033818,
0.002743142144638404,0.002666528852098754,
0.002793017456359102,-0.031042669187079083,
0.0028428927680798004,0.0001052962569344229,
0.0028927680798004987,-0.01768875818764231,
0.002942643391521197,-0.021647829875288627,
0.0029925187032418953,-0.0360500438695525,
0.0030423940149625936,-0.03764493330333171,
0.003092269326683292,-0.010050715770059691,
0.00314214463840399,-0.051481868170047775,
0.0031920199501246885,-0.03279268606502392,
0.0032418952618453864,-0.0212153271124852,
0.0032917705735660847,-0.05452306084720992,
0.003341645885286783,-0.03522083982233555,
0.0033915211970074813,-0.032705319720392784,
0.0034413965087281796,-0.011315393562334582,
0.003491271820448878,0.0011540753807332653,
0.003541147132169576,0.0007012214054407453,
0.0035910224438902745,0.0055802785535577545,
0.0036408977556109724,0.017890472393413154,
0.0036907730673316707,0.012454862203130919,
0.003740648379052369,-0.018900729646461112,
0.0037905236907730673,0.0009284090062985362,
0.0038403990024937656,-0.02258367764440291,
0.003890274314214464,-0.0063208300557599335,
0.003940149625935162,-0.018027677752668485,
0.00399002493765586,-0.00991306488680691,
0.004039900249376558,-0.005624357424740546,
0.004089775561097257,-0.017376757867716267,
0.004139650872817955,-0.017946089869447596,
0.004189526184538653,0.00879207699185733,
0.004239401496259352,-0.00403125471982482,
0.00428927680798005,0.020694384351395978,
0.004339152119700748,-0.01687893748607524,
0.0043890274314214465,-0.009688461426737226,
0.004438902743142145,-0.014604573679157084,
0.004488778054862843,-0.01359697436517954,
0.004538653366583541,0.0024036367616595312,
0.00458852867830424,0.006772926031181225,
0.004638403990024938,-0.00904325179302084,
0.0046882793017456355,-0.003534887770751045,
0.004738154613466334,0.0013941196746771745,
0.004788029925187032,-0.005701766306004908,
0.00483790523690773,-0.010645295976034988,
0.004887780548628429,-0.008452183577476586,
0.004937655860349127,-0.0026749699568278658,
0.004987531172069825,0.01341951560350664,
0.005037406483790524,-0.00045627285563394713,
0.005087281795511222,0.001149325136306641,
0.00513715710723192,-0.015464908810315653,
0.0051870324189526185,0.011604619030852234,
0.005236907730673317,-0.025587416107352868,
0.005286783042394015,0.0015726729263376535,
0.0053366583541147134,0.014307719938460806,
0.005386533665835412,0.0049784495322047345,
0.00543640897755611,0.009562737752676985,
0.005486284289276808,-0.00665321712629166,
0.005536159600997507,-0.022594062509652072,
0.005586034912718204,-0.010587639237914226,
0.005635910224438902,0.005682639543856853,
0.005685785536159601,0.00745100468356848,
0.005735660847880299,-0.029604761816178934,
0.005785536159600997,-0.00999682178071149,
0.005835411471321696,0.014790385852864091,
0.005885286783042394,0.014576721309829663,
0.005935162094763092,0.011039977394163018,
0.0059850374064837905,0.007381152341997484,
0.006034912718204489,0.016471549196573267,
0.006084788029925187,0.015849239060078877,
0.0061346633416458855,-0.021359719838940142,
0.006184538653366584,-0.008397066358577978,
0.006234413965087282,-0.01394197260467386,
0.00628428927680798,-0.030397625758854244,
0.006334164588528679,0.003113508936000126,
0.006384039900249377,-0.02210273260554925,
0.006433915211970074,0.007662187436956418,
0.006483790523690773,-0.0038366339779485753,
0.006533665835411471,-0.009150616869138314,
0.006583541147132169,-0.002094770648125779,
0.006633416458852868,-0.003622688598585857,
0.006683291770573566,-0.027750731782436082,
0.006733167082294264,-0.008083054195459472,
0.0067830423940149626,-0.0023478200800792553,
0.006832917705735661,-0.0031522804371374533,
0.006882793017456359,-0.01874144281436114,
0.0069326683291770575,0.008622446342249734,
0.006982543640897756,0.012397522581868946,
0.007032418952618454,-0.004362825898883327,
0.007082294264339152,0.016425387041111877,
0.007132169576059851,0.023887131503912362,
0.007182044887780549,0.006948343234055343,
0.007231920199501247,0.013354751138820155,
0.007281795511221945,0.01951689622960897,
0.007331670822942643,0.018592649460223286,
0.007381546134663341,0.02992893876908876,
0.00743142144638404,-0.008122753485689319,
0.007481296758104738,0.020990800014023304,
0.007531172069825436,0.003484322256555818,
0.007581047381546135,0.009295677084776506,
0.007630922693266833,0.0072192811904858,
0.007680798004987531,0.02310059182543049,
0.0077306733167082295,-0.017308709604138446,
0.007780548628428928,-0.003613765053227462,
0.007830423940149626,0.01106246153485005,
0.007880299251870324,-0.0071008582966301335,
0.007930174563591023,-0.0064598797837099285,
0.00798004987531172,0.0028624707737029045,
0.00802992518703242,0.02532658325605036,
0.008079800498753117,0.018683507578380283,
0.008129675810473816,0.005620743355868497,
0.008179551122194513,0.02095007484041155,
0.008229426433915213,0.025505261704546173,
0.00827930174563591,0.03078695516074937,
0.00832917705735661,0.013050905088322875,
0.008379052369077307,0.028597475280635852,
0.008428927680798006,0.03777215202345483,
0.008478802992518703,-0.011644603335642819,
0.0085286783042394,0.008268333354771357,
0.0085785536159601,0.03811541457373751,
0.008628428927680797,0.016255079977625576,
0.008678304239401496,0.010104290365719536,
0.008728179551122194,0.0374581813916596,
0.008778054862842893,0.016460308025482876,
0.00882793017456359,0.008791936741482986,
0.00887780548628429,0.016788567696263166,
0.008927680798004987,0.009818245708369281,
0.008977556109725686,0.017073717218457834,
0.009027431421446384,0.031256271159176514,
0.009077306733167083,0.0019545674730771147,
0.00912718204488778,0.030357426458295776,
0.00917705735660848,-0.0017777924512389943,
0.009226932668329177,0.003989219151966775,
0.009276807980049876,0.026061174769177332,
0.009326683291770574,0.03387424330285858,
0.009376558603491271,0.04156210914238166,
0.00942643391521197,0.014413202782514265,
0.009476309226932668,0.028836101844700944,
0.009526184538653367,0.027974876587882017,
0.009576059850374064,0.017008951488906476,
0.009625935162094763,-0.015447202259382183,
0.00967581047381546,0.025867072221243514,
0.00972568578553616,0.020214387066374847,
0.009775561097256857,0.007890990700255722,
0.009825436408977557,-0.006309332968956381,
0.009875311720698254,-0.007222145054643858,
0.009925187032418953,0.015068323109913382,
0.00997506234413965,0.0013491136184276345,
0.01002493765586035,0.022557574286833484,
0.010074812967581047,0.02571152509401504,
0.010124688279301746,0.014873445816156475,
0.010174563591022444,0.03249777486701547,
0.010224438902743141,0.018704976204579934,
0.01027431421446384,0.04368611030950871,
0.010324189526184538,0.05204270419022412,
0.010374064837905237,0.031486004306191924,
0.010423940149625935,0.03847605457896626,
0.010473815461346634,0.04245454618772196,
0.010523690773067331,0.0025547634289563477,
0.01057356608478803,0.013228712365394187,
0.010623441396508728,0.02062771273974993,
0.010673316708229427,0.032444748481371605,
0.010723192019950124,0.020331127984250002,
0.010773067331670824,0.03494086620889458,
0.010822942643391521,-0.006132660399769643,
0.01087281795511222,0.014064415813424736,
0.010922693266832918,0.0010487803950941128,
0.010972568578553617,0.044200554988336305,
0.011022443890274314,0.03386532891899839,
0.011072319201995013,0.032077164815506015,
0.01112219451371571,0.031347155863316246,
0.011172069825436408,0.02869829542875784,
0.011221945137157107,0.006651098793607351,
0.011271820448877805,0.022767727063827348,
0.011321695760598504,0.027984661329278217,
0.011371571072319201,0.015070426128907117,
0.0114214463840399,0.047739742862736176,
0.011471321695760598,0.016500689744117024,
0.011521197007481297,0.01064611234550667,
0.011571072319201995,0.02708397969879048,
0.011620947630922694,0.014384709470088516,
0.011670822942643391,0.03631022240022069,
0.01172069825436409,0.026175469680018396,
0.011770573566084788,0.02602708446165765,
0.011820448877805487,0.022437510165446293,
0.011870324189526184,0.008012911981409748,
0.011920199501246884,0.019134452432428294,
0.011970074812967581,-0.007325625838683868,
0.012019950124688279,0.025004286371074193,
0.012069825436408978,0.05163765047069353,
0.012119700748129675,0.013098693332114934,
0.012169576059850374,0.03220918937317287,
0.012219451371571072,0.04043278625936333,
0.012269326683291771,0.02999573877904295,
0.012319201995012468,0.020278924866163964,
0.012369077306733168,0.024388352663192576,
0.012418952618453865,0.013689811752347326,
0.012468827930174564,0.04173987771492052,
0.012518703241895262,0.04985886735295346,
0.01256857855361596,0.02663891243974354,
0.012618453865336658,-0.006962805339921257,
0.012668329177057357,0.02617478931733022,
0.012718204488778055,0.019817646931933684,
0.012768079800498754,4.5099922807632226e-05,
0.012817955112219451,-0.008648962431927153,
0.012867830423940149,0.012564099183378783,
0.012917705735660848,0.012958388824161797,
0.012967581047381545,0.009010598391378997,
0.013017456359102245,-0.009992449647099489,
0.013067331670822942,0.018890811734086375,
0.013117206982543641,0.0025238373695519144,
0.013167082294264339,0.005409778012728888,
0.013216957605985038,-0.010648018019356074,
0.013266832917705735,0.04704446191900268,
0.013316708229426434,0.017563985381603264,
0.013366583541147132,0.029432394185851907,
0.013416458852867831,-0.018357054558307044,
0.013466334164588529,0.0012283066968383338,
0.013516209476309228,0.012061564982922036,
0.013566084788029925,0.011636319232793164,
0.013615960099750624,0.03836638792268797,
0.013665835411471322,0.015842360475978222,
0.01371571072319202,0.03982160805653699,
0.013765586034912718,0.020855483518455887,
0.013815461346633416,0.0016843595190411467,
0.013865336658354115,0.023555971688526273,
0.013915211970074812,0.033680106045104345,
0.013965087281795512,0.010079291329848786,
0.014014962593516209,0.028974872443642573,
0.014064837905236908,0.0011020506290279567,
0.014114713216957606,-0.0016724344415916803,
0.014164588528678305,0.01471314803172078,
0.014214463840399002,0.014253252140147266,
0.014264339152119701,0.016586474644894243,
0.014314214463840399,0.004032713226596784,
0.014364089775561098,0.01533220348635005,
0.014413965087281795,0.021463377987927176,
0.014463840399002495,0.003782916427485342,
0.014513715710723192,0.009375720367064603,
0.01456359102244389,0.008601375819274433,
0.014613466334164589,-0.015310792877531475,
0.014663341645885286,0.006005471677306171,
0.014713216957605985,0.0011448151298578185,
0.014763092269326683,0.016259422651151635,
0.014812967581047382,-0.011892074851797808,
0.01486284289276808,-0.008149230813591861,
0.014912718204488778,-0.007816094931492035,
0.014962593516209476,0.0046864195301498735,
0.015012468827930175,-0.016190284648401436,
0.015062344139650873,-0.005887080833493612,
0.015112219451371572,0.0052961551456957535,
0.01516209476309227,0.0012062965131692752,
0.015211970074812968,-0.002232236338892934,
0.015261845386533666,-0.0011566358338059406,
0.015311720698254365,-0.0006583568831047262,
0.015361596009975062,-0.009369680277813944,
0.01541147132169576,0.0014147277091920295,
0.015461346633416459,0.03752360831115867,
0.015511221945137156,-0.018140915285699225,
0.015561097256857856,0.008705943330656935,
0.015610972568578553,-0.005212453715930416,
0.015660847880299252,0.01251208451282974,
0.01571072319201995,0.000247993452317389,
0.015760598503740647,-0.006000867393836096,
0.015810473815461346,0.011697569160936212,
0.015860349127182045,0.0020039235563863865,
0.015910224438902745,0.015840960115120446,
0.01596009975062344,0.0029961552112970874,
0.01600997506234414,-0.01924464894122296,
0.01605985037406484,0.01959542718189486,
0.016109725685785538,-0.00013143088610957,
0.016159600997506234,-0.0021772060938180233,
0.016209476309226933,-0.01160648687002792,
0.016259351620947632,0.0071220217880736195,
0.016309226932668328,0.015019188550129209,
0.016359102244389027,-0.01747644309582897,
0.016408977556109726,-0.006804446247526191,
0.016458852867830425,-0.03353258939213813,
0.01650872817955112,-0.016641693443247653,
0.01655860349127182,0.0025354960466585693,
0.01660847880299252,0.0012143370982820754,
0.01665835411471322,-0.02444387391090657,
0.016708229426433914,0.011469746625684167,
0.016758104738154613,0.02794961854493607,
0.016807980049875312,-0.044618550615047575,
0.01685785536159601,1.9268283907997175e-07,
0.016907730673316707,0.015220171265782786,
0.016957605985037406,0.004642996827753541,
0.017007481296758106,-0.01853882492789138,
0.0170573566084788,-0.014274078798794929,
0.0171072319201995,0.018609243264891117,
0.0171571072319202,-0.009837227892356765,
0.0172069825436409,-0.015167206619385622,
0.017256857855361595,-0.0021250025553608866,
0.017306733167082294,-0.00619385712805495,
0.017356608478802993,-0.01321829878877606,
0.017406483790523692,-0.0033527809511353004,
0.017456359102244388,0.01607881887824503,
0.017506234413965087,-0.022936151011760067,
0.017556109725685786,0.022713877682301663,
0.017605985037406485,0.015001591797718317,
0.01765586034912718,-0.02586975700486127,
0.01770573566084788,-0.009989588556826417,
0.01775561097256858,-0.02219775792896135,
0.01780548628428928,-0.012182968585442266,
0.017855361596009974,-0.004128134191267905,
0.017905236907730673,-0.017390317990941265,
0.017955112219451373,-0.004615694731834772,
0.018004987531172068,-0.01764400259818762,
0.018054862842892767,0.003597167860538422,
0.018104738154613467,-0.0033389052917408013,
0.018154613466334166,-0.03533665603238072,
0.01820448877805486,0.0062113045715050195,
0.01825436408977556,-0.029160210290049227,
0.01830423940149626,-0.0060279866868349135,
0.01835411471321696,-0.003156498901348656,
0.018403990024937655,-0.007107848375312328,
0.018453865336658354,-0.0234277794771797,
0.018503740648379053,-0.04056626853137775,
0.018553615960099752,-0.030385743273942688,
0.018603491271820448,-0.012766750284457446,
0.018653366583541147,-0.03876342765916713,
0.018703241895261846,-0.012677372805631285,
0.018753117206982542,-0.014228353774931986,
0.01880299251870324,0.019747734005531883,
0.01885286783042394,-0.015777024066889335,
0.01890274314214464,-0.007369470275620046,
0.018952618453865335,-0.008747059908846166,
0.019002493765586034,-0.033463727053359274,
0.019052369077306733,-0.015586987237373973,
0.019102244389027433,-0.02006090941303665,
0.01915211970074813,-0.0288353374306667,
0.019201995012468828,-0.021336864753968524,
0.019251870324189527,-0.0011532871396536162,
0.019301745635910226,-0.010574342276208019,
0.01935162094763092,0.025663793949178452,
0.01940149625935162,-0.02963543516931371,
0.01945137157107232,-0.03499167871368761,
0.01950124688279302,-0.028644049996139065,
0.019551122194513715,-0.03445196508747865,
0.019600997506234414,-0.013909158170218835,
0.019650872817955113,-0.013240974703807841,
0.01970074812967581,-0.02043429860907677,
0.019750623441396508,-0.035162830750022855,
0.019800498753117207,-0.027864658756940615,
0.019850374064837906,-0.012493561709203932,
0.019900249376558602,-0.03599787451798275,
0.0199501246882793,-0.016050667005439775,
0.02,-0.02299451944984647,
0.0200498753117207,-0.02657708224158122,
0.020099750623441395,-0.011503143315772554,
0.020149625935162094,0.016435418037394563,
0.020199501246882794,-0.011493958192616137,
0.020249376558603493,-0.016933825020140042,
0.02029925187032419,-0.016076171788633707,
0.020349127182044888,-0.005592811415396474,
0.020399002493765587,-0.03272238834834786,
0.020448877805486283,-0.048024811962117095,
0.02049875311720698,-0.029478534726297974,
0.02054862842892768,-0.01694011854064997,
0.02059850374064838,-0.016808937342075753,
0.020648379052369076,0.01641063815294539,
0.020698254364089775,-0.022987607983396923,
0.020748129675810474,-0.013917015344100066,
0.020798004987531173,-0.015121545772145749,
0.02084788029925187,-0.006093616636269481,
0.020897755610972568,-0.00853457687301947,
0.020947630922693267,-0.02549727935276397,
0.020997506234413967,-0.01378721683972696,
0.021047381546134662,-0.024982604605782673,
0.02109725685785536,-0.008803947119572107,
0.02114713216957606,-0.028527657623332203,
0.02119700748129676,-0.007781110769759899,
0.021246882793017455,-0.01993702833739153,
0.021296758104738155,0.005273041658217962,
0.021346633416458854,-0.03262891904363242,
0.02139650872817955,-0.01883849895095291,
0.02144638403990025,-0.017408101082497664,
0.021496259351620948,-0.026132850851561147,
0.021546134663341647,-0.015408198388380147,
0.021596009975062343,-0.013646873322668621,
0.021645885286783042,-0.044173916969033576,
0.02169576059850374,-0.024411638956120238,
0.02174563591022444,-0.009368539975448424,
0.021795511221945136,-0.02958719226811031,
0.021845386533665835,-0.04676300588342369,
0.021895261845386534,-0.011812525057690346,
0.021945137157107233,-0.011931544238036025,
0.02199501246882793,-0.04438781245104076,
0.02204488778054863,-0.023759969456707778,
0.022094763092269327,0.006258864650946282,
0.022144638403990027,0.011985100295630793,
0.022194513715710722,-0.023460186569492697,
0.02224438902743142,-0.024348592403122038,
0.02229426433915212,-0.011678136569146118,
0.022344139650872816,-0.04160079372850037,
0.022394014962593516,-0.014043950000102407,
0.022443890274314215,-0.02902429153518451,
0.022493765586034914,-0.001973378158525824,
0.02254364089775561,-0.01993529572875131,
0.02259351620947631,-0.013282308782063382,
0.022643391521197008,-0.021626270310295567,
0.022693266832917707,-0.021148325394742234,
0.022743142144638403,0.0017647971681478136,
0.022793017456359102,-0.020492732092837574,
0.0228428927680798,-0.014808247074516534,
0.0228927680798005,-0.02757404858077228,
0.022942643391521196,-0.01860653461127035,
0.022992518703241895,-0.02469607552932528,
0.023042394014962594,-0.028142751289343047,
0.02309226932668329,0.004724892347087686,
0.02314214463840399,-0.020399212194150956,
0.02319201995012469,-0.024451450923331307,
0.023241895261845388,-0.0038599929906003895,
0.023291770573566083,0.002959311908707867,
0.023341645885286783,-0.020766452064240735,
0.02339152119700748,-0.013200296173821378,
0.02344139650872818,-0.03796645834742454,
0.023491271820448877,-0.013888235983316812,
0.023541147132169576,-0.025827145022660154,
0.023591022443890275,-0.013725240428360031,
0.023640897755610974,-0.018228115838338613,
0.02369077306733167,-0.004466839321332772,
0.02374064837905237,0.013590843316088197,
0.023790523690773068,-0.0049812788652284215,
0.023840399002493767,-0.01221525399104659,
0.023890274314214463,-0.016309975887008738,
0.023940149625935162,-0.009678407215607105,
0.02399002493765586,-0.030223343753078568,
0.024039900249376557,-0.004922369004685016,
0.024089775561097256,-0.001568895074788506,
0.024139650872817955,-0.008089312306539415,
0.024189526184538655,-0.024249030759770446,
0.02423940149625935,-0.01022692585781822,
0.02428927680798005,-0.014773576053511737,
0.02433915211970075,0.008730056059108145,
0.024389027431421448,-0.02194924058882134,
0.024438902743142144,0.0027381841495376265,
0.024488778054862843,-0.014745135277761908,
0.024538653366583542,-0.014972036231625751,
0.02458852867830424,0.0001550332528816702,
0.024638403990024937,-0.007156551298437874,
0.024688279301745636,-0.004462404945687731,
0.024738154613466335,-0.0016381045355272146,
0.02478802992518703,0.006925929813037017,
0.02483790523690773,-0.0011409338108361818,
0.02488778054862843,0.004454872576547036,
0.02493765586034913,0.008300900423967078,
0.024987531172069824,-0.022339755630447683,
0.025037406483790523,-0.012702654288481576,
0.025087281795511222,0.013092862026882361,
0.02513715710723192,0.0044938238951094415,
0.025187032418952617,-0.004961841347246084,
0.025236907730673316,-0.002387762770297921,
0.025286783042394016,-0.018220109779032625,
0.025336658354114715,0.030839048530409165,
0.02538653366583541,-0.016872586041902914,
0.02543640897755611,-0.02164195625077377,
0.02548628428927681,-0.009178114379298743,
0.025536159600997508,0.001762041339704678,
0.025586034912718204,-0.037921706294189624,
0.025635910224438903,0.0054412827400520895,
0.025685785536159602,-0.00504137254179466,
0.025735660847880298,-0.011039767066873473,
0.025785536159600997,0.016789624526702733,
0.025835411471321696,-0.001282340392283935,
0.025885286783042395,-0.030536341774572557,
0.02593516209476309,-0.012602052167106206,
0.02598503740648379,-0.02814686909431022,
0.02603491271820449,-0.0027989693604495093,
0.02608478802992519,-0.018419719430498315,
0.026134663341645884,0.012748210813827179,
0.026184538653366583,0.02978465725681669,
0.026234413965087282,0.024067388078364647,
0.02628428927680798,0.016259720401804408,
0.026334164588528677,-0.012775335884471403,
0.026384039900249377,0.010198261048609488,
0.026433915211970076,-0.025816300635416914,
0.02648379052369077,0.00321383245743582,
0.02653366583541147,0.01852825659961077,
0.02658354114713217,0.0025395339694400804,
0.02663341645885287,-0.004423420627981824,
0.026683291770573565,0.02920422714974004,
0.026733167082294264,0.01915167003509275,
0.026783042394014963,-0.009647011094387552,
0.026832917705735662,0.013120829104680279,
0.026882793017456358,0.007657837084694591,
0.026932668329177057,0.013678845149529502,
0.026982543640897756,0.014467997271546094,
0.027032418952618455,0.015863924522095302,
0.02708229426433915,0.024409385732986524,
0.02713216957605985,0.015451353127027605,
0.02718204488778055,0.01612352718150711,
0.02723192019950125,0.041893066173304,
0.027281795511221944,-0.0062322013971165095,
0.027331670822942643,-0.01183928522249778,
0.027381546134663343,0.009102224797210843,
0.02743142144638404,0.018422782365583385,
0.027481296758104738,0.0027917787227774785,
0.027531172069825437,0.02893130833910122,
0.027581047381546136,0.0267267094073216,
0.02763092269326683,0.0126820543464702,
0.02768079800498753,0.031076062434941362,
0.02773067331670823,0.0029890544691580367,
0.02778054862842893,0.00808631081340009,
0.027830423940149625,0.02260663543048761,
0.027880299251870324,0.02149904095683871,
0.027930174563591023,0.044978175212354025,
0.027980049875311722,0.02362827046746281,
0.028029925187032418,0.009418433616009095,
0.028079800498753117,0.007414931103973986,
0.028129675810473816,0.005984858054867488,
0.028179551122194512,0.011283324331050294,
0.02822942643391521,-0.003828864170917899,
0.02827930174563591,0.01079638281059384,
0.02832917705735661,0.007425179866971065,
0.028379052369077305,-0.0028880128241128775,
0.028428927680798004,0.006340531496909668,
0.028478802992518704,0.030108178617656835,
0.028528678304239403,0.02680725113699474,
0.0285785536159601,0.03618455926638743,
0.028628428927680798,0.010521399678792485,
0.028678304239401497,0.017780820657205685,
0.028728179551122196,0.04325111774973335,
0.02877805486284289,-0.003396299494672919,
0.02882793017456359,0.03363979334727272,
0.02887780548628429,0.004603782905570487,
0.02892768079800499,0.02359158571516094,
0.028977556109725685,0.02472788115404958,
0.029027431421446384,0.027707047807791062,
0.029077306733167083,0.012525261878523023,
0.02912718204488778,0.020345802044305167,
0.029177057356608478,0.021382939486645148,
0.029226932668329177,0.024790086523894955,
0.029276807980049877,0.029526120424678528,
0.029326683291770572,-0.00029405310973860954,
0.02937655860349127,0.022950838205179035,
0.02942643391521197,0.039063794200663915,
0.02947630922693267,0.01945845226311944,
0.029526184538653365,0.027226085119474757,
0.029576059850374065,0.0009137300491304963,
0.029625935162094764,0.025892573607289616,
0.029675810473815463,0.03636357362600298,
0.02972568578553616,0.006494275692946876,
0.029775561097256858,0.0618642903671218,
0.029825436408977557,0.004508306405558847,
0.029875311720698253,-0.00473607588304446,
0.029925187032418952,0.007786903470290462,
0.02997506234413965,0.007717439332354225,
0.03002493765586035,0.006812312425900188,
0.030074812967581046,0.0524300822250613,
0.030124688279301745,0.036505655440615785,
0.030174563591022444,-0.0030045189706315242,
0.030224438902743143,0.014081912303519024,
0.03027431421446384,0.00875499017140509,
0.03032418952618454,0.0010302644648968844,
0.030374064837905237,0.014011488111833061,
0.030423940149625937,0.0067908255730487095,
0.030473815461346632,0.040745217932448966,
0.03052369077306733,0.05251214855343968,
0.03057356608478803,0.008514364555251818,
0.03062344139650873,0.04460504705900174,
0.030673316708229426,0.02343291889500209,
0.030723192019950125,0.044135105614915196,
0.030773067331670824,0.009408042845791078,
0.03082294264339152,0.033977085782764586,
0.03087281795511222,0.022852437063381827,
0.030922693266832918,0.02308877574062606,
0.030972568578553617,0.027582758073411418,
0.031022443890274313,0.003128667918340919,
0.031072319201995012,0.03911058370263387,
0.03112219451371571,0.02127359865372385,
0.03117206982543641,0.0075833661963090136,
0.031221945137157106,0.031162024300026327,
0.03127182044887781,0.008112561087142759,
0.031321695760598504,0.018577363396412597,
0.0313715710723192,0.006041891538387727,
0.0314214463840399,0.047285117405140284,
0.0314713216957606,0.02340479608051402,
0.031521197007481294,0.03357365065592676,
0.031571072319202,0.013703664542731881,
0.03162094763092269,0.06063998821512359,
0.03167082294264339,0.00873315590025371,
0.03172069825436409,0.03107349528505412,
0.03177057356608479,0.029382457987715424,
0.03182044887780549,0.01575167813038257,
0.031870324189526185,0.027445911365891067,
0.03192019950124688,-0.004567188236323936,
0.03197007481296758,0.010493200013592571,
0.03201995012468828,0.037772267007286434,
0.032069825436408975,0.009850356091841688,
0.03211970074812968,0.03222604480437703,
0.03216957605985037,0.001855038964126917,
0.032219451371571076,0.055841300148973254,
0.03226932668329177,0.03264996874893379,
0.03231920199501247,0.004737832442674315,
0.03236907730673317,0.009609871464882966,
0.032418952618453865,0.019994672544027668,
0.03246882793017456,0.03611532202500256,
0.032518703241895264,0.0268033025712894,
0.03256857855361596,0.014788848086630852,
0.032618453865336655,0.02767203640099669,
0.03266832917705736,0.02703973229841888,
0.032718204488778053,0.031713150703734094,
0.032768079800498756,0.013284572352176042,
0.03281795511221945,0.009283012947482483,
0.03286783042394015,0.02752792265974382,
0.03291770573566085,-0.021253557395896697,
0.032967581047381546,0.01939656500373958,
0.03301745635910224,0.01433735931374634,
0.033067331670822944,0.005914227342149553,
0.03311720698254364,0.027827158301787218,
0.03316708229426434,0.004652387980787161,
0.03321695760598504,-0.024299982037018122,
0.033266832917705734,0.008696094868197396,
0.03331670822942644,0.021134419998937705,
0.03336658354114713,0.017596449588948057,
0.03341645885286783,0.002100179913239148,
0.03346633416458853,0.01192740514740279,
0.033516209476309226,0.027515444538992913,
0.03356608478802992,0.015525554347954119,
0.033615960099750625,0.02820436486628926,
0.03366583541147132,-0.004060024515323262,
0.03371571072319202,0.02619843803292142,
0.03376558603491272,0.003843323178288718,
0.033815461346633414,-0.01435912935675663,
0.03386533665835412,-0.005665072342195224,
0.03391521197007481,0.016987286629209977,
0.03396508728179551,0.015899242297157376,
0.03401496259351621,0.007660312756560624,
0.03406483790523691,0.0257993491589008,
0.0341147132169576,-0.013561991466202824,
0.034164588528678305,0.03412810998397058,
0.034214463840399,0.017343242698956995,
0.034264339152119704,0.01308402360060486,
0.0343142144638404,0.032847074298984924,
0.034364089775561095,-0.013440938477236278,
0.0344139650872818,0.005680109330867483,
0.03446384039900249,0.03806793019984544,
0.03451371571072319,0.016274549031194636,
0.03456359102244389,0.015842981864139818,
0.03461346633416459,0.015112846234647216,
0.03466334164588529,0.01115122570480073,
0.034713216957605986,0.02592229689204982,
0.03476309226932668,0.03477227286308985,
0.034812967581047384,0.03640219633796601,
0.03486284289276808,0.0043815261077254,
0.034912718204488775,0.008344639220953723,
0.03496259351620948,-0.011566361148215777,
0.035012468827930174,0.003034512074624523,
0.03506234413965087,0.004261157113086812,
0.03511221945137157,-0.005507262862404447,
0.03516209476309227,0.0055649222919240725,
0.03521197007481297,-0.014663651212460282,
0.035261845386533666,-0.020792676592314797,
0.03531172069825436,-0.00998229410241877,
0.035361596009975065,-0.03284594758254755,
0.03541147132169576,-0.007761826027446855,
0.035461346633416456,-0.001655755940400969,
0.03551122194513716,0.01984907701345867,
0.035561097256857854,0.015247240414000107,
0.03561097256857856,-0.0163371725116193,
0.03566084788029925,-0.006129303271482194,
0.03571072319201995,0.014829901817682517,
0.03576059850374065,0.0033366378700159915,
0.03581047381546135,-0.016045173269730595,
0.03586034912718204,-0.005731979783435046,
0.035910224438902745,-0.0022194909959703944,
0.03596009975062344,-0.010582838770880195,
0.036009975062344136,-0.03160300333607268,
0.03605985037406484,0.005868526666107226,
0.036109725685785535,-0.024644127240055512,
0.03615960099750624,-0.0014014005684411677,
0.03620947630922693,-0.02347196696820154,
0.03625935162094763,0.024430328738734918,
0.03630922693266833,0.006701033315871881,
0.03635910224438903,-0.01534590270969813,
0.03640897755610972,0.0033209218571790358,
0.036458852867830426,-0.005116547930635504,
0.03650872817955112,-0.0001250498939566302,
0.036558603491271824,-0.008324935638092614,
0.03660847880299252,-0.01725588655031447,
0.036658354114713215,0.03788670579709427,
0.03670822942643392,-0.012077135852651423,
0.036758104738154614,0.005899518041143302,
0.03680798004987531,0.015834035589238786,
0.03685785536159601,-0.0049810023172824295,
0.03690773067331671,0.005810315399394409,
0.0369576059850374,0.005638076274611825,
0.037007481296758106,-0.0005727110721994249,
0.0370573566084788,-0.007478392183590395,
0.037107231920199504,0.04193221208007963,
0.0371571072319202,0.0002841225898890234,
0.037206982543640896,0.007141456403800121,
0.0372568578553616,-0.029378354557103886,
0.037306733167082294,-0.010538248570190738,
0.03735660847880299,-0.0006210455922136546,
0.03740648379052369,-0.01125399787795995,
0.03745635910224439,-0.0061966559761520235,
0.037506234413965084,0.005112793581780335,
0.037556109725685786,0.018187919585679408,
0.03760598503740648,0.02154150668022394,
0.037655860349127185,0.006949165297265246,
0.03770573566084788,-0.006809095212935563,
0.037755610972568576,-0.011706769092465895,
0.03780548628428928,-0.000564390689657893,
0.037855361596009975,-0.005998888997320453,
0.03790523690773067,-0.01244172147715987,
0.03795511221945137,-0.0014532424047396025,
0.03800498753117207,0.006182479890328323,
0.03805486284289277,-0.018064640024957956,
0.03810473815461347,-0.023433211643125496,
0.03815461346633416,-0.0019757116721909555,
0.038204488778054865,-0.023418128817302843,
0.03825436408977556,-0.022249524138275797,
0.03830423940149626,-0.00756971460402875,
0.03835411471321696,-0.023329429661819476,
0.038403990024937655,-0.019618422987385697,
0.03845386533665835,-0.014303169088470322,
0.03850374064837905,-0.0182849946681566,
0.03855361596009975,-0.006775738098646547,
0.03860349127182045,-0.024861410756509977,
0.03865336658354115,-0.00990509778991977,
0.03870324189526184,-0.003962520491101452,
0.038753117206982546,-0.013877678075604465,
0.03880299251870324,-0.02920535248186886,
0.03885286783042394,0.02606348580050026,
0.03890274314214464,-0.00360867200761553,
0.038952618453865336,-0.005418375426593411,
0.03900249376558604,-0.0005243246343231821,
0.039052369077306734,0.0034931844600872286,
0.03910224438902743,-0.031005967522077398,
0.03915211970074813,-0.010849165750245443,
0.03920199501246883,-0.0050518475248311386,
0.039251870324189524,-0.015006811884871027,
0.039301745635910226,-0.01605745585237359,
0.03935162094763092,-0.027712892247520583,
0.03940149625935162,-0.0071102752551810075,
0.03945137157107232,-0.02317754180132992,
0.039501246882793016,-0.03730808137669427,
0.03955112219451372,0.001313675509896764,
0.039600997506234414,-0.013559674876061314,
0.03965087281795511,-0.037139692157419434,
0.03970074812967581,-0.006636620772964811,
0.03975062344139651,-0.010006389431859442,
0.039800498753117204,-0.03668178476313678,
0.03985037406483791,-0.01517188012598064,
0.0399002493765586,-0.013977169236859757,
0.039950124688279305,-0.008417723940951931,
0.04,-0.017090230276533724,
0.0400498753117207,-0.01303679055853055,
0.0400997506234414,-0.030746602915491694,
0.040149625935162095,0.005029504422581908,
0.04019950124688279,-0.032895528488882234,
0.04024937655860349,-0.003724123709453641,
0.04029925187032419,-0.01949449031265008,
0.040349127182044885,-0.022000482195313153,
0.04039900249376559,-0.013011581435362941,
0.04044887780548628,-0.01711721849198143,
0.040498753117206986,-0.005676547539164616,
0.04054862842892768,-0.00996070365777971,
0.04059850374064838,-0.051347918399986064,
0.04064837905236908,-0.018260842514788253,
0.040698254364089775,0.015548855486638494,
0.04074812967581047,-0.015105027652962599,
0.040798004987531174,-0.028440837809753233,
0.04084788029925187,-0.03058877857356554,
0.040897755610972565,-0.020197703990847284,
0.04094763092269327,-0.005463692482602332,
0.04099750623441396,-0.021196430372438575,
0.041047381546134666,-0.015901782204025435,
0.04109725685785536,0.002067486483767207,
0.04114713216957606,-0.017594453599331063,
0.04119700748129676,-0.03244239933567568,
0.041246882793017456,-0.013611892056209472,
0.04129675810473815,-0.03290025719734667,
0.041346633416458854,-0.021380011671106557,
0.04139650872817955,-0.06220542054665203,
0.04144638403990025,-0.02265257811628251,
0.04149625935162095,-0.016190256824463407,
0.041546134663341644,-0.0005258031422070257,
0.04159600997506235,-0.011742627000806482,
0.04164588528678304,-0.009389286729006283,
0.04169576059850374,0.014267327667189692,
0.04174563591022444,-0.015128989726928159,
0.041795511221945136,-0.012896372725195218,
0.04184538653366583,-0.004970751887329379,
0.041895261845386535,-0.0013287309773570549,
0.04194513715710723,-0.011594589431557584,
0.04199501246882793,0.006938896620885506,
0.04204488778054863,-0.009792478449222998,
0.042094763092269324,-0.02604834943283004,
0.04214463840399003,-0.031916510516590405,
0.04219451371571072,-0.011513419090710415,
0.04224438902743142,-0.004049528140074974,
0.04229426433915212,-0.01180240350864202,
0.04234413965087282,-0.02870709082739926,
0.04239401496259352,-0.011456877501194423,
0.042443890274314215,-0.015600726429362072,
0.04249376558603491,-0.00804739102305068,
0.042543640897755614,-0.014524973964717644,
0.04259351620947631,0.009562455636947607,
0.042643391521197005,-0.006600862197062128,
0.04269326683291771,0.01900328917178957,
0.0427431421446384,-0.04180074573379126,
0.0427930174563591,-0.013328600312959293,
0.0428428927680798,-0.002041274666762979,
0.0428927680798005,-0.017660538171664866,
0.0429426433915212,-0.026725932267076417,
0.042992518703241896,-0.030868533240389892,
0.04304239401496259,-0.0024016716663626397,
0.043092269326683294,-0.0007407500993579091,
0.04314214463840399,0.010625935077062682,
0.043192019950124685,-0.002231903264596406,
0.04324189526184539,-0.010952654705119873,
0.043291770573566084,-0.011103537862715234,
0.043341645885286786,-0.010286248890535981,
0.04339152119700748,-0.020162787813257695,
0.04344139650872818,-0.020215642764832495,
0.04349127182044888,-0.003051295667009228,
0.043541147132169576,-0.015072839460311904,
0.04359102244389027,0.018514265255426206,
0.043640897755610975,-0.015059804829114868,
0.04369077306733167,-0.01511875633535666,
0.043740648379052366,-0.009794915222942416,
0.04379052369077307,-0.020667810186977623,
0.043840399002493764,-0.022059638815024006,
0.04389027431421447,-0.01753590276522056,
0.04394014962593516,-0.00917535643953087,
0.04399002493765586,0.004698086616417466,
0.04403990024937656,-0.021219888086603352,
0.04408977556109726,0.018174045427889578,
0.04413965087281795,0.0046068155261321676,
0.044189526184538655,-0.02501448261041473,
0.04423940149625935,-0.024546464061427797,
0.04428927680798005,-0.01589284934990885,
0.04433915211970075,0.004484688784619624,
0.044389027431421445,-0.0007899806576890309,
0.04443890274314215,0.00539100947804266,
0.04448877805486284,0.011236410875597083,
0.04453865336658354,-0.01707030898037166,
0.04458852867830424,0.0008145600998726498,
0.04463840399002494,0.006137355221625343,
0.04468827930174563,0.0018011955047654545,
0.044738154613466335,0.009763171036220332,
0.04478802992518703,-0.008922998388014268,
0.044837905236907734,-0.023148692895930724,
0.04488778054862843,-0.013150744243249374,
0.044937655860349125,-0.006277650104998054,
0.04498753117206983,0.004866194457919289,
0.045037406483790524,-0.02122413264398196,
0.04508728179551122,-0.021778260354065274,
0.04513715710723192,0.013665977406687962,
0.04518703241895262,0.01724564644950425,
0.04523690773067331,0.008782863232354313,
0.045286783042394016,-0.00361900472304407,
0.04533665835411471,-0.003409892093455933,
0.045386533665835414,0.021320134963740495,
0.04543640897755611,0.005427700158451374,
0.045486284289276806,-0.012772022208903208,
0.04553615960099751,0.001737100126377825,
0.045586034912718204,0.01786940683535228,
0.0456359102244389,-0.009555260776910688,
0.0456857855361596,0.005344933817098942,
0.0457356608478803,-0.018441888232237774,
0.045785536159601,-0.00956180211418253,
0.045835411471321696,0.0010564662114950479,
0.04588528678304239,0.030201063557934955,
0.045935162094763095,0.004618699016967711,
0.04598503740648379,0.009808307498023614,
0.046034912718204486,0.02658628081270948,
0.04608478802992519,0.023215089834766077,
0.046134663341645885,-0.0323286358772658,
0.04618453865336658,0.0006977418970346289,
0.04623441396508728,0.018580635762620742,
0.04628428927680798,-0.0009655218468119335,
0.04633416458852868,-0.001183197157276739,
0.04638403990024938,0.009320709613920591,
0.04643391521197007,0.004638905569161681,
0.046483790523690775,-0.010585063671557218,
0.04653366583541147,0.021461785157293082,
0.04658354114713217,0.01748835702870322,
0.04663341645885287,0.012897681526905305,
0.046683291770573565,0.021646260563775586,
0.04673316708229427,0.05103376010845559,
0.04678304239401496,0.02566588842452367,
0.04683291770573566,-0.019247544102156483,
0.04688279301745636,0.03963001209864264,
0.04693266832917706,-0.01493040896307627,
0.04698254364089775,0.010980284088407814,
0.047032418952618456,-0.010467004086248352,
0.04708229426433915,0.0021738962878834808,
0.04713216957605985,-0.0037613436421006837,
0.04718204488778055,0.009651167444721685,
0.047231920199501246,0.025544808578072627,
0.04728179551122195,0.006127778290195016,
0.047331670822942644,0.016271610091141323,
0.04738154613466334,-0.0010385941111278815,
0.04743142144638404,0.02677536495388715,
0.04748129675810474,0.004589366853641716,
0.047531172069825434,0.001774625092151403,
0.047581047381546136,0.019783772746428403,
0.04763092269326683,0.0044337152260750905,
0.047680798004987535,0.011969944838499131,
0.04773067331670823,0.021790235920192802,
0.047780548628428926,0.011339102454711036,
0.04783042394014963,0.024517898540432192,
0.047880299251870324,0.006937595467781232,
0.04793017456359102,-0.007743568433538767,
0.04798004987531172,0.031470656412041,
0.04802992518703242,0.01922056295159599,
0.048079800498753114,0.016647584491934393,
0.04812967581047382,0.005790107680468795,
0.04817955112219451,0.033116964937386986,
0.048229426433915215,0.021280319751333168,
0.04827930174563591,0.0028615493528020824,
0.048329177057356607,0.00411779433663567,
0.04837905236907731,0.02742987274405412,
0.048428927680798005,0.006051956200350577,
0.0484788029925187,0.027083838517450453,
0.0485286783042394,-0.00047448074811515945,
0.0485785536159601,0.0036749580588473895,
0.048628428927680795,0.041743652931856286,
0.0486783042394015,0.003382693006142988,
0.04872817955112219,0.03405207838909427,
0.048778054862842896,0.05127781007214695,
0.04882793017456359,0.010980207279307217,
0.04887780548628429,0.024633602983997645,
0.04892768079800499,0.029757568004015026,
0.048977556109725685,0.021211856995135794,
0.04902743142144638,0.0056045910599663695,
0.049077306733167084,0.016821996454592536,
0.04912718204488778,0.019062912962487445,
0.04917705735660848,0.015836590380291074,
0.04922693266832918,0.003066881656972522,
0.04927680798004987,0.030298725629460316,
0.049326683291770576,0.02188073060870855,
0.04937655860349127,0.03392731038710134,
0.04942643391521197,0.00031446283725504454,
0.04947630922693267,0.0476935540959733,
0.049526184538653366,0.00404134400096854,
0.04957605985037406,0.03103501282998785,
0.049625935162094764,0.020539722195226748,
0.04967581047381546,0.017655937871584326,
0.04972568578553616,0.029176279937721396,
0.04977556109725686,0.017988437054674452,
0.049825436408977554,0.027254652636550695,
0.04987531172069826,0.01805860770763094,
0.04992518703241895,0.0063751939392494884,
0.04997506234413965,0.03868565519865784,
0.05002493765586035,0.02012673381074719,
0.050074812967581046,0.038411419671171246,
0.05012468827930175,0.032053134743429766,
0.050174563591022445,0.010202345170330238,
0.05022443890274314,0.009020096157686055,
0.05027431421446384,0.005721968763788887,
0.05032418952618454,0.02779830727318066,
0.050374064837905234,0.045707186700261214,
0.05042394014962594,0.02251892925214158,
0.05047381546134663,0.03990407112610719,
0.05052369077306733,0.002994685935124596,
0.05057356608478803,0.036451905857780305,
0.05062344139650873,0.010373449700962855,
0.05067331670822943,0.006903181457855668,
0.050723192019950125,0.01535577200711957,
0.05077306733167082,0.03613531487050431,
0.050822942643391524,0.02908987137700653,
0.05087281795511222,0.011312149694138804,
0.050922693266832915,0.03371779762800625,
0.05097256857855362,0.006989408427457992,
0.05102244389027431,0.010555260056161723,
0.051072319201995016,0.028992704541881173,
0.05112219451371571,0.020316851150900473,
0.05117206982543641,0.024970756682762465,
0.05122194513715711,0.026261397578546203,
0.051271820448877806,0.024247458397374202,
0.0513216957605985,0.032385564685779425,
0.051371571072319204,0.002229549677627632,
0.0514214463840399,0.07078796074031128,
0.051471321695760595,0.010822064702743198,
0.0515211970074813,0.05493073073266714,
0.051571072319201994,0.025594179591129557,
0.051620947630922696,0.05505766913352809,
0.05167082294264339,0.013968594935204082,
0.05172069825436409,0.04185328902085941,
0.05177057356608479,0.02628913450103251,
0.051820448877805486,0.04808094238466461,
0.05187032418952618,0.04691498843528386,
0.051920199501246884,0.011303046765030154,
0.05197007481296758,0.0014420837661034691,
0.052019950124688276,0.0325849838514691,
0.05206982543640898,0.029529940991812123,
0.052119700748129674,0.01816676828752032,
0.05216957605985038,0.018787621724344155,
0.05221945137157107,0.014401387044319739,
0.05226932668329177,0.03578738275877101,
0.05231920199501247,0.007889245228047567,
0.05236907730673317,0.02757019036848239,
0.05241895261845386,0.0214301259507972,
0.052468827930174565,0.0023328063578462767,
0.05251870324189526,0.023471861531618052,
0.05256857855361596,0.02755055315292404,
0.05261845386533666,0.024507061824877163,
0.052668329177057355,0.02887282888381551,
0.05271820448877806,0.006633489389022015,
0.05276807980049875,0.025384692426890884,
0.05281795511221945,0.046641193767171074,
0.05286783042394015,0.012416944550383582,
0.05291770573566085,0.033161403048463406,
0.05296758104738154,0.025837572203625352,
0.053017456359102245,0.014103840397948219,
0.05306733167082294,0.016390431919709948,
0.053117206982543644,0.034618715389634916,
0.05316708229426434,0.036783756442302445,
0.053216957605985035,0.023199575694433407,
0.05326683291770574,0.03492394178146542,
0.053316708229426434,0.041439900321461665,
0.05336658354114713,0.007267603837385823,
0.05341645885286783,0.03830514590676587,
0.05346633416458853,0.011934512511292284,
0.05351620947630923,-0.013655779227873845,
0.053566084788029926,0.012111328501492932,
0.05361596009975062,-0.010031865278214536,
0.053665835411471324,0.02081836577340578,
0.05371571072319202,0.03788835816647704,
0.053765586034912716,0.06234471029409504,
0.05381546134663342,0.024248495867060436,
0.053865336658354114,0.027458782766689616,
0.05391521197007481,-0.010443948895158796,
0.05396508728179551,0.021951151984389104,
0.05401496259351621,0.008906335757671136,
0.05406483790523691,0.04023548086684735,
0.054114713216957606,0.032925804619309135,
0.0541645885286783,0.02033658432142138,
0.054214463840399005,0.0020870241411364756,
0.0542643391521197,0.01510865120766903,
0.054314214463840396,-0.006093138036927095,
0.0543640897755611,0.01584090775674018,
0.054413965087281795,0.008940669016249705,
0.0544638403990025,-0.01966106479172,
0.05451371571072319,0.020385545747188576,
0.05456359102244389,0.014971572855925874,
0.05461346633416459,0.016897060200718857,
0.05466334164588529,0.0038845622077841105,
0.05471321695760598,0.024516815472389708,
0.054763092269326685,-0.009415973976109942,
0.05481296758104738,0.002009622480892462,
0.05486284289276808,-0.0009823082666743088,
0.05491271820448878,0.03955222460113145,
0.054962593516209475,-0.03203515544066399,
0.05501246882793018,0.02378521989685086,
0.05506234413965087,-0.0007892184688435451,
0.05511221945137157,0.0012267897915139098,
0.05516209476309227,-0.006479099739804324,
0.05521197007481297,0.001593954887768344,
0.05526184538653366,-0.006653577923053116,
0.055311720698254366,0.006484969885637268,
0.05536159600997506,-0.02477076751743161,
0.05541147132169576,-0.01608110813306743,
0.05546134663341646,0.028288200265514582,
0.055511221945137156,0.0012963414568189268,
0.05556109725685786,0.030115213241895405,
0.055610972568578554,0.006662862510370533,
0.05566084788029925,0.006574196304185987,
0.05571072319201995,0.01444585626292066,
0.05576059850374065,0.016832464425051503,
0.055810473815461344,-0.01729960301518609,
0.055860349127182046,0.017781064939927198,
0.05591022443890274,0.030878124029638493,
0.055960099750623445,-0.00038159105308120623,
0.05600997506234414,-0.008464102430473896,
0.056059850374064836,-0.01424854336069515,
0.05610972568578554,0.012156610603590145,
0.056159600997506234,0.01764825339625418,
0.05620947630922693,0.01886330540522049,
0.05625935162094763,0.008487845855440039,
0.05630922693266833,0.016779474470449727,
0.056359102244389024,-0.01205340106340036,
0.05640897755610973,-0.012056540950468327,
0.05645885286783042,0.013711874828356898,
0.056508728179551125,0.020753529591683657,
0.05655860349127182,-0.00875877427890864,
0.056608478802992516,-0.012367824243004505,
0.05665835411471322,-0.014596393497650873,
0.056708229426433915,-0.0005529676823878469,
0.05675810473815461,-0.00763666239237351,
0.05680798004987531,0.007777544759348699,
0.05685785536159601,-0.016888892561287623,
0.05690773067331671,0.010121202678014037,
0.05695760598503741,0.006097701745200606,
0.0570074812967581,-0.013900629491293053,
0.057057356608478806,-0.025109700765166047,
0.0571072319201995,0.028527088571700922,
0.0571571072319202,0.01033448254622539,
0.0572069825436409,0.0021257961418192934,
0.057256857855361595,0.004414235621222637,
0.05730673316708229,-0.03221099510538933,
0.057356608478802994,-0.022048898746296307,
0.05740648379052369,0.021932019970561534,
0.05745635910224439,0.021242061523658016,
0.05750623441396509,-0.013759780922268223,
0.05755610972568578,-0.02039080362740262,
0.057605985037406486,0.01442697467699341,
0.05765586034912718,-0.015112486661764523,
0.05770573566084788,-0.013250941835750943,
0.05775561097256858,-0.005811140057639521,
0.057805486284289276,0.011431531438574762,
0.05785536159600998,-0.01985193731026388,
0.057905236907730674,-0.020625218471251847,
0.05795511221945137,0.0014063178960293634,
0.05800498753117207,-0.007493846031007945,
0.05805486284289277,-0.0038706515167471287,
0.058104738154613464,-0.007528762679788728,
0.05815461346633417,-0.008561438922172681,
0.05820448877805486,0.011489082847096946,
0.05825436408977556,-0.00765438942920499,
0.05830423940149626,-0.010378377920488575,
0.058354114713216956,0.003234769030036338,
0.05840399002493766,-0.017301743929193855,
0.058453865336658355,0.015954419943653493,
0.05850374064837905,0.033161745252848,
0.05855361596009975,0.0069074236766225525,
0.05860349127182045,-0.0007629061724415166,
0.058653366583541144,-0.0013279138848495981,
0.05870324189526185,-0.02224922442496915,
0.05875311720698254,-0.020081285697006096,
0.05880299251870324,-0.00402556288788167,
0.05885286783042394,-0.00396097320926281,
0.05890274314214464,-0.018316995379529438,
0.05895261845386534,-0.009602060521008758,
0.059002493765586035,-0.020623342915118824,
0.05905236907730673,-0.031530981696095625,
0.059102244389027433,0.0015337697920532693,
0.05915211970074813,-0.019278051983215003,
0.059201995012468825,0.007926510059928314,
0.05925187032418953,0.014804346227749957,
0.05930174563591022,-0.010421921070424368,
0.059351620947630926,-0.006590717884448109,
0.05940149625935162,-0.00888446482940615,
0.05945137157107232,0.009558663947684176,
0.05950124688279302,-0.010700808891118165,
0.059551122194513716,0.004787012517571186,
0.05960099750623441,-0.03713280838716944,
0.059650872817955114,-0.014064899053575488,
0.05970074812967581,-0.02194341453733588,
0.059750623441396505,-0.017047182562256083,
0.05980049875311721,-0.005404412361603833,
0.059850374064837904,-0.04145477176502534,
0.059900249376558606,-0.04370203091504325,
0.0599501246882793,-0.037453906620782004,
0.06,-0.011260777705112312,
0.0600498753117207,-0.021170192238273974,
0.060099750623441396,-0.0054043451635726845,
0.06014962593516209,0.005533145947882772,
0.060199501246882794,-0.021316295236920347,
0.06024937655860349,-0.001848907825147468,
0.06029925187032419,-0.02517820234591217,
0.06034912718204489,-0.025290648590519917,
0.060399002493765584,-0.006709442189112836,
0.06044887780548629,-0.0023834833394686967,
0.06049875311720698,-0.0532157369006865,
0.06054862842892768,-0.008188472202065662,
0.06059850374064838,-0.029548330485014655,
0.06064837905236908,0.004873168856104761,
0.06069825436408977,0.004822639632840037,
0.060748129675810475,0.016646726408161897,
0.06079800498753117,-0.024401477774429033,
0.06084788029925187,-0.03628594166531063,
0.06089775561097257,-0.0376239752997994,
0.060947630922693265,-0.009602758176057874,
0.06099750623441397,-0.027464118267956316,
0.06104738154613466,-0.021271218985564274,
0.06109725685785536,0.001235980945157233,
0.06114713216957606,-0.00079524808562202,
0.06119700748129676,0.0019235273787014985,
0.06124688279301746,0.004464042778468121,
0.061296758104738155,-0.010978474290148033,
0.06134663341645885,-0.05637203109727045,
0.061396508728179554,0.005261756365227067,
0.06144638403990025,-0.03902734790784128,
0.061496259351620945,-0.004372534917472125,
0.06154613466334165,-0.00013929915822544735,
0.061596009975062344,-0.027981771292237202,
0.06164588528678304,2.7234174988030255e-05,
0.06169576059850374,-0.03131193539078799,
0.06174563591022444,-0.021171890300347752,
0.06179551122194514,-0.02133796749308726,
0.061845386533665836,-0.03067888887926197,
0.06189526184538653,-0.001365095568136217,
0.061945137157107234,-0.014123688576809918,
0.06199501246882793,-0.02793620026509886,
0.062044887780548626,-0.017222584513530384,
0.06209476309226933,-0.0006291117095389865,
0.062144638403990024,-0.025367356489421674,
0.06219451371571072,-0.03994071576736867,
0.06224438902743142,-0.024877300676202786,
0.06229426433915212,-0.009085663842452251,
0.06234413965087282,-0.025690284589168617,
0.062394014962593516,0.0021450469687800296,
0.06244389027431421,-0.030874469462033413,
0.062493765586034915,-0.017226264129962837,
0.06254364089775562,-0.001404451101669247,
0.06259351620947631,-0.01047042160974364,
0.06264339152119701,-0.006424748864773091,
0.0626932668329177,-0.04425342289515273,
0.0627431421446384,-0.005247127118827025,
0.0627930174563591,0.014291942011876346,
0.0628428927680798,0.003707103123120222,
0.0628927680798005,-0.0038427446480190797,
0.0629426433915212,-0.015438288381321162,
0.06299251870324189,-0.005417959614711836,
0.06304239401496259,0.023028978758458454,
0.0630922693266833,-0.01517234022372663,
0.063142144638404,-0.012933807109002441,
0.06319201995012469,0.006169407258128904,
0.06324189526184539,-0.029177012816103055,
0.06329177057356608,-0.022492230276618324,
0.06334164588528678,0.010297501130452264,
0.06339152119700749,-0.006245597009179228,
0.06344139650872818,0.00025532535229160457,
0.06349127182044888,-0.020509506830788435,
0.06354114713216957,-0.005022436450253735,
0.06359102244389027,-0.014657201928825012,
0.06364089775561098,-0.027030622160524983,
0.06369077306733167,0.007895507219922472,
0.06374064837905237,0.002605951535254728,
0.06379052369077307,-0.013390691252830683,
0.06384039900249376,-0.013888466912188532,
0.06389027431421446,0.007633796947044443,
0.06394014962593517,-0.01133674622782771,
0.06399002493765586,-0.03184497232075554,
0.06403990024937656,-0.018426348406705713,
0.06408977556109725,-0.0006024781748140591,
0.06413965087281795,0.012749892102862322,
0.06418952618453866,-0.003314133303756185,
0.06423940149625935,0.001584375688248354,
0.06428927680798005,-0.01900148477683239,
0.06433915211970075,-0.01357350179590357,
0.06438902743142144,-0.00672499399957527,
0.06443890274314215,-0.02433028146171608,
0.06448877805486285,0.008364576090474873,
0.06453865336658354,-0.003891206960185269,
0.06458852867830424,-0.005988490587115092,
0.06463840399002493,0.019830921277564705,
0.06468827930174563,0.003176128972248426,
0.06473815461346634,-0.006509195929739704,
0.06478802992518704,0.0019046658747861448,
0.06483790523690773,-0.02159941355570381,
0.06488778054862843,0.021417499962421368,
0.06493765586034912,0.02084756881539338,
0.06498753117206983,0.03242448753919647,
0.06503740648379053,0.00883135036265904,
0.06508728179551122,0.019395726104320513,
0.06513715710723192,-0.0013937579325454977,
0.06518703241895261,0.015697539686356808,
0.06523690773067331,-0.006174735398459812,
0.06528678304239402,0.022630467574367236,
0.06533665835411472,0.013626367809055927,
0.06538653366583541,-0.022097048337060873,
0.06543640897755611,0.01782538576291104,
0.0654862842892768,-0.007597071352965954,
0.06553615960099751,-0.037776923134253126,
0.06558603491271821,-0.014926862745540654,
0.0656359102244389,-0.017086717789765744,
0.0656857855361596,-0.007965022739667486,
0.0657356608478803,-0.005014041691884837,
0.06578553615960099,0.03911846715131034,
0.0658354114713217,-0.010157597506175977,
0.0658852867830424,-0.03854287643910569,
0.06593516209476309,-0.016430285405238693,
0.06598503740648379,-0.0022631772306608627,
0.06603491271820448,0.002219852089845839,
0.06608478802992519,0.01464493630195872,
0.06613466334164589,-0.0011009007468296582,
0.06618453865336658,-0.006022534390767205,
0.06623441396508728,0.01895294546101427,
0.06628428927680798,0.005353215617968964,
0.06633416458852869,0.013232923220346568,
0.06638403990024938,0.00872682885446127,
0.06643391521197008,-0.005395589172665711,
0.06648379052369077,0.007561454510973137,
0.06653366583541147,-0.02252179176006209,
0.06658354114713216,0.021891000816247213,
0.06663341645885287,0.017043606429180513,
0.06668329177057357,-0.006433693628312816,
0.06673316708229426,0.017157776685808618,
0.06678304239401496,-0.01834411197876272,
0.06683291770573566,0.02178465016828588,
0.06688279301745637,-0.0031547768916187265,
0.06693266832917706,0.008299065043849778,
0.06698254364089776,-0.006438974693397024,
0.06703241895261845,0.002768405643315878,
0.06708229426433915,0.015334338483672497,
0.06713216957605984,0.01985678289366631,
0.06718204488778055,0.025910641869289444,
0.06723192019950125,0.015887603011899405,
0.06728179551122195,0.02191978334393414,
0.06733167082294264,0.005841610651807641,
0.06738154613466334,-0.025650782355483678,
0.06743142144638405,-0.00905563988648861,
0.06748129675810474,0.02153021932739069,
0.06753117206982544,-8.601482161876492e-05,
0.06758104738154613,-0.01250815139313764,
0.06763092269326683,0.011032791146397988,
0.06768079800498752,0.016020464631791864,
0.06773067331670823,-0.010978037837445491,
0.06778054862842893,0.0034912218996648436,
0.06783042394014963,-0.0045844247040868445,
0.06788029925187032,0.03669189364566372,
0.06793017456359102,0.017611224318398202,
0.06798004987531173,0.03716360748202974,
0.06802992518703242,0.01727336587660384,
0.06807980049875312,0.022230307938494235,
0.06812967581047381,0.002222913579911317,
0.06817955112219451,-0.014296922754483295,
0.0682294264339152,0.009743157790033062,
0.06827930174563591,0.015740913836622326,
0.06832917705735661,0.033671372941969924,
0.0683790523690773,0.02095365237932551,
0.068428927680798,0.010913241282368131,
0.0684788029925187,0.014309837619533482,
0.06852867830423941,0.0323427420644091,
0.0685785536159601,0.042558425447519845,
0.0686284289276808,0.012923054262759238,
0.0686783042394015,0.027808094231538908,
0.06872817955112219,0.021253062469817216,
0.0687780548628429,0.03779684469513444,
0.0688279301745636,0.036161725323885015,
0.06887780548628429,0.012955253749545278,
0.06892768079800499,0.005785355383334124,
0.06897755610972568,0.016593351738727505,
0.06902743142144638,0.034764408090908826,
0.06907730673316709,0.0327939845045486,
0.06912718204488778,0.008803190070341325,
0.06917705735660848,0.03280948140094628,
0.06922693266832917,-0.01937280918139521,
0.06927680798004987,0.03023344180105776,
0.06932668329177058,0.027830596035749687,
0.06937655860349128,0.018783215261937696,
0.06942643391521197,0.015668279660603877,
0.06947630922693267,0.012729753242797627,
0.06952618453865336,0.01374415702225419,
0.06957605985037406,0.027793357599345137,
0.06962593516209477,0.047772766029436864,
0.06967581047381546,0.01723206380830516,
0.06972568578553616,0.018257236103317524,
0.06977556109725686,0.02009213723227391,
0.06982543640897755,0.027868965690490303,
0.06987531172069826,0.043442781380609585,
0.06992518703241896,0.015381241905244132,
0.06997506234413965,0.04403427000355015,
0.07002493765586035,0.038346610735945176,
0.07007481296758104,0.05724770396293946,
0.07012468827930174,0.024037531578853563,
0.07017456359102245,0.00441574769636513,
0.07022443890274314,0.0331897855409791,
0.07027431421446384,0.0189623285594422,
0.07032418952618454,0.025201361108903596,
0.07037406483790523,0.009673562487333111,
0.07042394014962594,0.0516726276124137,
0.07047381546134664,0.04647945453897661,
0.07052369077306733,0.027437059265599445,
0.07057356608478803,0.022781948860583805,
0.07062344139650872,0.032843795850472576,
0.07067331670822943,0.04966200753767208,
0.07072319201995013,0.030829381198038113,
0.07077306733167082,0.053597903907020704,
0.07082294264339152,0.027090379909018508,
0.07087281795511222,0.054027984941980446,
0.07092269326683291,0.03208404643564746,
0.07097256857855362,0.007295688501070471,
0.07102244389027432,0.03429890696597217,
0.07107231920199501,0.026809725806082957,
0.07112219451371571,-0.008638876344094965,
0.0711720698254364,0.051599862102928454,
0.07122194513715711,0.019131025864437327,
0.07127182044887781,0.01592586043950236,
0.0713216957605985,0.0001545576750592373,
0.0713715710723192,0.00011507168733454476,
0.0714214463840399,0.045905317291178055,
0.07147132169576059,0.007208759643113686,
0.0715211970074813,0.016625634530311934,
0.071571072319202,0.006321351959672771,
0.0716209476309227,0.03698656199912207,
0.07167082294264339,0.018840180090978924,
0.07172069825436408,0.024940348859864465,
0.0717705735660848,0.007680626399001699,
0.07182044887780549,0.04638076750606586,
0.07187032418952619,0.022231761135610522,
0.07192019950124688,0.03686745575595718,
0.07197007481296758,0.035774730719247416,
0.07201995012468827,0.0009059989836012645,
0.07206982543640898,0.0646174620557537,
0.07211970074812968,0.01555690634804704,
0.07216957605985037,0.04433695256273566,
0.07221945137157107,-0.00520677862958583,
0.07226932668329177,0.02324013796555327,
0.07231920199501247,0.01809067679321323,
0.07236907730673317,0.03394944399374062,
0.07241895261845387,0.0554936433840237,
0.07246882793017456,0.04145595919693046,
0.07251870324189526,0.018260240822241758,
0.07256857855361595,0.009348732577953038,
0.07261845386533666,0.010628457571874826,
0.07266832917705736,0.019312857398464833,
0.07271820448877805,0.024098405832365066,
0.07276807980049875,0.015163269783832868,
0.07281795511221945,0.021822952651877937,
0.07286783042394016,0.019274835934909723,
0.07291770573566085,0.009461323669589435,
0.07296758104738155,0.02484836718852537,
0.07301745635910224,0.017308988304605474,
0.07306733167082294,0.004123275867317106,
0.07311720698254365,-0.0004583366525830676,
0.07316708229426434,0.014337060859087893,
0.07321695760598504,0.03002273159152575,
0.07326683291770573,0.026437634668285664,
0.07331670822942643,0.014490912363035947,
0.07336658354114713,0.02674840919764395,
0.07341645885286784,0.02155594266074679,
0.07346633416458853,0.014483599211605545,
0.07351620947630923,0.026974308631224384,
0.07356608478802992,0.024420915326635963,
0.07361596009975062,0.029626177137240084,
0.07366583541147133,0.027798515126436704,
0.07371571072319202,0.02732788428271272,
0.07376558603491272,0.021378052429107834,
0.07381546134663342,0.0073964131602959286,
0.07386533665835411,0.006634604323592197,
0.0739152119700748,0.005208122060910899,
0.07396508728179552,0.02914748543310121,
0.07401496259351621,0.03478176343998482,
0.07406483790523691,0.05091406641791345,
0.0741147132169576,0.01046031155693853,
0.0741645885286783,0.04506568625077952,
0.07421446384039901,-0.004139484463895851,
0.0742643391521197,0.012643655444682579,
0.0743142144638404,-0.0038207367519694745,
0.0743640897755611,0.005073324666108303,
0.07441396508728179,0.010780721629836534,
0.07446384039900249,0.028005086579707857,
0.0745137157107232,0.008520401848894769,
0.07456359102244389,0.01917411446868476,
0.07461346633416459,-0.00914859634647541,
0.07466334164588528,0.012005577157206137,
0.07471321695760598,-0.0012980341725005347,
0.07476309226932669,0.02854442759722,
0.07481296758104738,0.031510662060606716,
0.07486284289276808,0.0010808096661976407,
0.07491271820448878,0.02977301512053931,
0.07496259351620947,0.018996527780457493,
0.07501246882793017,0.02616566390624677,
0.07506234413965088,0.004305719388047045,
0.07511221945137157,0.007880986715882148,
0.07516209476309227,-0.01680655364320429,
0.07521197007481296,-0.004578896037679268,
0.07526184538653366,0.00846851853365818,
0.07531172069825437,0.02591075890804553,
0.07536159600997507,0.014571234571097016,
0.07541147132169576,0.0060181720678841345,
0.07546134663341646,0.022281327720571273,
0.07551122194513715,0.015952604098436848,
0.07556109725685786,-0.0028155572806339586,
0.07561097256857856,-0.00197674254095053,
0.07566084788029925,0.008508093696753163,
0.07571072319201995,-0.006685398020057505,
0.07576059850374064,0.04625992475760663,
0.07581047381546134,0.013535008579495349,
0.07586034912718205,0.011254308167837151,
0.07591022443890275,-0.0016877168604728099,
0.07596009975062344,0.03012861260967299,
0.07600997506234414,-0.015465477131821252,
0.07605985037406483,0.0056860652249476175,
0.07610972568578554,-0.01923017844990938,
0.07615960099750624,0.005487108096173487,
0.07620947630922693,0.003329166840274821,
0.07625935162094763,-0.011067434759913598,
0.07630922693266833,0.009793730204725595,
0.07635910224438902,0.010696451812667472,
0.07640897755610973,0.011405286215847408,
0.07645885286783043,-0.006239250513961696,
0.07650872817955112,-0.02376847167616221,
0.07655860349127182,0.007013003007388746,
0.07660847880299251,0.0145149972765592,
0.07665835411471322,0.004079583521426166,
0.07670822942643392,-0.0030823400186851895,
0.07675810473815461,0.009189991335606367,
0.07680798004987531,-0.010882754725258284,
0.076857855361596,0.01352119139922726,
0.0769077306733167,0.018909894850364713,
0.07695760598503741,-0.013351520837656143,
0.0770074812967581,-0.0024775105188717247,
0.0770573566084788,-0.010604925444211443,
0.0771072319201995,-0.02256261698737835,
0.0771571072319202,0.0007532341962913753,
0.0772069825436409,-0.03932782535632325,
0.0772568578553616,-0.005508846460042593,
0.0773067331670823,-0.0008367862125261195,
0.07735660847880299,0.012974310747356183,
0.07740648379052369,0.015562310235804074,
0.0774563591022444,0.011654841533994263,
0.07750623441396509,0.011021544041572823,
0.07755610972568579,0.022217995736677286,
0.07760598503740648,-0.007349306943244996,
0.07765586034912718,-0.006694431378486387,
0.07770573566084787,-0.028695444940033114,
0.07775561097256858,-0.016342815853101888,
0.07780548628428928,0.006747952729798063,
0.07785536159600998,-0.02436895846586764,
0.07790523690773067,0.03852498729430801,
0.07795511221945137,-0.0042523319013592215,
0.07800498753117208,-0.0030460020316174425,
0.07805486284289277,0.03498280589355303,
0.07810473815461347,0.005274515734409756,
0.07815461346633416,0.004877343287859514,
0.07820448877805486,-0.0025113952002701933,
0.07825436408977555,0.008330191880684372,
0.07830423940149626,0.007692916858597083,
0.07835411471321696,2.8333751059213264e-05,
0.07840399002493766,-0.013086378430816972,
0.07845386533665835,-0.03019705257836863,
0.07850374064837905,-0.022490499281601763,
0.07855361596009976,0.0032099235366531836,
0.07860349127182045,-0.01416017439203138,
0.07865336658354115,-0.007074517552031887,
0.07870324189526184,-0.021505652512024312,
0.07875311720698254,-0.02199960778255669,
0.07880299251870324,-0.014093353971682659,
0.07885286783042394,0.012438620072165224,
0.07890274314214464,-0.05199522583909146,
0.07895261845386534,-0.010707052033650041,
0.07900249376558603,-0.005846764372365584,
0.07905236907730673,-0.027739265817296813,
0.07910224438902744,0.0021195920507404067,
0.07915211970074813,-0.02513199195369714,
0.07920199501246883,0.006735590364183537,
0.07925187032418952,0.019681927645964447,
0.07930174563591022,0.0016972321886374788,
0.07935162094763092,-0.01784282662324977,
0.07940149625935163,0.007926257814935757,
0.07945137157107232,-0.002740370848907875,
0.07950124688279302,-0.03526922656283653,
0.07955112219451371,0.015298596761911889,
0.07960099750623441,-0.04861494101331311,
0.07965087281795512,-0.023569409059554014,
0.07970074812967581,0.0020129355748165073,
0.07975062344139651,-0.010637380387751263,
0.0798004987531172,-0.03680699103754142,
0.0798503740648379,-0.004575255200901639,
0.07990024937655861,-0.0015162275339890164,
0.0799501246882793,-0.006909726414639178,
0.08,-0.032156251118066415,
0.0800498753117207,-0.006937410706623973,
0.0800997506234414,-0.01451915145977874,
0.08014962593516209,-0.014339643373589091,
0.0801995012468828,-0.0025373457065289515,
0.0802493765586035,-0.011105037820179237,
0.08029925187032419,-0.037834145119085984,
0.08034912718204489,-0.004317645802909598,
0.08039900249376558,0.026256533544425083,
0.08044887780548629,-0.007515451266903254,
0.08049875311720699,-0.02229874747045687,
0.08054862842892768,-0.005616742772523773,
0.08059850374064838,-0.013330942636688822,
0.08064837905236907,-0.003497324772302135,
0.08069825436408977,0.0020009967184972284,
0.08074812967581048,-0.009028772109798716,
0.08079800498753117,0.01818689216152937,
0.08084788029925187,-0.034085006238792896,
0.08089775561097257,-0.009950817335610271,
0.08094763092269326,-0.025265985943522546,
0.08099750623441397,-0.0014970335942507892,
0.08104738154613467,-0.00721042884165196,
0.08109725685785536,-0.01513314911424341,
0.08114713216957606,-0.001033549277987135,
0.08119700748129675,-0.0026188618053272425,
0.08124688279301745,-0.013529757822992566,
0.08129675810473816,-0.008115073879205632,
0.08134663341645886,-0.034660727551648264,
0.08139650872817955,0.011093151245873376,
0.08144638403990025,-0.019604423476401393,
0.08149625935162094,-0.041947949996399246,
0.08154613466334165,-0.023084790277105912,
0.08159600997506235,-0.0009320805652919106,
0.08164588528678304,0.00420557687317653,
0.08169576059850374,0.007021093356207032,
0.08174563591022443,-0.003470763028681911,
0.08179551122194513,-0.02381340354724033,
0.08184538653366584,0.013010208857442623,
0.08189526184538654,-0.039117571390849856,
0.08194513715710723,-0.02085086582485991,
0.08199501246882793,0.0026910727999972916,
0.08204488778054862,0.0010165116549206172,
0.08209476309226933,-0.029097106103862652,
0.08214463840399003,-0.02269239011473985,
0.08219451371571072,-0.007615812654184288,
0.08224438902743142,-0.0015014931652264484,
0.08229426433915212,0.007962911095732331,
0.08234413965087282,0.0009405030255615655,
0.08239401496259352,-0.014419311374878273,
0.08244389027431422,-0.008680999070517992,
0.08249376558603491,-0.028508414193266836,
0.08254364089775561,0.004434025452968483,
0.0825935162094763,-0.010035385588003104,
0.08264339152119701,0.003046540392663279,
0.08269326683291771,-0.019539982890587983,
0.0827431421446384,0.02662230313663106,
0.0827930174563591,-0.010470863296161597,
0.0828428927680798,-0.019319814572625875,
0.0828927680798005,-0.01934463413229072,
0.0829426433915212,-0.028970646256111416,
0.0829925187032419,-0.013045620113240003,
0.08304239401496259,0.00028810154990783696,
0.08309226932668329,-0.01899536105054435,
0.08314214463840398,-0.012942440915713642,
0.0831920199501247,-0.020424504679024146,
0.08324189526184539,-0.03425778179887451,
0.08329177057356608,-0.03560594613692983,
0.08334164588528678,0.003083287537395717,
0.08339152119700748,-0.009180796110167411,
0.08344139650872819,-0.019129591547792812,
0.08349127182044888,-0.030657065388550647,
0.08354114713216958,-0.016045651728176562,
0.08359102244389027,-0.018689130372924707,
0.08364089775561097,0.008094851923651933,
0.08369077306733166,0.007641945082957241,
0.08374064837905237,0.0004725552843927172,
0.08379052369077307,-0.0211583810514121,
0.08384039900249377,-0.0259374557144693,
0.08389027431421446,-0.027796363331752755,
0.08394014962593516,-0.012887455828777927,
0.08399002493765587,-0.056406463197451774,
0.08403990024937656,-0.0023946184752719653,
0.08408977556109726,-0.0011472901046737224,
0.08413965087281795,-0.004754891662493528,
0.08418952618453865,-0.013014051384741356,
0.08423940149625936,-0.026719098791081496,
0.08428927680798005,-0.0023131767625584844,
0.08433915211970075,0.008492964666326888,
0.08438902743142145,-0.007969494948755698,
0.08443890274314214,0.024263543284224327,
0.08448877805486284,0.0028127129473126634,
0.08453865336658355,0.0016063194656843424,
0.08458852867830424,-0.009435754590324178,
0.08463840399002494,-0.01112167112086549,
0.08468827930174563,-0.006525079951293514,
0.08473815461346633,0.018551308286855677,
0.08478802992518704,-0.004118230657777053,
0.08483790523690773,-0.005430335920152146,
0.08488778054862843,0.013350786926542308,
0.08493765586034913,0.010730622484690863,
0.08498753117206982,-0.005210075210582807,
0.08503740648379052,-0.02517904564856637,
0.08508728179551123,0.004086252382779593,
0.08513715710723192,-0.016422384866069256,
0.08518703241895262,-0.012465234374377836,
0.08523690773067331,0.022145888262130667,
0.08528678304239401,-0.0007652681055340558,
0.08533665835411472,0.009319409900305376,
0.08538653366583542,0.022898174477220375,
0.08543640897755611,-0.0036722627066718225,
0.0854862842892768,0.005144858776931293,
0.0855361596009975,-0.02358814385620117,
0.0855860349127182,-0.0017641724496724595,
0.08563591022443891,0.020536457725014678,
0.0856857855361596,0.0018846025948365975,
0.0857356608478803,0.011416211754424591,
0.085785536159601,-0.015574458292544316,
0.08583541147132169,0.011230387198617211,
0.0858852867830424,0.006658783332321499,
0.0859351620947631,-0.01449326475923083,
0.08598503740648379,0.008406811283164261,
0.08603491271820449,0.032252895628155545,
0.08608478802992518,-0.02731210341155514,
0.08613466334164588,0.0019226729455312438,
0.08618453865336659,0.022030163241470127,
0.08623441396508728,-0.005993612965954128,
0.08628428927680798,-0.0016946005719907752,
0.08633416458852868,0.022346317493909758,
0.08638403990024937,-0.003022306604626027,
0.08643391521197008,0.013956170320419476,
0.08648379052369078,0.009298106420073449,
0.08653366583541147,0.0033254362841812985,
0.08658354114713217,0.00733095154946148,
0.08663341645885286,0.016417146321558145,
0.08668329177057357,0.013732331822676688,
0.08673316708229427,0.007047938074251599,
0.08678304239401496,0.013483570102360846,
0.08683291770573566,0.0010900909447456551,
0.08688279301745636,0.011597623138743815,
0.08693266832917705,0.03361593750539721,
0.08698254364089776,-0.009186477185221255,
0.08703241895261846,0.012492238650336537,
0.08708229426433915,0.020481428278442272,
0.08713216957605985,0.040484155988600085,
0.08718204488778054,0.0077045491342058155,
0.08723192019950125,6.10522101737905e-05,
0.08728179551122195,0.030999965965102183,
0.08733167082294264,-0.0003177271898974106,
0.08738154613466334,0.0155579849451742,
0.08743142144638404,0.0297673097622509,
0.08748129675810473,0.009344882766611613,
0.08753117206982544,0.031903494710910384,
0.08758104738154614,0.011783565031879276,
0.08763092269326683,-0.006716343283295918,
0.08768079800498753,-0.00776451791304613,
0.08773067331670822,0.03876656560633542,
0.08778054862842893,-0.013550734570993983,
0.08783042394014963,0.0051148251351771905,
0.08788029925187033,-0.0019938855557914935,
0.08793017456359102,0.0169705604519918,
0.08798004987531172,0.008719783269520382,
0.08802992518703241,0.026578516848643326,
0.08807980049875312,0.024974421512107558,
0.08812967581047382,0.020669251145961694,
0.08817955112219451,0.013165744104691277,
0.08822942643391521,0.006111255139260946,
0.0882793017456359,0.021571582303024642,
0.08832917705735661,0.011955314422335838,
0.08837905236907731,0.02881718911304798,
0.088428927680798,0.007594194891163414,
0.0884788029925187,0.025197540728152536,
0.0885286783042394,-0.0032342609824536246,
0.0885785536159601,0.02108294833566492,
0.0886284289276808,0.04519456335780538,
0.0886783042394015,0.01628068004489039,
0.0887281795511222,0.028758022919423087,
0.08877805486284289,0.02357023518745258,
0.08882793017456359,0.0072069780993178015,
0.0888778054862843,0.028929903962846146,
0.08892768079800499,0.01430113693131886,
0.08897755610972569,0.040308216222427154,
0.08902743142144638,0.029347295486357127,
0.08907730673316708,0.015540585124201879,
0.08912718204488779,0.03204128874800785,
0.08917705735660848,0.021971491418945954,
0.08922693266832918,0.01194060667908489,
0.08927680798004987,0.038273469697723154,
0.08932668329177057,0.014144081726177359,
0.08937655860349127,0.04243217801910455,
0.08942643391521198,0.0060110289860274314,
0.08947630922693267,-0.006461046722420195,
0.08952618453865337,0.017904092105897634,
0.08957605985037406,0.03165634216247265,
0.08962593516209476,0.023813865554522546,
0.08967581047381547,-0.0004009105045744074,
0.08972568578553616,0.028433365543514486,
0.08977556109725686,0.02692322171790759,
0.08982543640897755,0.026152261102660977,
0.08987531172069825,0.030010437224666387,
0.08992518703241895,0.019737124889718863,
0.08997506234413966,0.022509669266751554,
0.09002493765586035,0.026517972098961173,
0.09007481296758105,0.019853178427334476,
0.09012468827930174,0.031908927421856824,
0.09017456359102244,0.03237455898086132,
0.09022443890274315,0.02728581662306466,
0.09027431421446384,0.027142302358682587,
0.09032418952618454,0.043327628541506735,
0.09037406483790524,0.014081431568329599,
0.09042394014962593,0.033824723624270636,
0.09047381546134663,0.006306023385727704,
0.09052369077306734,0.018589551581948083,
0.09057356608478803,0.02895968889061968,
0.09062344139650873,0.03502824183587797,
0.09067331670822942,0.026948099260993858,
0.09072319201995012,0.03551147899876562,
0.09077306733167083,0.016817006950275375,
0.09082294264339152,0.022954050676569762,
0.09087281795511222,0.004145717331299828,
0.09092269326683292,0.01493767233116659,
0.09097256857855361,0.03715749950465195,
0.09102244389027432,0.0181664118853919,
0.09107231920199502,0.01959036898630838,
0.09112219451371571,0.021647109319792406,
0.09117206982543641,0.001015934798263344,
0.0912219451371571,0.01898327628170345,
0.0912718204488778,0.02561271700070574,
0.09132169576059851,0.018679342787380912,
0.0913715710723192,0.033234776747975724,
0.0914214463840399,0.04190890996369694,
0.0914713216957606,0.05318371992599438,
0.09152119700748129,0.02556102193237517,
0.091571072319202,0.006289287621153744,
0.0916209476309227,0.03436533753091712,
0.09167082294264339,0.04594878514380775,
0.09172069825436409,0.011791301698022824,
0.09177057356608478,0.022301022377591614,
0.09182044887780548,0.0019332241498966792,
0.09187032418952619,0.016479109347556545,
0.09192019950124689,0.03384674034486926,
0.09197007481296758,0.022770505321240506,
0.09201995012468828,0.028860930765189655,
0.09206982543640897,0.021096890875169264,
0.09211970074812968,0.054272811247837546,
0.09216957605985038,0.02005551235645959,
0.09221945137157107,0.005902740937378619,
0.09226932668329177,0.038242163017141804,
0.09231920199501246,-0.0072776449045978304,
0.09236907730673316,0.015482586225775174,
0.09241895261845387,-0.007116797059443302,
0.09246882793017457,0.034791633573963275,
0.09251870324189526,0.025336466723800834,
0.09256857855361596,0.025202350916385223,
0.09261845386533665,0.014488064498155493,
0.09266832917705736,0.05395838721018835,
0.09271820448877806,0.005697596715965345,
0.09276807980049875,0.017516618468464643,
0.09281795511221945,0.02884246044624631,
0.09286783042394015,0.011246306314785693,
0.09291770573566084,0.014952900042587878,
0.09296758104738155,0.0010927552192026395,
0.09301745635910225,0.021420658064281298,
0.09306733167082294,0.01893073584381179,
0.09311720698254364,0.026229106872307836,
0.09316708229426433,0.028052508983916827,
0.09321695760598504,0.011996327118656088,
0.09326683291770574,0.016813706971960135,
0.09331670822942643,0.017676243069936766,
0.09336658354114713,0.021131824814588935,
0.09341645885286783,0.032892805898062996,
0.09346633416458854,0.026156110209510815,
0.09351620947630923,0.03125870383436663,
0.09356608478802993,0.013572055824170523,
0.09361596009975062,0.002650246359344091,
0.09366583541147132,0.015485778297960058,
0.09371571072319201,0.019080429779415615,
0.09376558603491272,-0.0023225823509502794,
0.09381546134663342,0.021010680438222806,
0.09386533665835411,0.02381752103140566,
0.09391521197007481,0.003253268394154964,
0.0939650872817955,0.006274117362898655,
0.09401496259351622,0.017760894327340713,
0.09406483790523691,0.01867059068418966,
0.09411471321695761,0.03101216858632874,
0.0941645885286783,0.033807149624996355,
0.094214463840399,0.01821178294195042,
0.0942643391521197,0.03693088122201616,
0.0943142144638404,0.011032873500737594,
0.0943640897755611,0.03124720504484521,
0.0944139650872818,0.041850963493261915,
0.09446384039900249,0.03449796226674413,
0.09451371571072319,-0.0075140218164115695,
0.0945635910224439,0.0077104116897896285,
0.09461346633416459,0.02827442481602329,
0.09466334164588529,0.020888104943661202,
0.09471321695760598,0.014966440858925843,
0.09476309226932668,0.013857290203397746,
0.09481296758104737,-0.005447100350956382,
0.09486284289276808,0.017782819684867855,
0.09491271820448878,0.023620389576691114,
0.09496259351620948,-0.005930718169598774,
0.09501246882793017,0.024362930446380666,
0.09506234413965087,0.00011836531122305823,
0.09511221945137158,0.0033717019109669524,
0.09516209476309227,-0.0010012654316128456,
0.09521197007481297,0.030439096409360315,
0.09526184538653366,-0.014468758122950485,
0.09531172069825436,0.005826326492460943,
0.09536159600997507,0.020872634373874946,
0.09541147132169576,0.00750068641373043,
0.09546134663341646,0.026530371909383003,
0.09551122194513716,-0.0006196604178510187,
0.09556109725685785,0.032742990760508614,
0.09561097256857855,0.009968053915175072,
0.09566084788029926,0.027309473877300604,
0.09571072319201995,-0.01548805349977917,
0.09576059850374065,0.004129422610155385,
0.09581047381546134,0.009883211602958082,
0.09586034912718204,0.024083002957681045,
0.09591022443890275,0.020463371564631832,
0.09596009975062345,-0.019381290226096727,
0.09600997506234414,0.0252310564530485,
0.09605985037406484,0.016798344913711332,
0.09610972568578553,0.010172840537948511,
0.09615960099750623,0.0164729945388091,
0.09620947630922694,-0.014173365695442227,
0.09625935162094763,-0.0020330004177526685,
0.09630922693266833,-0.00025287857420096,
0.09635910224438902,0.023241858619457777,
0.09640897755610972,0.031439032159435776,
0.09645885286783043,0.007737079259675667,
0.09650872817955113,0.02034982386725437,
0.09655860349127182,0.0008005626933038083,
0.09660847880299252,-0.011905496093906459,
0.09665835411471321,-0.01750228557844605,
0.09670822942643391,0.007756392913587557,
0.09675810473815462,0.011650797354014829,
0.09680798004987531,0.0022071816540256252,
0.09685785536159601,0.007169758447481861,
0.0969077306733167,0.00020860451907701383,
0.0969576059850374,-0.034337520426651585,
0.09700748129675811,-0.003292968698098703,
0.0970573566084788,-0.002012245268506291,
0.0971072319201995,-0.031658315516096665,
0.0971571072319202,-0.010520173377537217,
0.0972069825436409,-0.006317228256613542,
0.09725685785536159,-0.00013554279577210543,
0.0973067331670823,-0.003862693017302724,
0.097356608478803,0.027235707217582315,
0.09740648379052369,0.007833639202468413,
0.09745635910224439,-0.024067403520557064,
0.09750623441396508,0.00588643754883175,
0.09755610972568579,-0.017568706300803025,
0.09760598503740649,0.0145640282991191,
0.09765586034912718,0.0014450168805413954,
0.09770573566084788,-0.023600848438382907,
0.09775561097256857,0.02993315832267221,
0.09780548628428928,0.008497723377824905,
0.09785536159600998,0.006389096716585188,
0.09790523690773068,-0.009859975359935744,
0.09795511221945137,0.0026944995050718424,
0.09800498753117207,-0.0004877329960401031,
0.09805486284289276,-0.0176320366722498,
0.09810473815461347,0.02813855134094352,
0.09815461346633417,0.04373148264936749,
0.09820448877805486,0.003929413333956674,
0.09825436408977556,-0.034977894378486425,
0.09830423940149625,-0.007598735390745665,
0.09835411471321696,0.008752008364910628,
0.09840399002493766,-0.018611778530518173,
0.09845386533665836,0.0021802813975908475,
0.09850374064837905,-0.011751867454510415,
0.09855361596009975,-0.012046260577246184,
0.09860349127182044,0.014408460495607279,
0.09865336658354115,-0.006698406805560522,
0.09870324189526185,-0.051297414182507696,
0.09875311720698254,0.01254465823318061,
0.09880299251870324,-0.008105799558666391,
0.09885286783042393,-0.020454464650000413,
0.09890274314214464,-0.027213860624845668,
0.09895261845386534,-0.004235829940066594,
0.09900249376558604,-0.0025021435119379296,
0.09905236907730673,0.024061167571112155,
0.09910224438902743,-0.026077768668992862,
0.09915211970074812,0.004310026062890477,
0.09920199501246883,-0.02367170032336749,
0.09925187032418953,0.002823373475717811,
0.09930174563591022,-0.026222330432989677,
0.09935162094763092,-0.023134653781941857,
0.09940149625935162,-0.0270598944405665,
0.09945137157107233,-0.025620578859639156,
0.09950124688279302,-0.001112248113434097,
0.09955112219451372,-0.026090967189603978,
0.09960099750623441,0.006055292837002719,
0.09965087281795511,-0.014663214914499465,
0.0997007481296758,-0.024092995917399412,
0.09975062344139651,0.00818460009785434,
0.09980049875311721,-0.01325431552446553,
0.0998503740648379,0.005098246383132502,
0.0999002493765586,0.015253036831680996,
0.0999501246882793,-0.016682162440536948,
0.1,-0.01841154687812635,
0.1000498753117207,0.001590620081450481,
0.1000997506234414,-0.0209033798308344,
0.10014962593516209,-0.02755287714532849,
0.10019950124688279,-0.013360024818836504,
0.1002493765586035,-0.02026248270891601,
0.1002992518703242,-0.004643708718962817,
0.10034912718204489,-0.0016001800729067636,
0.10039900249376559,-0.02243177376491772,
0.10044887780548628,-0.01957686892801046,
0.10049875311720698,-0.008000977923079614,
0.10054862842892769,0.01887328846250708,
0.10059850374064838,-0.013826087147007626,
0.10064837905236908,-0.026705002697239404,
0.10069825436408977,-0.03680903705425613,
0.10074812967581047,-0.021613073241575007,
0.10079800498753118,-0.014393730115497617,
0.10084788029925187,0.007251588840955593,
0.10089775561097257,-0.020256511540650564,
0.10094763092269327,0.008146328212303055,
0.10099750623441396,-0.05655786411590866,
0.10104738154613466,-0.0021208328735847527,
0.10109725685785537,-0.007944803777227973,
0.10114713216957606,-0.010371033514375638,
0.10119700748129676,0.011805651890685807,
0.10124688279301745,-0.0021567224588168385,
0.10129675810473815,0.0035774941265759724,
0.10134663341645886,0.005019063066609222,
0.10139650872817955,-0.014152201313094515,
0.10144638403990025,0.01194155629985634,
0.10149625935162095,-0.009316150238966717,
0.10154613466334164,-0.005234922129575294,
0.10159600997506234,-0.02136257640098693,
0.10164588528678305,-0.040025538520870915,
0.10169576059850374,0.01630213390201133,
0.10174563591022444,-0.023266216177986444,
0.10179551122194513,-0.022731267607247703,
0.10184538653366583,0.003958330611755264,
0.10189526184538654,0.02473129831086154,
0.10194513715710724,-0.01008493047614073,
0.10199501246882793,-0.01887406459090848,
0.10204488778054863,-0.012415800297534875,
0.10209476309226932,-0.00759233593401358,
0.10214463840399003,0.00657244080599512,
0.10219451371571073,-0.0144279626905634,
0.10224438902743142,-0.02681916411704902,
0.10229426433915212,-0.013878399563143535,
0.10234413965087281,-0.0042996890551830974,
0.10239401496259351,-0.036652760358807865,
0.10244389027431422,-0.003500951358976238,
0.10249376558603492,0.009293071586266206,
0.10254364089775561,-0.018237099436638475,
0.10259351620947631,-0.006326953769640342,
0.102643391521197,-0.006303966197178934,
0.10269326683291771,-0.032459023070674935,
0.10274314214463841,-0.02620702010994707,
0.1027930174563591,-0.00040129412621677484,
0.1028428927680798,0.007636633803397354,
0.1028927680798005,-0.00022945825135018902,
0.10294264339152119,-0.01363322006501878,
0.1029925187032419,-0.021500873278281325,
0.1030423940149626,0.012561355794903166,
0.10309226932668329,-0.009237954667732945,
0.10314214463840399,-0.010356465872366098,
0.10319201995012468,-0.017205144747694658,
0.10324189526184539,-0.018219256801728787,
0.10329177057356609,-0.012453882552642875,
0.10334164588528678,-0.017237452190823954,
0.10339152119700748,-0.01899946858874019,
0.10344139650872818,-0.02883851069214255,
0.10349127182044887,-0.01344033075727252,
0.10354114713216958,-0.026906483714272556,
0.10359102244389028,-0.0013133621632133666,
0.10364089775561097,-0.009505421689373295,
0.10369077306733167,-0.03448255505953545,
0.10374064837905236,-0.00886974761749385,
0.10379052369077307,-0.015361581568295595,
0.10384039900249377,-0.003254450795507196,
0.10389027431421446,-0.008908677712436131,
0.10394014962593516,0.008431729580918645,
0.10399002493765586,0.013340405321336386,
0.10403990024937655,-0.0012362353097433347,
0.10408977556109726,-0.012423929815635965,
0.10413965087281796,0.02595618872153676,
0.10418952618453865,0.010914768320418607,
0.10423940149625935,-0.00222398308442544,
0.10428927680798004,-0.0004033929055177355,
0.10433915211970075,-0.0052719180674109245,
0.10438902743142145,-1.1232687345777426e-05,
0.10443890274314215,-0.02601652184609424,
0.10448877805486284,-0.0025140842451093527,
0.10453865336658354,0.004242917792873849,
0.10458852867830425,-0.011688801184339698,
0.10463840399002494,0.0013556207460658698,
0.10468827930174564,0.009854125168854956,
0.10473815461346633,-0.00198301987475423,
0.10478802992518703,-0.0185554331248964,
0.10483790523690772,0.008261807623702126,
0.10488778054862843,-0.019257460186149475,
0.10493765586034913,-0.009435011568970274,
0.10498753117206983,0.027413292624003226,
0.10503740648379052,0.009547184278807755,
0.10508728179551122,0.026562114082563787,
0.10513715710723193,0.009138997909771164,
0.10518703241895262,0.015330026944925999,
0.10523690773067332,-0.0005973517472119515,
0.10528678304239401,0.0003634677212957034,
0.10533665835411471,-0.0071163891560368404,
0.1053865336658354,0.019857153109730172,
0.10543640897755611,0.023265106421947204,
0.10548628428927681,0.005232162443186441,
0.1055361596009975,-0.00678042995942998,
0.1055860349127182,-0.0047734864257502445,
0.1056359102244389,-0.012747277060690372,
0.10568578553615961,0.019477899407107542,
0.1057356608478803,0.028911336916208112,
0.105785536159601,0.0034047486051086784,
0.1058354114713217,0.024632234645150776,
0.10588528678304239,-0.0038427147569599935,
0.10593516209476309,0.004670135652596587,
0.1059850374064838,0.004550419819007961,
0.10603491271820449,0.01753463943654409,
0.10608478802992519,-0.006432562286343887,
0.10613466334164588,0.00884208689316984,
0.10618453865336658,0.030876937863742765,
0.10623441396508729,0.029831976178823712,
0.10628428927680798,0.021750757979300615,
0.10633416458852868,0.0073689632865602765,
0.10638403990024937,0.024619788800189953,
0.10643391521197007,0.021028604246034806,
0.10648379052369077,-0.009982692089411601,
0.10653366583541148,-0.006630430791588869,
0.10658354114713217,-0.002403194652288533,
0.10663341645885287,0.031648693556304376,
0.10668329177057356,0.02766746272523572,
0.10673316708229426,0.030247537369628163,
0.10678304239401497,-0.0066344643322901915,
0.10683291770573566,0.01903656303476068,
0.10688279301745636,0.029072901164766324,
0.10693266832917706,0.015620968819199032,
0.10698254364089775,0.024955919653625737,
0.10703241895261846,0.02938844596225801,
0.10708229426433916,-0.00398428812512744,
0.10713216957605985,0.011271465210862669,
0.10718204488778055,0.043258666581278055,
0.10723192019950124,0.05085901724529052,
0.10728179551122194,0.000833152403063725,
0.10733167082294265,0.014112568993524328,
0.10738154613466334,-0.01752637032974541,
0.10743142144638404,0.02601741057889144,
0.10748129675810474,0.016072200645899464,
0.10753117206982543,0.029544082182646182,
0.10758104738154614,-0.017728040595664234,
0.10763092269326684,0.031657830903419754,
0.10768079800498753,0.012924993314307277,
0.10773067331670823,0.01806731128843019,
0.10778054862842892,0.014462927613485036,
0.10783042394014962,-0.008845263997863,
0.10788029925187033,0.015337384191635856,
0.10793017456359102,-0.00018401464421968425,
0.10798004987531172,0.07207320845486506,
0.10802992518703242,0.02755976531082576,
0.10807980049875311,0.026003488818812405,
0.10812967581047382,0.006829428910039454,
0.10817955112219452,-0.0043898279142427915,
0.10822942643391521,0.03519436103533717,
0.10827930174563591,0.018463001119359147,
0.1083291770573566,0.027833784155483238,
0.1083790523690773,0.03253408423062893,
0.10842892768079801,0.03404701007113234,
0.1084788029925187,0.023040628068092296,
0.1085286783042394,0.022676311243848384,
0.1085785536159601,0.04537549603892482,
0.10862842892768079,0.0028966598552627072,
0.1086783042394015,0.03471399484865528,
0.1087281795511222,0.02612256722928246,
0.1087780548628429,0.035063368177179643,
0.10882793017456359,0.010622703330663594,
0.10887780548628428,-0.004431457185749679,
0.108927680798005,0.014637237435203943,
0.10897755610972569,0.01100750048531454,
0.10902743142144639,0.02710174510671355,
0.10907730673316708,0.044044215168679776,
0.10912718204488778,0.02744811618576432,
0.10917705735660847,0.035740502712479784,
0.10922693266832918,0.028574414541669466,
0.10927680798004988,0.017458330658193313,
0.10932668329177057,0.02301748040607918,
0.10937655860349127,0.006628500339886701,
0.10942643391521197,0.03350556062252468,
0.10947630922693267,0.0005778603557798599,
0.10952618453865337,0.021345191310521615,
0.10957605985037407,0.04241118030476135,
0.10962593516209476,0.01877983997861816,
0.10967581047381546,0.04909604733458835,
0.10972568578553615,0.029777628869288687,
0.10977556109725686,0.03563321651386191,
0.10982543640897756,0.036787618435184716,
0.10987531172069825,0.015411377104892768,
0.10992518703241895,0.013984255411447393,
0.10997506234413965,0.02140507774003196,
0.11002493765586036,0.009368651810003955,
0.11007481296758105,0.010550052771587194,
0.11012468827930175,0.02647768521143978,
0.11017456359102244,0.041655437877679134,
0.11022443890274314,0.03934104294007915,
0.11027431421446383,0.04668850180135753,
0.11032418952618454,0.02508247631999001,
0.11037406483790524,0.03703854920600264,
0.11042394014962593,0.02201663922587194,
0.11047381546134663,0.012951384682909416,
0.11052369077306733,0.03230317486786945,
0.11057356608478804,0.026657081191205915,
0.11062344139650873,0.030945861163993144,
0.11067331670822943,0.021674229843956394,
0.11072319201995012,0.00035188898506281763,
0.11077306733167082,0.03660593089591703,
0.11082294264339151,0.028189708183110902,
0.11087281795511222,0.01599733247060156,
0.11092269326683292,0.029077669277465034,
0.11097256857855362,0.020983134520647,
0.11102244389027431,0.03272046308076686,
0.111072319201995,0.04345823004449024,
0.11112219451371572,0.02239177099655844,
0.11117206982543641,0.0474694853662387,
0.11122194513715711,0.02502366392900413,
0.1112718204488778,0.02591412423356404,
0.1113216957605985,0.03103865349565714,
0.11137157107231921,0.012209392647857462,
0.1114214463840399,0.04697767285209681,
0.1114713216957606,0.02734996010318327,
0.1115211970074813,0.04359980128198293,
0.11157107231920199,0.026446080929656605,
0.11162094763092269,0.054097158261702645,
0.1116708229426434,0.012611740204944166,
0.11172069825436409,0.05707849202524104,
0.11177057356608479,0.02962437788763928,
0.11182044887780548,0.03705033786155053,
0.11187032418952618,0.0242795582805157,
0.11192019950124689,0.010325353588616446,
0.11197007481296758,0.03240995097457479,
0.11201995012468828,-0.0007954255973736946,
0.11206982543640898,0.014206944116805622,
0.11211970074812967,0.03978098699111346,
0.11216957605985037,0.04231469248573973,
0.11221945137157108,0.025389096448841925,
0.11226932668329177,0.016152526445471875,
0.11231920199501247,0.04054900495951802,
0.11236907730673316,0.028609050415795628,
0.11241895261845386,0.040450962465434906,
0.11246882793017457,0.012259440908814404,
0.11251870324189527,0.043339612562607904,
0.11256857855361596,0.047551991041486066,
0.11261845386533666,0.008131219057111123,
0.11266832917705735,0.03720624559796091,
0.11271820448877805,0.003325328997619087,
0.11276807980049876,0.03841325488760568,
0.11281795511221945,0.018601477895556773,
0.11286783042394015,0.007096233850371305,
0.11291770573566084,0.017103569210686505,
0.11296758104738154,0.01605863268879136,
0.11301745635910225,0.03408624777757507,
0.11306733167082295,0.04635266560997621,
0.11311720698254364,0.013964829466966453,
0.11316708229426434,0.03142441494321935,
0.11321695760598503,0.028159854688867995,
0.11326683291770574,0.05480695358444838,
0.11331670822942644,0.03945828976028655,
0.11336658354114713,0.029001295102785762,
0.11341645885286783,0.0405423161406958,
0.11346633416458853,0.008437114589006341,
0.11351620947630922,0.05012160078699207,
0.11356608478802993,0.03312651513330995,
0.11361596009975063,0.039817441260978664,
0.11366583541147132,0.022063284279753525,
0.11371571072319202,0.01937201900743343,
0.11376558603491271,0.0009966366742764042,
0.11381546134663342,0.019738049397109176,
0.11386533665835412,0.02605305863831356,
0.11391521197007481,-0.011358647097619495,
0.11396508728179551,0.01751305134510302,
0.1140149625935162,0.015313587602897201,
0.1140648379052369,0.042247360157930444,
0.11411471321695761,0.01512941002868624,
0.1141645885286783,0.04968791879012473,
0.114214463840399,0.004461399086104226,
0.1142643391521197,0.01016898049685134,
0.1143142144638404,0.003388154081218262,
0.1143640897755611,0.017502708050977218,
0.1144139650872818,0.027395572878292068,
0.1144638403990025,0.03743985456664149,
0.11451371571072319,0.02487147503531219,
0.11456359102244389,0.023005606029682994,
0.11461346633416458,0.026630067541937717,
0.11466334164588529,0.027994633554147323,
0.11471321695760599,0.02880679881634991,
0.11476309226932668,0.007899933079692417,
0.11481296758104738,0.002298043770190593,
0.11486284289276807,0.017719395224217123,
0.11491271820448878,0.02126673899927789,
0.11496259351620948,0.014337824568774627,
0.11501246882793018,0.033159024973213005,
0.11506234413965087,0.019549396254810926,
0.11511221945137157,0.02457083462292029,
0.11516209476309226,0.015225869487179609,
0.11521197007481297,0.018116910288511014,
0.11526184538653367,0.03144596243975267,
0.11531172069825436,0.013317870588879416,
0.11536159600997506,0.0037727906170990453,
0.11541147132169575,0.0015996342427815353,
0.11546134663341646,0.011188365121138334,
0.11551122194513716,0.006475515947793259,
0.11556109725685786,0.007080815490078179,
0.11561097256857855,0.007547997779618166,
0.11566084788029925,0.0206193988917975,
0.11571072319201996,-0.006737908105452318,
0.11576059850374065,0.011000462306060388,
0.11581047381546135,-0.0073537302483315855,
0.11586034912718204,0.01787219129177177,
0.11591022443890274,0.00827623413437529,
0.11596009975062344,-0.007664580498032597,
0.11600997506234415,0.026871181422959974,
0.11605985037406484,-0.0010519239914291495,
0.11610972568578554,-0.01292062601712301,
0.11615960099750623,0.014399372316817583,
0.11620947630922693,0.025056517636993427,
0.11625935162094764,0.006451305292397574,
0.11630922693266833,0.004756799366527954,
0.11635910224438903,0.015509147585586282,
0.11640897755610972,-0.005949388866971723,
0.11645885286783042,0.007750852200740902,
0.11650872817955112,-0.0059920551572884085,
0.11655860349127183,0.02861204389479379,
0.11660847880299252,0.0024672938189102527,
0.11665835411471322,0.005931847398519824,
0.11670822942643391,-0.0007766581102724712,
0.11675810473815461,-0.014802857383546685,
0.11680798004987532,0.013615766792287782,
0.11685785536159601,-0.00718310006904508,
0.11690773067331671,-0.025343005322751362,
0.1169576059850374,-0.022182770918051445,
0.1170074812967581,-0.01624098998292799,
0.1170573566084788,0.003496342671538126,
0.1171072319201995,0.010437587652942032,
0.1171571072319202,-0.008810580325784948,
0.1172069825436409,0.020603728570804735,
0.1172568578553616,-0.012496852835284135,
0.11730673316708229,-0.008598844327303732,
0.117356608478803,-0.01533728418800928,
0.1174064837905237,0.0045581558371685345,
0.11745635910224439,-0.001776786943934146,
0.11750623441396509,-0.004522526153459626,
0.11755610972568578,0.002747741943389768,
0.11760598503740648,0.0028421453408045676,
0.11765586034912719,0.002016390478961843,
0.11770573566084788,-0.01648997164236262,
0.11775561097256858,-0.03207951515290476,
0.11780548628428927,-0.003102989763985269,
0.11785536159600997,-0.0037247712833690487,
0.11790523690773068,0.011455958135560114,
0.11795511221945137,0.006867027321891117,
0.11800498753117207,-0.0016657746967565182,
0.11805486284289277,-0.0071064303215850775,
0.11810473815461346,0.017905331670040055,
0.11815461346633417,0.004568558258269916,
0.11820448877805487,0.0044739272418334655,
0.11825436408977556,-0.014337778308530565,
0.11830423940149626,-0.016835692124588145,
0.11835411471321695,-0.007655065946673103,
0.11840399002493765,-0.01522440193284959,
0.11845386533665836,-0.02315969978527473,
0.11850374064837906,0.016743877051836213,
0.11855361596009975,0.0038695153352069547,
0.11860349127182045,-0.007797613464388912,
0.11865336658354114,-0.026112967207479354,
0.11870324189526185,0.009798842879965842,
0.11875311720698255,-0.002588069775145944,
0.11880299251870324,0.0003391503629712033,
0.11885286783042394,-0.009580162520854967,
0.11890274314214463,0.009649078012892253,
0.11895261845386533,-0.0047609527075613,
0.11900249376558604,-0.011905639647322039,
0.11905236907730674,-0.01014199715059738,
0.11910224438902743,-0.026182057814983374,
0.11915211970074813,0.009125793127024207,
0.11920199501246882,-0.017761845539738655,
0.11925187032418953,-0.009937232899620991,
0.11930174563591023,-0.024175953889200796,
0.11935162094763092,-0.0021915212457582003,
0.11940149625935162,-0.009475226195671272,
0.11945137157107232,-0.006987031435678534,
0.11950124688279301,0.01027777958695694,
0.11955112219451372,-0.0007369438689667253,
0.11960099750623442,-0.009968788754254145,
0.11965087281795511,-0.0005604204709419233,
0.11970074812967581,-0.006177820370288942,
0.1197506234413965,0.013033989065853162,
0.11980049875311721,-0.02869481465316536,
0.11985037406483791,-0.028040786791661783,
0.1199002493765586,-0.02898485289452749,
0.1199501246882793,0.002573208854926779,
0.12,-0.028305583079905813,
0.1200498753117207,0.0005814847240713707,
0.1200997506234414,0.01948184406661608,
0.1201496259351621,-0.015805071833184733,
0.12019950124688279,-0.011299863163217646,
0.12024937655860349,-0.039783258675800584,
0.12029925187032418,-0.005100818583918472,
0.1203491271820449,-0.02168468240509357,
0.12039900249376559,-0.029840748188031545,
0.12044887780548628,-0.009688220460380394,
0.12049875311720698,-0.022123544927712416,
0.12054862842892768,-0.015270644883486176,
0.12059850374064839,-0.019063053400655176,
0.12064837905236908,-0.019298162808324398,
0.12069825436408978,-0.011572518289931865,
0.12074812967581047,-0.01809592185355431,
0.12079800498753117,-0.019619465046401614,
0.12084788029925186,-0.005368500169900496,
0.12089775561097257,-0.0213416944731035,
0.12094763092269327,-0.012031612669421526,
0.12099750623441397,0.015821976436333367,
0.12104738154613466,-0.016147335603801022,
0.12109725685785536,0.004344458411695198,
0.12114713216957607,0.015740431751127385,
0.12119700748129676,-0.002492558879453717,
0.12124688279301746,-0.04237853424024215,
0.12129675810473815,0.01091461234632717,
0.12134663341645885,-0.021267098274007974,
0.12139650872817954,-0.006758583919921563,
0.12144638403990025,-0.030985087823817186,
0.12149625935162095,-0.023302232163067135,
0.12154613466334165,0.005043158150055458,
0.12159600997506234,-0.01861590050241025,
0.12164588528678304,-0.03883814592653373,
0.12169576059850375,0.00635656699484098,
0.12174563591022444,-0.005998050282570699,
0.12179551122194514,-0.050823580968647905,
0.12184538653366583,-0.020979273819178537,
0.12189526184538653,-0.007325098388397693,
0.12194513715710723,-0.010635806756828754,
0.12199501246882793,-0.02145161562939698,
0.12204488778054863,-0.01093477871838998,
0.12209476309226933,-0.006442238033472689,
0.12214463840399002,-0.01817703535573607,
0.12219451371571072,-0.00629240181490711,
0.12224438902743143,-0.016291662676775388,
0.12229426433915212,-0.0035323230391498582,
0.12234413965087282,-0.03626986879024102,
0.12239401496259351,0.00897607065338438,
0.12244389027431421,-0.01556114305941735,
0.12249376558603492,-0.009399396118105412,
0.12254364089775562,0.011356386230333242,
0.12259351620947631,-0.027959869390174606,
0.122643391521197,-0.003234189902954137,
0.1226932668329177,-0.03545430636925627,
0.1227431421446384,0.002463212015145407,
0.12279301745635911,-0.014364170248310094,
0.1228428927680798,-0.025081403729384496,
0.1228927680798005,0.002698104346205094,
0.1229426433915212,0.0008926013849406365,
0.12299251870324189,0.02039229363019996,
0.1230423940149626,0.020142929206715936,
0.1230922693266833,-0.0366213043500523,
0.12314214463840399,-0.007825047104577619,
0.12319201995012469,-0.02263148462755598,
0.12324189526184538,0.017493271106014483,
0.12329177057356608,-0.002420291892607675,
0.12334164588528679,0.019438997909721895,
0.12339152119700748,-0.010397538141015555,
0.12344139650872818,0.002414684637580885,
0.12349127182044888,-0.005777650175406567,
0.12354114713216957,0.008030274148440356,
0.12359102244389028,0.010302798606929724,
0.12364089775561098,0.029053208478777452,
0.12369077306733167,0.0024071103336375617,
0.12374064837905237,0.007134970625674957,
0.12379052369077306,0.0014216741946855484,
0.12384039900249376,-0.0002754455961558001,
0.12389027431421447,0.022462981456955793,
0.12394014962593516,0.010594996934895701,
0.12399002493765586,0.021783157490926096,
0.12403990024937656,0.015415936299434174,
0.12408977556109725,0.015342517848791013,
0.12413965087281796,-0.019454322069132616,
0.12418952618453866,-0.009761893258446692,
0.12423940149625935,-0.022156195891062817,
0.12428927680798005,0.003382893205893137,
0.12433915211970074,0.021818302543485765,
0.12438902743142144,-0.030920660592435163,
0.12443890274314215,0.006395590935403731,
0.12448877805486284,0.018971515465634727,
0.12453865336658354,0.009905920601567116,
0.12458852867830424,0.022047377489053437,
0.12463840399002493,-0.011757132781851799,
0.12468827930174564,-0.002763728314890762,
0.12473815461346634,-0.00020505044126341602,
0.12478802992518703,0.00580375787459177,
0.12483790523690773,0.009551426947146821,
0.12488778054862842,-0.015116870767888299,
0.12493765586034913,0.014355301490226612,
0.12498753117206983,0.0368390259344661,
0.12503740648379053,0.026162312464324808,
0.12508728179551123,0.008668589951055284,
0.12513715710723192,0.01741501871217777,
0.12518703241895263,0.009112237012070382,
0.1252369077306733,-0.008019139326525856,
0.12528678304239402,0.016901906345959363,
0.1253366583541147,0.003377515409351618,
0.1253865336658354,0.017450448598918356,
0.12543640897755612,0.009663748030517115,
0.1254862842892768,0.01950517905974004,
0.1255361596009975,0.015975451113632626,
0.1255860349127182,0.006583676417768928,
0.1256359102244389,0.017205722846945642,
0.1256857855361596,-0.006442674714821914,
0.1257356608478803,-0.037932044456873544,
0.125785536159601,0.0068194217076655555,
0.12583541147132168,0.010540224515346154,
0.1258852867830424,0.0070885649567884075,
0.1259351620947631,0.034080299825857724,
0.12598503740648379,0.03553006125551082,
0.1260349127182045,0.01244635358895196,
0.12608478802992518,-0.007514185152906836,
0.1261346633416459,0.008727540883650443,
0.1261845386533666,0.0021859610122955623,
0.12623441396508728,0.015117179713218892,
0.126284289276808,0.017767226890559873,
0.12633416458852867,0.012797560077473626,
0.12638403990024938,0.025947233015117123,
0.1264339152119701,0.024970757848931466,
0.12648379052369077,0.01333740527454664,
0.12653366583541148,-0.005264539226880676,
0.12658354114713216,0.026320902623879427,
0.12663341645885287,0.005113493846612884,
0.12668329177057355,0.015069971737419622,
0.12673316708229426,0.009613964734108752,
0.12678304239401497,-0.0006584506678853803,
0.12683291770573565,0.007925235949109277,
0.12688279301745636,-0.014053505242524404,
0.12693266832917705,0.013299244364343973,
0.12698254364089775,0.02749530461013016,
0.12703241895261846,0.014353682138243892,
0.12708229426433915,-0.012585801746293764,
0.12713216957605986,-0.0035185146350873373,
0.12718204488778054,0.010050258023959553,
0.12723192019950125,0.009963028567078848,
0.12728179551122196,0.056797117570718224,
0.12733167082294264,0.009725707629663167,
0.12738154613466335,0.020149968146246266,
0.12743142144638403,0.04148208167255387,
0.12748129675810474,0.02186551391592444,
0.12753117206982545,-0.00963993460528366,
0.12758104738154613,0.01577727149382172,
0.12763092269326684,0.0006952865656869103,
0.12768079800498752,0.033915892240304786,
0.12773067331670823,0.017651771936620042,
0.1277805486284289,0.023276161936636446,
0.12783042394014962,0.021114498518718987,
0.12788029925187033,0.0336573650145013,
0.12793017456359101,0.03924198587314546,
0.12798004987531172,0.004632698586030264,
0.1280299251870324,-0.0003331071856203481,
0.12807980049875312,0.03887275944157204,
0.12812967581047383,0.016794774291401506,
0.1281795511221945,0.01633665228271112,
0.12822942643391522,0.010295818725193927,
0.1282793017456359,-0.003285717177278189,
0.1283291770573566,0.03151774572428064,
0.12837905236907732,0.02301769251470524,
0.128428927680798,0.017332823259670373,
0.1284788029925187,0.03876039078484397,
0.1285286783042394,0.024426864194334666,
0.1285785536159601,0.04156824911099351,
0.1286284289276808,0.04169526397420886,
0.1286783042394015,0.019478831266534744,
0.1287281795511222,0.02112072417731791,
0.12877805486284288,0.0055242554129202,
0.1288279301745636,0.06101489588541052,
0.1288778054862843,0.018033741276384328,
0.12892768079800498,0.05251929413678634,
0.1289775561097257,0.027018466474535926,
0.12902743142144638,0.02006720536423171,
0.12907730673316709,0.0360004589277532,
0.12912718204488777,0.019438614172713583,
0.12917705735660848,0.0349119023342757,
0.1292269326683292,0.00983373817950365,
0.12927680798004987,0.027520614971563596,
0.12932668329177058,0.018575670015404222,
0.12937655860349126,0.02408295910156572,
0.12942643391521197,0.016561323584104663,
0.12947630922693268,0.024966140778348033,
0.12952618453865336,0.025475343453036772,
0.12957605985037407,0.030651686411618785,
0.12962593516209475,0.03574209862867572,
0.12967581047381546,0.010247966934130815,
0.12972568578553617,0.02374352297020279,
0.12977556109725685,0.034206639126656946,
0.12982543640897756,0.028359065770516983,
0.12987531172069824,0.03535219242214753,
0.12992518703241895,0.0351735999533814,
0.12997506234413966,0.04293563609388094,
0.13002493765586035,0.0263961406391596,
0.13007481296758105,0.008603642342170727,
0.13012468827930174,0.0488320583943382,
0.13017456359102245,0.01911693677102485,
0.13022443890274316,0.026025299877385256,
0.13027431421446384,0.03673730956183732,
0.13032418952618455,0.019918312731131083,
0.13037406483790523,0.015343770374697302,
0.13042394014962594,0.040443719472625234,
0.13047381546134662,0.024206674418960482,
0.13052369077306733,0.045785961334412865,
0.13057356608478804,0.02682051967784749,
0.13062344139650872,0.019784267995682326,
0.13067331670822943,0.033868546171316016,
0.1307231920199501,0.04810332074333082,
0.13077306733167082,0.015578948736957539,
0.13082294264339153,0.010866312549368588,
0.13087281795511221,0.0236547047492981,
0.13092269326683292,0.06500467932793645,
0.1309725685785536,0.029405241949313037,
0.13102244389027431,0.03695104239018016,
0.13107231920199502,0.030935360005689857,
0.1311221945137157,0.060274156797267484,
0.13117206982543642,0.03343405157253766,
0.1312219451371571,0.030505680788047138,
0.1312718204488778,0.015091480458652691,
0.13132169576059852,0.00811776515416017,
0.1313715710723192,0.03565009101691092,
0.1314214463840399,0.02204195777532516,
0.1314713216957606,0.013486892176118093,
0.1315211970074813,0.03448105228973412,
0.13157107231920198,0.026209431822183372,
0.1316209476309227,0.024127931355077112,
0.1316708229426434,0.04920710008175759,
0.13172069825436408,0.05935553142389069,
0.1317705735660848,0.05820092167266722,
0.13182044887780547,0.02486342534992366,
0.13187032418952618,0.019336616171107844,
0.1319201995012469,0.0379302602774538,
0.13197007481296757,0.01038909634533116,
0.13201995012468828,0.026869740296114608,
0.13206982543640897,0.04945516763145323,
0.13211970074812968,0.03080333874601357,
0.13216957605985039,0.03435785680709592,
0.13221945137157107,0.041305513728593556,
0.13226932668329178,0.017512617594953234,
0.13231920199501246,0.03597358957160389,
0.13236907730673317,0.04469401037462739,
0.13241895261845388,0.011596360914379732,
0.13246882793017456,0.06314748960583119,
0.13251870324189527,0.033535862381644,
0.13256857855361595,0.046210862839803836,
0.13261845386533666,0.014177421817703388,
0.13266832917705737,0.010396165028149069,
0.13271820448877805,0.027436887690582026,
0.13276807980049876,0.03047321509427232,
0.13281795511221944,0.013217093888760365,
0.13286783042394015,0.03633150271930459,
0.13291770573566083,0.022199522284058814,
0.13296758104738154,0.012513733006498665,
0.13301745635910225,-0.016189078679002183,
0.13306733167082294,0.02345872560925359,
0.13311720698254365,0.008409946711660635,
0.13316708229426433,0.049035080893106375,
0.13321695760598504,0.026757486948874885,
0.13326683291770575,0.00488508624279102,
0.13331670822942643,0.04908350070612947,
0.13336658354114714,0.03535467723682273,
0.13341645885286782,0.018258424249041245,
0.13346633416458853,0.009804723322842794,
0.13351620947630924,0.0007387027342193493,
0.13356608478802992,-0.0034905331137994842,
0.13361596009975063,-0.008554674481960504,
0.1336658354114713,0.023576687078843597,
0.13371571072319202,0.025193161950897793,
0.13376558603491273,0.043676554412638624,
0.1338154613466334,0.03746191555314096,
0.13386533665835412,0.015282912640087607,
0.1339152119700748,0.0015374092013582148,
0.13396508728179551,0.036455896968307075,
0.1340149625935162,-0.0013093616601684843,
0.1340648379052369,0.022455229370157762,
0.13411471321695762,-0.004051510249551436,
0.1341645885286783,0.006331819244036002,
0.134214463840399,0.0003716639346587544,
0.1342643391521197,0.018275254758220127,
0.1343142144638404,0.0525412014752141,
0.1343640897755611,0.00951339899740155,
0.1344139650872818,0.03360730548585917,
0.1344638403990025,0.029642668407594566,
0.13451371571072318,0.027276958858789654,
0.1345635910224439,0.024660387172716083,
0.1346134663341646,0.019189140948186634,
0.13466334164588528,0.006182933754487318,
0.134713216957606,0.000899688675092384,
0.13476309226932667,0.0001683024094394879,
0.13481296758104738,0.022494841722585073,
0.1348628428927681,0.014849738291592945,
0.13491271820448877,-0.005434043982350131,
0.13496259351620948,0.012148287006569747,
0.13501246882793017,0.009113500140225838,
0.13506234413965088,0.010338625426869523,
0.13511221945137158,0.01864588880272854,
0.13516209476309227,-0.0018504124705182486,
0.13521197007481298,0.005447249815138574,
0.13526184538653366,0.026844721396633832,
0.13531172069825437,0.005090637189645067,
0.13536159600997505,-0.0003288705213541493,
0.13541147132169576,0.02909206952879583,
0.13546134663341647,0.021360811711844258,
0.13551122194513715,0.007419044873192818,
0.13556109725685786,-0.0016064608951438016,
0.13561097256857854,0.007547960592350117,
0.13566084788029925,0.0320202707071827,
0.13571072319201996,-0.015379218214446804,
0.13576059850374064,0.005632904022858425,
0.13581047381546135,0.021132266744268196,
0.13586034912718203,-0.012145066816606988,
0.13591022443890274,0.00040214889196544916,
0.13596009975062345,0.01670816572970316,
0.13600997506234414,0.011815339249388523,
0.13605985037406484,0.013625329060141193,
0.13610972568578553,0.002589431246809425,
0.13615960099750624,0.00033602395560956844,
0.13620947630922695,0.019047949318249817,
0.13625935162094763,-0.001093684953450547,
0.13630922693266834,-0.007230340522404136,
0.13635910224438902,-0.008998660974435677,
0.13640897755610973,0.028894902039604934,
0.1364588528678304,-0.020274330251952435,
0.13650872817955112,0.010650380431559959,
0.13655860349127183,-0.01780143064576681,
0.1366084788029925,0.02728359632385519,
0.13665835411471322,0.006651428515862801,
0.1367082294264339,-0.0016168189772791611,
0.1367581047381546,0.022947136835665672,
0.13680798004987532,-0.0007127134808862972,
0.136857855361596,-0.031123778499753025,
0.1369077306733167,0.028995757953859874,
0.1369576059850374,-0.0039050171762539197,
0.1370074812967581,-0.009069252429362105,
0.13705735660847881,-0.017941893660851794,
0.1371072319201995,0.008031839346557374,
0.1371571072319202,-0.024280172068855535,
0.1372069825436409,0.018221561253838666,
0.1372568578553616,0.004433846593976468,
0.1373067331670823,0.028810404382953077,
0.137356608478803,-0.012928282370453414,
0.1374064837905237,0.01902867410679615,
0.13745635910224438,0.002005781557386872,
0.1375062344139651,0.025306215683434427,
0.1375561097256858,0.014486832722378542,
0.13760598503740648,-0.022104183665058848,
0.1376558603491272,0.002942648521604549,
0.13770573566084787,0.01541204663691317,
0.13775561097256858,0.022893515771190115,
0.13780548628428926,0.02621981604098706,
0.13785536159600997,0.004676968318900315,
0.13790523690773068,-0.004781639170477952,
0.13795511221945136,-0.008819342683062458,
0.13800498753117207,-0.005587740128350642,
0.13805486284289276,-0.029296269605980745,
0.13810473815461347,-0.02391644709352799,
0.13815461346633418,-0.03556622753810236,
0.13820448877805486,0.008092915810088877,
0.13825436408977557,-0.0012324998658957064,
0.13830423940149625,-0.030529641046063295,
0.13835411471321696,-0.004089815643471699,
0.13840399002493767,-0.0005053242950389457,
0.13845386533665835,0.01955039940291596,
0.13850374064837906,0.01773952083719978,
0.13855361596009974,-0.017478759399550986,
0.13860349127182045,-0.010030161887070527,
0.13865336658354116,-0.01628401489834309,
0.13870324189526184,-0.001772842525469439,
0.13875311720698255,-0.011844764926237253,
0.13880299251870323,-0.006021551202725234,
0.13885286783042394,0.0007522230025583058,
0.13890274314214462,-0.0009867055415027602,
0.13895261845386533,0.005755298673643182,
0.13900249376558604,-0.025089198240966143,
0.13905236907730673,0.022971089412726787,
0.13910224438902744,-0.007738377134856629,
0.13915211970074812,-0.0034120029279001277,
0.13920199501246883,0.016632047954261875,
0.13925187032418954,0.011132998297805938,
0.13930174563591022,-0.015714906805824158,
0.13935162094763093,-0.030164723193305782,
0.1394014962593516,-0.03862195441453953,
0.13945137157107232,0.004726120359576643,
0.13950124688279303,0.012514777885464195,
0.1395511221945137,-0.015307346546388542,
0.13960099750623442,-0.009934319030168719,
0.1396508728179551,0.008248931769627543,
0.1397007481296758,-0.007252180882173354,
0.13975062344139652,0.00795723255837304,
0.1398004987531172,-0.026223252865462066,
0.1398503740648379,0.0027691769065445217,
0.1399002493765586,-0.006624411803034715,
0.1399501246882793,-0.028696624251310074,
0.14,-0.004507430422521611,
0.1400498753117207,0.007764455146857077,
0.1400997506234414,-0.0034700763773661955,
0.1401496259351621,-0.03258460213927874,
0.1401995012468828,0.006154510863142787,
0.14024937655860348,-0.0016418778869422418,
0.1402992518703242,-0.016403202259504198,
0.1403491271820449,-0.007314880112432361,
0.14039900249376558,-0.0029119583904681804,
0.1404488778054863,-0.013573134930166476,
0.14049875311720697,0.006533107482021263,
0.14054862842892768,-0.009500772019115585,
0.1405985037406484,-0.0033450113498232,
0.14064837905236907,-0.005829537450228102,
0.14069825436408978,-0.013427142232429305,
0.14074812967581046,-0.0002674421577120341,
0.14079800498753117,-0.020946102206019893,
0.14084788029925188,-0.015626943862564427,
0.14089775561097256,0.009910542052291306,
0.14094763092269327,0.02944769971887544,
0.14099750623441396,-0.004072654613853287,
0.14104738154613466,0.02095080047626783,
0.14109725685785537,0.000574033620583704,
0.14114713216957606,-0.010645346024586817,
0.14119700748129677,-0.009522222652259667,
0.14124688279301745,-0.003633005842512755,
0.14129675810473816,-0.02171657437393318,
