time,amplitude,label
0.0,0.01846982880721827,
4.987531172069826e-05,0.015822483207894852,
9.975062344139652e-05,0.006740893482942011,
0.00014962593516209475,0.013154065718501709,
0.00019950124688279303,0.023643961784344157,
0.00024937655860349125,0.026558697462715705,
0.0002992518703241895,0.013529566694320963,
0.00034912718204488776,0.017740280090651678,
0.00039900249376558606,0.02121571948063864,
0.0004488778054862843,0.004548590850193431,
0.0004987531172069825,0.04635843532457935,
0.0005486284289276808,0.018384869366418803,
0.000598503740648379,0.02318050479920458,
0.0006483790523690773,0.028345932559921017,
0.0006982543640897755,0.015240823996745869,
0.0007481296758104738,0.016811333908283002,
0.0007980049875311721,-0.006754852610076016,
0.0008478802992518703,0.008943845358861176,
0.0008977556109725686,0.0018953496519655694,
0.0009476309226932668,0.01847569579638017,
0.000997506234413965,0.033686762940396575,
0.0010473815461346633,-0.00943612460026251,
0.0010972568578553616,0.026647871778049163,
0.00114713216957606,0.041393615966071697,
0.001197007481296758,0.03906407075484467,
0.0012468827930174563,0.025682939352503487,
0.0012967581047381546,0.026463035544916212,
0.001346633416458853,0.03857375250237255,
0.001396508728179551,0.012194171303337466,
0.0014463840399002493,0.04302295158425058,
0.0014962593516209476,0.0375024198139836,
0.001546134663341646,0.036990205932776334,
0.0015960099750623442,0.03804032257640962,
0.0016458852867830423,0.018950483066645967,
0.0016957605985037406,0.008656389557450794,
0.001745635910224439,0.049779532743807475,
0.0017955112219451373,0.033107356141597225,
0.0018453865336658353,0.039927473365516525,
0.0018952618453865336,0.008731644214539248,
0.001945137157107232,0.01175898417742647,
0.00199501246882793,0.0066566180900281165,
0.0020448877805486283,0.01394602094184566,
0.0020947630922693266,0.029909497346702694,
0.002144638403990025,0.032344789181058785,
0.0021945137157107233,0.023217638099132843,
0.0022443890274314216,0.016754193136174107,
0.00229426433915212,0.0008314140639702448,
0.0023441396508728177,0.010958372359070465,
0.002394014962593516,0.003665303860344537,
0.0024438902743142144,0.025187194027034426,
0.0024937655860349127,0.03016545057196643,
0.002543640897755611,0.0032563740034955106,
0.0025935162094763093,0.035734338792772324,
0.0026433915211970076,0.02892616492128744,
0.002693266832917706,0.010693793672609902,
0.002743142144638404,0.02465552668351967,
0.002793017456359102,0.043783973109498824,
0.0028428927680798004,0.015526177907394715,
0.0028927680798004987,0.028883990850423945,
0.002942643391521197,0.036070439410339994,
0.0029925187032418953,-0.0069079037995652785,
0.0030423940149625936,0.0453035639090413,
0.003092269326683292,-0.011744759226224432,
0.00314214463840399,0.017417451429856377,
0.0031920199501246885,0.05152002418976773,
0.0032418952618453864,0.005817297857250856,
0.0032917705735660847,0.018616905560787884,
0.003341645885286783,-0.0015873058733841226,
0.0033915211970074813,0.002366199885129844,
0.0034413965087281796,0.04454235920533924,
0.003491271820448878,0.014780986648796669,
0.003541147132169576,0.02797672544518317,
0.0035910224438902745,0.0014423549931474131,
0.0036408977556109724,0.03553388086919719,
0.0036907730673316707,0.013817216851571857,
0.003740648379052369,0.014208486400227736,
0.0037905236907730673,0.0258255962515289,
0.0038403990024937656,0.02364135088256218,
0.003890274314214464,0.03270140864407159,
0.003940149625935162,0.016668020121407813,
0.00399002493765586,-0.00017784543421026956,
0.004039900249376558,0.010278450906515725,
0.004089775561097257,0.0076933783958454405,
0.004139650872817955,0.020514341396531,
0.004189526184538653,0.05326847313737866,
0.004239401496259352,0.017907916631879118,
0.00428927680798005,0.02633178359460682,
0.004339152119700748,0.029799662597415746,
0.0043890274314214465,0.014637226652222005,
0.004438902743142145,0.017457617052008646,
0.004488778054862843,-0.015131503312979003,
0.004538653366583541,0.017919997121076676,
0.00458852867830424,0.013399740502938948,
0.004638403990024938,-0.0040400964101950775,
0.0046882793017456355,0.023497390215210183,
0.004738154613466334,0.019052758590587675,
0.004788029925187032,0.0063161852936099985,
0.00483790523690773,-0.0034113548557018238,
0.004887780548628429,0.03948647322201777,
0.004937655860349127,0.000886014293455235,
0.004987531172069825,-0.004954904176206448,
0.005037406483790524,0.027172983857121268,
0.005087281795511222,0.014917565349468769,
0.00513715710723192,0.0007510586595641505,
0.0051870324189526185,0.020135984881942195,
0.005236907730673317,0.014358070211626302,
0.005286783042394015,0.003844621660352389,
0.0053366583541147134,0.020971405912776617,
0.005386533665835412,-0.009871181070720207,
0.00543640897755611,0.009396306713140212,
0.005486284289276808,-0.005699881314921991,
0.005536159600997507,-0.005435478000681613,
0.005586034912718204,0.02405668760122311,
0.005635910224438902,-0.03160396829148321,
0.005685785536159601,-0.01671306554464943,
0.005735660847880299,0.043064824458085973,
0.005785536159600997,0.016118103623961103,
0.005835411471321696,-0.015010371986920509,
0.005885286783042394,-0.0007851363411375979,
0.005935162094763092,-0.0024543615269172073,
0.0059850374064837905,0.018092105303920268,
0.006034912718204489,0.02217079480549648,
0.006084788029925187,0.02156263666773751,
0.0061346633416458855,0.014853944865276966,
0.006184538653366584,-0.013287516971329237,
0.006234413965087282,-0.0015189575887954833,
0.00628428927680798,0.032386541774259044,
0.006334164588528679,0.006346924559165761,
0.006384039900249377,-0.004119149540264846,
0.006433915211970074,0.004126685692853296,
0.006483790523690773,-0.012252970482768442,
0.006533665835411471,0.014058270232483397,
0.006583541147132169,0.0028015879792342158,
0.006633416458852868,-0.007358550522527353,
0.006683291770573566,0.007156472805323638,
0.006733167082294264,0.024460835715850903,
0.0067830423940149626,-0.002150232400587919,
0.006832917705735661,0.0024132087290963822,
0.006882793017456359,0.009813964525818957,
0.0069326683291770575,0.007971672517037837,
0.006982543640897756,-0.007530989472310222,
0.007032418952618454,0.006145496944479944,
0.007082294264339152,-0.004944479074598799,
0.007132169576059851,-0.008563212004585673,
0.007182044887780549,-0.003041488237462118,
0.007231920199501247,-0.006783434442341064,
0.007281795511221945,-0.032570584165178156,
0.007331670822942643,-0.014886508349108154,
0.007381546134663341,-0.031325163455571514,
0.00743142144638404,-0.02018879829939629,
0.007481296758104738,0.009019704201598793,
0.007531172069825436,-0.027538745875686957,
0.007581047381546135,-0.021284158997681168,
0.007630922693266833,0.012687876851105145,
0.007680798004987531,0.0028555281559897996,
0.0077306733167082295,-0.020181790262375533,
0.007780548628428928,-0.04211870063145236,
0.007830423940149626,0.0025112362379814193,
0.007880299251870324,0.012374684236301569,
0.007930174563591023,-0.022884614083547094,
0.00798004987531172,-0.02001935821958757,
0.00802992518703242,0.00017370989315309594,
0.008079800498753117,0.0014270935127171439,
0.008129675810473816,-0.00467456375777511,
0.008179551122194513,0.016623437680842214,
0.008229426433915213,-0.011750363794891023,
0.00827930174563591,-0.029513218644568767,
0.00832917705735661,-0.03437249716839794,
0.008379052369077307,-0.028012226133983714,
0.008428927680798006,-0.03424434291254774,
0.008478802992518703,0.004921598674583158,
0.0085286783042394,-0.0018794190250837495,
0.0085785536159601,0.002599621890777566,
0.008628428927680797,-0.02399140487151727,
0.008678304239401496,-0.013251495456602301,
0.008728179551122194,-0.025682888075291555,
0.008778054862842893,-0.007880926826814485,
0.00882793017456359,0.015070746973616914,
0.00887780548628429,-0.011835866060221025,
0.008927680798004987,-0.013330087056818828,
0.008977556109725686,-0.012941140200221647,
0.009027431421446384,0.0026239116918559922,
0.009077306733167083,0.0072314905691730335,
0.00912718204488778,-0.020731182883275568,
0.00917705735660848,-0.009106778333930175,
0.009226932668329177,-0.01627202476109703,
0.009276807980049876,-0.02900538261856358,
0.009326683291770574,-0.021544456241149132,
0.009376558603491271,-0.011783857302774833,
0.00942643391521197,-0.007330233622685894,
0.009476309226932668,0.027331169105837817,
0.009526184538653367,-0.010728236790777272,
0.009576059850374064,-0.0074276409510995855,
0.009625935162094763,-0.01371276021712049,
0.00967581047381546,-0.014998208194883334,
0.00972568578553616,-0.014456824308067905,
0.009775561097256857,-0.034945710104851174,
0.009825436408977557,-0.04050435519188397,
0.009875311720698254,-0.01880745275239123,
0.009925187032418953,-0.04681541580164742,
0.00997506234413965,-0.026749257068764104,
0.01002493765586035,-0.027394966151428904,
0.010074812967581047,-0.028170919492990058,
0.010124688279301746,-0.02369786758255477,
0.010174563591022444,-0.017086060272343395,
0.010224438902743141,-0.014870856172329763,
0.01027431421446384,-0.054167998596685085,
0.010324189526184538,0.004569281199826435,
0.010374064837905237,-0.026652530020166047,
0.010423940149625935,-0.016583578986506753,
0.010473815461346634,-0.011449713303815733,
0.010523690773067331,-0.018891158483792584,
0.01057356608478803,-0.04146517663112409,
0.010623441396508728,-0.004402557589500087,
0.010673316708229427,-0.023619231730341333,
0.010723192019950124,-0.024902877141248045,
0.010773067331670824,-0.002473429349028458,
0.010822942643391521,-0.012290083498552599,
0.01087281795511222,-0.014608160404488433,
0.010922693266832918,0.005284789076652467,
0.010972568578553617,-0.009500359918363035,
0.011022443890274314,-0.012660705303171555,
0.011072319201995013,-0.01756468799532737,
0.01112219451371571,5.142687584881386e-05,
0.011172069825436408,-0.007628957772701912,
0.011221945137157107,-2.662805839977883e-05,
0.011271820448877805,-0.009047193328184485,
0.011321695760598504,-0.018778371431314767,
0.011371571072319201,-0.02250895959940932,
0.0114214463840399,-0.021906186892537396,
0.011471321695760598,-0.023278905971580048,
0.011521197007481297,-0.02710619268788126,
0.011571072319201995,-0.046110195360973216,
0.011620947630922694,0.008264368732421565,
0.011670822942643391,-0.02088711840572334,
0.01172069825436409,-0.017929558187518624,
0.011770573566084788,-0.01017279255013453,
0.011820448877805487,-0.00029636756276067017,
0.011870324189526184,-0.029872569082991712,
0.011920199501246884,-0.04207922764826453,
0.011970074812967581,-0.06090685107173226,
0.012019950124688279,-0.023202157214608558,
0.012069825436408978,0.005540280519319603,
0.012119700748129675,-0.03302501871315783,
0.012169576059850374,-0.00689683633976575,
0.012219451371571072,0.00014948473982241348,
0.012269326683291771,-0.011600487737846544,
0.012319201995012468,0.007201771787202556,
0.012369077306733168,-0.020902569110641863,
0.012418952618453865,-0.02940424495141746,
0.012468827930174564,0.0019295504099554328,
0.012518703241895262,-0.031136481168762546,
0.01256857855361596,-0.04166456922021698,
0.012618453865336658,-0.003714551179883495,
0.012668329177057357,-0.030387315919255566,
0.012718204488778055,-0.025173475361022372,
0.012768079800498754,-0.036758372664522546,
0.012817955112219451,-0.011063853430067369,
0.012867830423940149,-0.04563311696723646,
0.012917705735660848,0.005000432448723505,
0.012967581047381545,-0.013737579715085501,
0.013017456359102245,0.00431367573302463,
0.013067331670822942,-0.03289087097032649,
0.013117206982543641,-0.012344790367856007,
0.013167082294264339,0.017888246607341004,
0.013216957605985038,-0.012533337247077368,
0.013266832917705735,0.025017722739248918,
0.013316708229426434,-0.024881578232773607,
0.013366583541147132,-0.020567109159508934,
0.013416458852867831,-0.024350751562209647,
0.013466334164588529,-0.007396494879214497,
0.013516209476309228,0.010573073857196916,
0.013566084788029925,-0.007515393575952903,
0.013615960099750624,-0.030651922798433928,
0.013665835411471322,-0.009639021125988302,
0.01371571072319202,0.029665920991698305,
0.013765586034912718,-0.019742025949241203,
0.013815461346633416,-0.012638623327349937,
0.013865336658354115,-0.021642151729633637,
0.013915211970074812,-0.026326130903811026,
0.013965087281795512,-0.004904650589942521,
0.014014962593516209,-0.013528014772874552,
0.014064837905236908,-0.013322491183236597,
0.014114713216957606,0.001953335677519005,
0.014164588528678305,-0.018598444794854008,
0.014214463840399002,-0.0226598557101765,
0.014264339152119701,-0.022470043272464442,
0.014314214463840399,-0.014258427669880412,
0.014364089775561098,-0.019540082136013204,
0.014413965087281795,0.007929630477699597,
0.014463840399002495,0.014398024607757121,
0.014513715710723192,0.003786535659752996,
0.01456359102244389,-0.008818777731516337,
0.014613466334164589,0.0011997572248978773,
0.014663341645885286,0.00827309464180164,
0.014713216957605985,0.033524991223751785,
0.014763092269326683,-0.025930634818685454,
0.014812967581047382,-0.014910329386432915,
0.01486284289276808,-0.0016544254520377442,
0.014912718204488778,-0.016907500603638742,
0.014962593516209476,0.0059005837613871565,
0.015012468827930175,0.010966210095725586,
0.015062344139650873,0.010509937058153515,
0.015112219451371572,0.021195581371881378,
0.01516209476309227,0.010558943504816185,
0.015211970074812968,0.014172528295956282,
0.015261845386533666,0.0384167420556969,
0.015311720698254365,0.002433658240136978,
0.015361596009975062,0.009806714037506159,
0.01541147132169576,-0.007821676020576075,
0.015461346633416459,0.0028822541198584226,
0.015511221945137156,-0.018848756645467382,
0.015561097256857856,0.011118926625164347,
0.015610972568578553,0.005681824001770892,
0.015660847880299252,0.012689133255138423,
0.01571072319201995,-0.017748181018818802,
0.015760598503740647,-0.018360660154796205,
0.015810473815461346,-0.011127239723051869,
0.015860349127182045,-0.001867515419288952,
0.015910224438902745,0.008712144545827291,
0.01596009975062344,0.0019521421519342517,
0.01600997506234414,0.010505564828113496,
0.01605985037406484,-0.018160237940034824,
0.016109725685785538,-0.010480564528661175,
0.016159600997506234,0.0159490524573791,
0.016209476309226933,0.0019943690193648116,
0.016259351620947632,0.03062983296549053,
0.016309226932668328,-0.008304631085887672,
0.016359102244389027,-0.019892323555483597,
0.016408977556109726,0.014399175230615176,
0.016458852867830425,-0.010122706638953167,
0.01650872817955112,0.008049411454151473,
0.01655860349127182,0.01564348889660632,
0.01660847880299252,-0.006089163976483828,
0.01665835411471322,0.02278124596050194,
0.016708229426433914,-0.002145225958902769,
0.016758104738154613,0.0036098375470427894,
0.016807980049875312,-0.01961024633830469,
0.01685785536159601,-0.004664345866698402,
0.016907730673316707,0.0060786749501668645,
0.016957605985037406,0.019903510181508103,
0.017007481296758106,-0.028889686467465082,
0.0170573566084788,0.014133874500046863,
0.0171072319201995,-0.005757264468622418,
0.0171571072319202,0.016494325534681855,
0.0172069825436409,-0.03802481938543239,
0.017256857855361595,-0.01810982890218539,
0.017306733167082294,0.02017463177757208,
0.017356608478802993,-0.0014449513651614834,
0.017406483790523692,-0.010778020244221077,
0.017456359102244388,0.008189481595767607,
0.017506234413965087,0.02690042065487818,
0.017556109725685786,0.02225762237902449,
0.017605985037406485,0.01454564620068537,
0.01765586034912718,0.01151248256094348,
0.01770573566084788,0.022859322502745992,
0.01775561097256858,0.008074783029358963,
0.01780548628428928,0.016787199670887216,
0.017855361596009974,0.00319467772501022,
0.017905236907730673,0.0004862971355198125,
0.017955112219451373,0.0055371529386532515,
0.018004987531172068,0.026800515363485454,
0.018054862842892767,0.02026622901103265,
0.018104738154613467,0.01102169752252633,
0.018154613466334166,0.015343660156246549,
0.01820448877805486,0.02002851871638766,
0.01825436408977556,0.009692128773920554,
0.01830423940149626,0.02760190223073654,
0.01835411471321696,0.039678892546173475,
0.018403990024937655,0.03493268255988815,
0.018453865336658354,0.011388492721537762,
0.018503740648379053,0.00732884426533567,
0.018553615960099752,-0.004140973789183822,
0.018603491271820448,0.036273504071122356,
0.018653366583541147,0.02449928191736804,
0.018703241895261846,0.022143032567323653,
0.018753117206982542,0.029054553167527718,
0.01880299251870324,-0.0003891057261018894,
0.01885286783042394,0.014474846156389134,
0.01890274314214464,0.027324662490074984,
0.018952618453865335,0.016264852587385605,
0.019002493765586034,0.0003950174368389514,
0.019052369077306733,0.012245015063188758,
0.019102244389027433,0.026561976166973193,
0.01915211970074813,-0.000602849958504896,
0.019201995012468828,0.021132036843930467,
0.019251870324189527,-0.0009439504020351715,
0.019301745635910226,0.00195358773170665,
0.01935162094763092,0.027741952653265345,
0.01940149625935162,0.03252164559837063,
0.01945137157107232,0.014040979235682687,
0.01950124688279302,0.027342886286809635,
0.019551122194513715,-0.0011617189352257848,
0.019600997506234414,0.028152558701124625,
0.019650872817955113,0.022768596242256592,
0.01970074812967581,0.021145412901795932,
0.019750623441396508,0.02292626620776233,
0.019800498753117207,0.006445903267525839,
0.019850374064837906,0.046064760398703886,
0.019900249376558602,0.01128173634009996,
0.0199501246882793,0.03229807069350191,
0.02,0.011245988718828646,
0.0200498753117207,0.026809326220822376,
0.020099750623441395,0.021313530902440075,
0.020149625935162094,0.024900134896388856,
0.020199501246882794,0.02481170695476329,
0.020249376558603493,0.015270888781978052,
0.02029925187032419,0.01541279473987417,
0.020349127182044888,-0.006230638803933309,
0.020399002493765587,0.021525201057399225,
0.020448877805486283,-0.0038098854115192864,
0.02049875311720698,0.03131931661418831,
0.02054862842892768,0.008122350294504888,
0.02059850374064838,-0.005191934550628493,
0.020648379052369076,0.029024643276120275,
0.020698254364089775,0.03599944678657538,
0.020748129675810474,0.024607664827277335,
0.020798004987531173,0.018316018097252758,
0.02084788029925187,0.038249867567926026,
0.020897755610972568,0.005139654580970102,
0.020947630922693267,0.013121518197028857,
0.020997506234413967,0.014716979517687644,
0.021047381546134662,0.02047645639382551,
0.02109725685785536,0.020571714238418956,
0.02114713216957606,0.013124254103116092,
0.02119700748129676,0.03551671415819685,
0.021246882793017455,-0.0017601951792014792,
0.021296758104738155,0.014713927751989323,
0.021346633416458854,0.00928477925369911,
0.02139650872817955,0.0024582631616790196,
0.02144638403990025,0.01312389003711144,
0.021496259351620948,-0.004680357520692343,
0.021546134663341647,0.0012109689265944155,
0.021596009975062343,0.004297798677096055,
0.021645885286783042,0.02609183979108412,
0.02169576059850374,0.003184806943198993,
0.02174563591022444,0.016990587317508368,
0.021795511221945136,0.025844720061244032,
0.021845386533665835,0.01292703792330037,
0.021895261845386534,0.02251138241030637,
0.021945137157107233,0.039076414504569196,
0.02199501246882793,0.013169412590208419,
0.02204488778054863,0.024666201868921878,
0.022094763092269327,0.02610107487624832,
0.022144638403990027,0.06167497094882806,
0.022194513715710722,-0.02414234802671853,
0.02224438902743142,3.65725277649831e-05,
0.02229426433915212,0.04347077652152499,
0.022344139650872816,0.0028363982296490675,
0.022394014962593516,0.007384132020907033,
0.022443890274314215,0.007508763063994974,
0.022493765586034914,-0.00030804495636257284,
0.02254364089775561,0.05219966709354193,
0.02259351620947631,0.028665509627852255,
0.022643391521197008,0.007679367839687827,
0.022693266832917707,-0.0010640158841888764,
0.022743142144638403,0.03817502239165431,
0.022793017456359102,0.015121103605518642,
0.0228428927680798,0.026877080050068315,
0.0228927680798005,0.017300491989515165,
0.022942643391521196,0.03056357845370259,
0.022992518703241895,0.013441948623305958,
0.023042394014962594,0.032162200603664884,
0.02309226932668329,0.02878883119932237,
0.02314214463840399,0.0009734969985176443,
0.02319201995012469,0.017104644771708925,
0.023241895261845388,0.0206040275722932,
0.023291770573566083,0.058275392212671626,
0.023341645885286783,0.005290813061387527,
0.02339152119700748,0.017848644538181184,
0.02344139650872818,-0.006714565678534994,
0.023491271820448877,0.01076670972425394,
0.023541147132169576,0.03259387531946047,
0.023591022443890275,0.024396718292338613,
0.023640897755610974,0.021127952987972577,
0.02369077306733167,0.04196683079400368,
0.02374064837905237,0.002758439783217487,
0.023790523690773068,-0.006283873373735555,
0.023840399002493767,-0.018281280653347345,
0.023890274314214463,0.017319026649139604,
0.023940149625935162,0.031071906455064115,
0.02399002493765586,-0.00714914521261587,
0.024039900249376557,0.02130799121071497,
0.024089775561097256,0.015029692292345279,
0.024139650872817955,0.004368586114743467,
0.024189526184538655,0.004414018955940822,
0.02423940149625935,0.033126557343377355,
0.02428927680798005,0.00867952218126435,
0.02433915211970075,0.005545375826474292,
0.024389027431421448,0.034470872416451935,
0.024438902743142144,0.023331907090677836,
0.024488778054862843,-0.0061491255975598385,
0.024538653366583542,-0.001113093407056752,
0.02458852867830424,0.011194261924983583,
0.024638403990024937,0.01625149128203175,
0.024688279301745636,0.0020908352823708967,
0.024738154613466335,0.00015209247924611105,
0.02478802992518703,0.013951897519293578,
0.02483790523690773,0.028565808384950646,
0.02488778054862843,0.006103035890306568,
0.02493765586034913,0.006504033371437435,
0.024987531172069824,0.004465549738145492,
0.025037406483790523,0.02477391717666011,
0.025087281795511222,0.012848937346198599,
0.02513715710723192,0.015254861655105756,
0.025187032418952617,0.025047283628184945,
0.025236907730673316,0.007335379565077389,
0.025286783042394016,0.012355608003835783,
0.025336658354114715,-0.01146202567543771,
0.02538653366583541,0.02438874871357017,
0.02543640897755611,0.010402186827614193,
0.02548628428927681,0.02485011190081091,
0.025536159600997508,-0.0057861123557015805,
0.025586034912718204,0.00890539279101835,
0.025635910224438903,-0.005981561705563551,
0.025685785536159602,-0.021366412354803875,
0.025735660847880298,0.0008598065847849343,
0.025785536159600997,0.00420136700786857,
0.025835411471321696,-0.0012890319968936314,
0.025885286783042395,0.0161787791918983,
0.02593516209476309,-0.002489391891300912,
0.02598503740648379,-0.0074672372952278715,
0.02603491271820449,0.008196772229999278,
0.02608478802992519,0.017866766654213728,
0.026134663341645884,0.014484085885207517,
0.026184538653366583,-0.014047303245874977,
0.026234413965087282,-0.0029921534901068193,
0.02628428927680798,0.004095857627914121,
0.026334164588528677,0.008497891900401386,
0.026384039900249377,-0.012102178033683823,
0.026433915211970076,0.006974475401076825,
0.02648379052369077,0.015756179813771993,
0.02653366583541147,0.004951674974303492,
0.02658354114713217,-0.0025846314872290206,
0.02663341645885287,0.0026128461484975388,
0.026683291770573565,-0.006131034608130534,
0.026733167082294264,0.010426833690851333,
0.026783042394014963,0.01249319929056646,
0.026832917705735662,0.0017604953171800352,
0.026882793017456358,0.0021141689956537283,
0.026932668329177057,-0.031342037479195894,
0.026982543640897756,-0.007896968419894287,
0.027032418952618455,0.016433133659065135,
0.02708229426433915,-0.011442510231782464,
0.02713216957605985,-0.006576452533113709,
0.02718204488778055,-0.0053792514875101866,
0.02723192019950125,-0.0074732551827048875,
0.027281795511221944,0.006750001366470854,
0.027331670822942643,-0.000512305573823976,
0.027381546134663343,-0.006997450972296243,
0.02743142144638404,-0.020944014468526825,
0.027481296758104738,-0.008909327460627335,
0.027531172069825437,0.006642398739610094,
0.027581047381546136,0.018129035046724553,
0.02763092269326683,-0.019847296772017915,
0.02768079800498753,-0.03083677643670254,
0.02773067331670823,-0.007026794284388299,
0.02778054862842893,0.005025590271689126,
0.027830423940149625,0.014244549129060955,
0.027880299251870324,-0.010610643104144661,
0.027930174563591023,-0.010676652270870383,
0.027980049875311722,0.022719482324658362,
0.028029925187032418,-0.02636940947968832,
0.028079800498753117,-0.02228915714136996,
0.028129675810473816,0.003912978854532538,
0.028179551122194512,-0.016453611378356388,
0.02822942643391521,0.015618639281616732,
0.02827930174563591,-0.0004886308889214003,
0.02832917705735661,-0.03892539537226904,
0.028379052369077305,-0.02818678698042061,
0.028428927680798004,-0.005641202137074891,
0.028478802992518704,0.003316287969736653,
0.028528678304239403,-0.017169397297295136,
0.0285785536159601,0.018996995433866272,
0.028628428927680798,0.00534051200971105,
0.028678304239401497,-0.01617545455596722,
0.028728179551122196,-0.011889141478015628,
0.02877805486284289,0.006019323888193647,
0.02882793017456359,-0.014579648738463232,
0.02887780548628429,-0.005322208613257731,
0.02892768079800499,-0.027649973593919762,
0.028977556109725685,-0.024328482241856277,
0.029027431421446384,-0.00844790381491708,
0.029077306733167083,-0.004835139382097869,
0.02912718204488778,-0.0034042182756567653,
0.029177057356608478,-0.0074157011318091515,
0.029226932668329177,-0.04931602015381226,
0.029276807980049877,-0.0006223626371687913,
0.029326683291770572,-0.03242898691545264,
0.02937655860349127,-0.04640875697383523,
0.02942643391521197,-0.003819376563651073,
0.02947630922693267,-0.018909222588710896,
0.029526184538653365,-0.023785694930792897,
0.029576059850374065,-0.045408156636532845,
0.029625935162094764,0.0033559040460847313,
0.029675810473815463,-0.009624259147829082,
0.02972568578553616,-0.020888479479162083,
0.029775561097256858,-0.03861261779220641,
0.029825436408977557,-0.033125881983539836,
0.029875311720698253,-0.02084732584516147,
0.029925187032418952,-0.035251728296027726,
0.02997506234413965,0.008121343848613075,
0.03002493765586035,-0.015265728524148488,
0.030074812967581046,0.007683912936839489,
0.030124688279301745,-0.034369778982148685,
0.030174563591022444,-0.008225899616376734,
0.030224438902743143,-0.016710651073927513,
0.03027431421446384,-0.013646671843196928,
0.03032418952618454,-0.018921547610089975,
0.030374064837905237,-0.04540906963030819,
0.030423940149625937,-0.007336204390834855,
0.030473815461346632,-0.012582562703121584,
0.03052369077306733,-0.027560993522221994,
0.03057356608478803,0.0014440276467275366,
0.03062344139650873,-0.021208164253756483,
0.030673316708229426,-0.020204401892855113,
0.030723192019950125,-0.0007492329807690414,
0.030773067331670824,-0.021125987006801263,
0.03082294264339152,0.011466614835549744,
0.03087281795511222,-0.01389366451194447,
0.030922693266832918,-0.05373575394427855,
0.030972568578553617,-0.006648419365360968,
0.031022443890274313,-0.046735431372734074,
0.031072319201995012,-0.023049685354697265,
0.03112219451371571,-0.03742673611196094,
0.03117206982543641,-0.028947185199499466,
0.031221945137157106,-0.029303054980831973,
0.03127182044887781,-0.024001289081782513,
0.031321695760598504,-0.0043732111241599255,
0.0313715710723192,-0.02223269711712332,
0.0314214463840399,-0.0099292456071625,
0.0314713216957606,-0.004813673025466765,
0.031521197007481294,-0.04588188157487455,
0.031571072319202,-0.02526222232186011,
0.03162094763092269,-0.02950688152052245,
0.03167082294264339,-0.008564789363971299,
0.03172069825436409,-0.02607282425457016,
0.03177057356608479,-0.01993591339044897,
0.03182044887780549,-0.014646113758860308,
0.031870324189526185,-0.02015066874017116,
0.03192019950124688,-0.026072256796535027,
0.03197007481296758,-0.025537531316663413,
0.03201995012468828,-0.016097716264864323,
0.032069825436408975,-0.03782594566726254,
0.03211970074812968,-0.0194855721452924,
0.03216957605985037,-0.0047207866113614435,
0.032219451371571076,-0.03230805772476804,
0.03226932668329177,-0.05610705723376117,
0.03231920199501247,-0.008161734582069868,
0.03236907730673317,-0.015566238877585585,
0.032418952618453865,-0.024286015723322493,
0.03246882793017456,-0.017366187133425463,
0.032518703241895264,-0.02976795370970843,
0.03256857855361596,-0.03497265290548014,
0.032618453865336655,0.015321072976690345,
0.03266832917705736,-0.01908763508872679,
0.032718204488778053,-0.023259667635787566,
0.032768079800498756,-0.016382128546217265,
0.03281795511221945,0.002779418409541339,
0.03286783042394015,-0.0313718129354668,
0.03291770573566085,-0.009982351126563446,
0.032967581047381546,-0.027093517985126422,
0.03301745635910224,-0.030814179092082665,
0.033067331670822944,-0.00243946164200203,
0.03311720698254364,-0.014349446353539477,
0.03316708229426434,-0.012314913425112525,
0.03321695760598504,-0.003758522209737025,
0.033266832917705734,-0.00879400780338093,
0.03331670822942644,-0.019977235376315405,
0.03336658354114713,-0.024253743613809036,
0.03341645885286783,-0.026809934531838386,
0.03346633416458853,-0.02991028138051971,
0.033516209476309226,-0.029031290437641792,
0.03356608478802992,0.028413059647445553,
0.033615960099750625,-0.0026149854468414894,
0.03366583541147132,-0.03174499139074012,
0.03371571072319202,-0.027571841951406842,
0.03376558603491272,0.002025655369214974,
0.033815461346633414,-0.03294649524155482,
0.03386533665835412,-0.003737573864561957,
0.03391521197007481,-0.020388479065935026,
0.03396508728179551,-0.016054080119593132,
0.03401496259351621,0.007796550385077011,
0.03406483790523691,-0.019646657754158827,
0.0341147132169576,0.00026910409495595894,
0.034164588528678305,-0.03179007624195617,
0.034214463840399,-0.0362802605358171,
0.034264339152119704,-0.019442240397468835,
0.0343142144638404,-0.02713045911122445,
0.034364089775561095,0.0067794980140519455,
0.0344139650872818,-0.029787808620342554,
0.03446384039900249,0.006308992005877659,
0.03451371571072319,-0.01982005534951179,
0.03456359102244389,0.009282033062451971,
0.03461346633416459,-0.0002715036368997571,
0.03466334164588529,0.017151794174973593,
0.034713216957605986,0.018746458472615253,
0.03476309226932668,-0.02762472245593758,
0.034812967581047384,-0.003313336154104765,
0.03486284289276808,-0.006254231957020601,
0.034912718204488775,-0.027137988050406982,
0.03496259351620948,-0.0026655841338883665,
0.035012468827930174,-0.01161676365399985,
0.03506234413965087,-0.015276784627655304,
0.03511221945137157,-0.01880821578355394,
0.03516209476309227,0.011741234851883338,
0.03521197007481297,-0.008626879339616186,
0.035261845386533666,-7.849537402064826e-05,
0.03531172069825436,-0.01756751793606393,
0.035361596009975065,-0.030851142086137286,
0.03541147132169576,0.002320692895572491,
0.035461346633416456,-0.019842302652745225,
0.03551122194513716,0.006858086396476202,
0.035561097256857854,-0.021546374377351126,
0.03561097256857856,-0.005895993047667898,
0.03566084788029925,0.02996616976883067,
0.03571072319201995,-0.02297933581149071,
0.03576059850374065,0.01757911551933966,
0.03581047381546135,-0.0009736603552001138,
0.03586034912718204,-0.004341002962345741,
0.035910224438902745,-0.00642830634152073,
0.03596009975062344,0.03779740061351068,
0.036009975062344136,0.031191580276057656,
0.03605985037406484,-0.014545727617079224,
0.036109725685785535,-0.0015096053194777464,
0.03615960099750624,-0.0064860734401359236,
0.03620947630922693,0.026648794697256152,
0.03625935162094763,-0.03999136909858343,
0.03630922693266833,-0.005619437357774872,
0.03635910224438903,0.004297669819778943,
0.03640897755610972,0.0069871197249409605,
0.036458852867830426,0.04465435950045283,
0.03650872817955112,-0.011998406593714709,
0.036558603491271824,0.024770732925455497,
0.03660847880299252,0.014115546902420527,
0.036658354114713215,0.0041366588716442495,
0.03670822942643392,0.0050965078300883124,
0.036758104738154614,0.011554511597240637,
0.03680798004987531,0.0391308569375205,
0.03685785536159601,0.005902187552799657,
0.03690773067331671,0.008005255449469171,
0.0369576059850374,0.004543458402085445,
0.037007481296758106,0.01581463083857352,
0.0370573566084788,-0.000990618332615793,
0.037107231920199504,0.0003586272874918752,
0.0371571072319202,0.01876180487697921,
0.037206982543640896,0.0002960416860229159,
0.0372568578553616,0.044860016297236585,
0.037306733167082294,0.009439948846945252,
0.03735660847880299,0.005945688953683739,
0.03740648379052369,-0.011858114861844784,
0.03745635910224439,0.017965221007479822,
0.037506234413965084,0.005882680431287666,
0.037556109725685786,-0.0017722758675261189,
0.03760598503740648,0.00038048973565948073,
0.037655860349127185,0.024367621682033932,
0.03770573566084788,-0.015550074013077597,
0.037755610972568576,0.030200223284810094,
0.03780548628428928,0.011931542148654791,
0.037855361596009975,0.028107014293556748,
0.03790523690773067,0.0015073310915437507,
0.03795511221945137,0.021125513691359017,
0.03800498753117207,0.017520518749373465,
0.03805486284289277,-0.005012192105719623,
0.03810473815461347,0.050166008691182845,
0.03815461346633416,-0.012106984843411312,
0.038204488778054865,0.0317303443238188,
0.03825436408977556,0.012423351788280681,
0.03830423940149626,0.02363017184712364,
0.03835411471321696,0.004595505100958474,
0.038403990024937655,0.024578346704581762,
0.03845386533665835,-0.006331378748525919,
0.03850374064837905,-0.0072905464319890645,
0.03855361596009975,0.02296730477059441,
0.03860349127182045,0.0012615748889524513,
0.03865336658354115,0.01262712655862877,
0.03870324189526184,-0.013652080895824613,
0.038753117206982546,-0.005188553173867575,
0.03880299251870324,0.0011229074067067649,
0.03885286783042394,0.03226109179429794,
0.03890274314214464,0.01711741640743709,
0.038952618453865336,0.003048166366400165,
0.03900249376558604,0.0013734183744301062,
0.039052369077306734,0.028703854032992714,
0.03910224438902743,0.028677414551263956,
0.03915211970074813,-0.0016999026681066148,
0.03920199501246883,0.06290293345097267,
0.039251870324189524,-0.009962961091415142,
0.039301745635910226,0.011565667703578305,
0.03935162094763092,0.023777449336178744,
0.03940149625935162,0.050012524504559716,
0.03945137157107232,0.02749587352747957,
0.039501246882793016,0.020434677222423415,
0.03955112219451372,-0.0064131578673975835,
0.039600997506234414,0.0067275448320062055,
0.03965087281795511,0.007560018613924481,
0.03970074812967581,0.027754151518681724,
0.03975062344139651,-0.005581923900506745,
0.039800498753117204,0.02008360019472139,
0.03985037406483791,0.01363212246721432,
0.0399002493765586,0.03168803598374864,
0.039950124688279305,0.028298676279414996,
0.04,0.016111073390348514,
0.0400498753117207,0.021803228416661977,
0.0400997506234414,0.027991556188888704,
0.040149625935162095,0.030796460775641483,
0.04019950124688279,0.025435354730656314,
0.04024937655860349,0.01916161389056084,
0.04029925187032419,0.0032923727967903195,
0.040349127182044885,0.011180860616721978,
0.04039900249376559,0.04705347332148848,
0.04044887780548628,0.02593324625116783,
0.040498753117206986,0.034407645633666425,
0.04054862842892768,0.03496950539672516,
0.04059850374064838,0.04067327853703635,
0.04064837905236908,0.016271172684490166,
0.040698254364089775,0.024599528841281814,
0.04074812967581047,0.05973602671716005,
0.040798004987531174,-0.0002275795429048967,
0.04084788029925187,0.04333256464419319,
0.040897755610972565,0.03578249967069201,
0.04094763092269327,0.02387528768993664,
0.04099750623441396,0.014097091612459468,
0.041047381546134666,0.02572979721613682,
0.04109725685785536,0.016093703100105508,
0.04114713216957606,0.032084790207091304,
0.04119700748129676,0.003759159229702762,
0.041246882793017456,0.01031211270160015,
0.04129675810473815,0.008705829697218538,
0.041346633416458854,0.015180739199698248,
0.04139650872817955,0.03616120764679164,
0.04144638403990025,3.646504238095233e-06,
0.04149625935162095,0.036616358565257856,
0.041546134663341644,0.037807365065731374,
0.04159600997506235,0.006451388569306018,
0.04164588528678304,-0.001180859858122378,
0.04169576059850374,0.04219700421087898,
0.04174563591022444,0.02189037111521817,
0.041795511221945136,0.026371980637497665,
0.04184538653366583,0.03374530569974476,
0.041895261845386535,-0.0008660917728480037,
0.04194513715710723,0.009572652115754277,
0.04199501246882793,0.012680399020156257,
0.04204488778054863,0.017685091793959055,
0.042094763092269324,0.00428487350703019,
0.04214463840399003,0.008592277655124292,
0.04219451371571072,0.036050680570075995,
0.04224438902743142,0.026623355517901168,
0.04229426433915212,0.02488433487495931,
0.04234413965087282,0.018582898614227714,
0.04239401496259352,0.03209247709276969,
0.042443890274314215,0.023066830117332907,
0.04249376558603491,0.026343873594079255,
0.042543640897755614,0.025331514748970847,
0.04259351620947631,0.00966491810876998,
0.042643391521197005,0.02288746041516944,
0.04269326683291771,0.01509590423481103,
0.0427431421446384,0.020020449682252247,
0.0427930174563591,0.043016226899439555,
0.0428428927680798,0.012700686439516681,
0.0428927680798005,0.02822969837917217,
0.0429426433915212,0.0096271720506381,
0.042992518703241896,0.02112170782432627,
0.04304239401496259,0.025866428151230216,
0.043092269326683294,-0.006783983746359447,
0.04314214463840399,0.03326451026806362,
0.043192019950124685,0.04071637132784928,
0.04324189526184539,0.04147325122042328,
0.043291770573566084,0.019902275862393796,
0.043341645885286786,0.019129342884580583,
0.04339152119700748,0.014291571746548498,
0.04344139650872818,0.027094810320885735,
0.04349127182044888,0.025819258113551152,
0.043541147132169576,0.009548468447873928,
0.04359102244389027,0.0003190723630872999,
0.043640897755610975,0.02825480033978063,
0.04369077306733167,0.03302448985957046,
0.043740648379052366,0.0027508584883546173,
0.04379052369077307,0.0060714926024890495,
0.043840399002493764,0.026109954970680232,
0.04389027431421447,0.023560665930624634,
0.04394014962593516,0.0031436106786090906,
0.04399002493765586,0.024721165488132454,
0.04403990024937656,0.012156093905650027,
0.04408977556109726,0.020930235030947868,
0.04413965087281795,0.01191984997024179,
0.044189526184538655,0.016824317827491317,
0.04423940149625935,0.015319412741251447,
0.04428927680798005,-0.00672635628016542,
0.04433915211970075,0.00352009097381298,
0.044389027431421445,0.007393176024491524,
0.04443890274314215,0.03328387878842293,
0.04448877805486284,0.00907486590710297,
0.04453865336658354,0.015054656382275893,
0.04458852867830424,0.039453056283344966,
0.04463840399002494,0.03434069045504936,
0.04468827930174563,0.00721334717103214,
0.044738154613466335,0.030241404199766436,
0.04478802992518703,-0.00028061164581925924,
0.044837905236907734,0.019814767401109275,
0.04488778054862843,-0.017788770075914805,
0.044937655860349125,0.03311274532018055,
0.04498753117206983,-0.012987488602589279,
0.045037406483790524,0.024007452575248403,
0.04508728179551122,-0.01604160570298125,
0.04513715710723192,0.019639966759172907,
0.04518703241895262,0.022032408703027632,
0.04523690773067331,0.05257238817190282,
0.045286783042394016,0.028257501589597056,
0.04533665835411471,0.011074578240008112,
0.045386533665835414,0.007132169185643234,
0.04543640897755611,0.018572596825185222,
0.045486284289276806,0.03751629538063169,
0.04553615960099751,0.016814491784580766,
0.045586034912718204,0.00953715824564642,
0.0456359102244389,0.027939223148309062,
0.0456857855361596,0.010295920988701756,
0.0457356608478803,-0.002587678596866226,
0.045785536159601,0.008626060194100867,
0.045835411471321696,0.02588772122406451,
0.04588528678304239,0.026882683001034857,
0.045935162094763095,0.008149634519080547,
0.04598503740648379,0.015260419672834029,
0.046034912718204486,0.01457104068041846,
0.04608478802992519,0.01048139403355679,
0.046134663341645885,-0.004596688118178766,
0.04618453865336658,-0.001548924519786241,
0.04623441396508728,0.008323525589110158,
0.04628428927680798,0.03383226304271474,
0.04633416458852868,-0.008812658564679993,
0.04638403990024938,-0.0006609188900037802,
0.04643391521197007,0.02719974959432292,
0.046483790523690775,-0.014531424601206247,
0.04653366583541147,0.00233687462546458,
0.04658354114713217,-0.00591342051063427,
0.04663341645885287,-0.0019064514842217805,
0.046683291770573565,-0.026782737327843538,
0.04673316708229427,0.00416957954295064,
0.04678304239401496,-0.015334804746984315,
0.04683291770573566,0.0015472241199971223,
0.04688279301745636,-0.0002984046230716683,
0.04693266832917706,0.010687018253089719,
0.04698254364089775,-0.002687198552785014,
0.047032418952618456,0.025528542006369975,
0.04708229426433915,0.007756714325676231,
0.04713216957605985,0.011922722357071418,
0.04718204488778055,0.003196659839202146,
0.047231920199501246,0.0012920618611779525,
0.04728179551122195,-0.00953226140852899,
0.047331670822942644,0.026420422381667273,
0.04738154613466334,-0.01335274595948205,
0.04743142144638404,-0.02790565128961126,
0.04748129675810474,0.012804850615903843,
0.047531172069825434,0.001717663504209631,
0.047581047381546136,-0.01931949669853413,
0.04763092269326683,-0.021233566576323838,
0.047680798004987535,0.015755880088363962,
0.04773067331670823,0.020410113226428467,
0.047780548628428926,0.010667303166660903,
0.04783042394014963,0.009113065987041584,
0.047880299251870324,-0.017080401846902227,
0.04793017456359102,0.00022696236288396229,
0.04798004987531172,-0.010315553571519474,
0.04802992518703242,-0.00528786916783611,
0.048079800498753114,0.011134192397785053,
0.04812967581047382,-0.0014160360465497162,
0.04817955112219451,0.008034509632149398,
0.048229426433915215,-0.009325334077483902,
0.04827930174563591,-0.006085808491857031,
0.048329177057356607,0.004750568050520968,
0.04837905236907731,-0.012044683508380484,
0.048428927680798005,0.006844699658399839,
0.0484788029925187,-0.0053980531618718465,
0.0485286783042394,-0.02836783877096325,
0.0485785536159601,0.006050922042966332,
0.048628428927680795,-0.010155652478626192,
0.0486783042394015,0.006544265393487604,
0.04872817955112219,-0.008448955373692217,
0.048778054862842896,-0.008470788211417307,
0.04882793017456359,0.004902657963970446,
0.04887780548628429,-0.012119572801235257,
0.04892768079800499,0.00024102006272484072,
0.048977556109725685,-0.023008358518159005,
0.04902743142144638,-0.003623269635603607,
0.049077306733167084,0.0038191669404789488,
0.04912718204488778,-0.01743019868571432,
0.04917705735660848,-0.0334214592825971,
0.04922693266832918,-0.018256402321896466,
0.04927680798004987,-0.020444338735813306,
0.049326683291770576,0.009944195776865488,
0.04937655860349127,0.004215322579579895,
0.04942643391521197,-0.027527545602171508,
0.04947630922693267,-0.011569104324377518,
0.049526184538653366,-0.019992850902182648,
0.04957605985037406,-0.03263811544828424,
0.049625935162094764,-0.0247757597702395,
0.04967581047381546,-0.017081472403207808,
0.04972568578553616,-0.006604065726519033,
0.04977556109725686,-0.021815475721533528,
0.049825436408977554,-0.007890483456090894,
0.04987531172069826,-0.028948503186923515,
0.04992518703241895,-0.028924254646881645,
0.04997506234413965,-0.01692015263736583,
0.05002493765586035,-0.02093568372469235,
0.050074812967581046,-0.04641035197431821,
0.05012468827930175,0.009865739191560748,
0.050174563591022445,-0.007724488909181316,
0.05022443890274314,-0.0068917627894475,
0.05027431421446384,-0.030058582925117594,
0.05032418952618454,-4.263281546727782e-06,
0.050374064837905234,-0.03852373376950684,
0.05042394014962594,-0.038872625191483164,
0.05047381546134663,-0.006003367353802653,
0.05052369077306733,-0.021416769791455716,
0.05057356608478803,-0.028693982715290577,
0.05062344139650873,-0.005002985699175974,
0.05067331670822943,-0.031964895078221194,
0.050723192019950125,-0.01710559511148558,
0.05077306733167082,-0.02536862293833307,
0.050822942643391524,-0.013774864137761888,
0.05087281795511222,0.004486515563620161,
0.050922693266832915,-0.0434626237220893,
0.05097256857855362,-0.03513540667520185,
0.05102244389027431,-0.011512955418314614,
0.051072319201995016,-0.0365996307179015,
0.05112219451371571,-0.0043479307748271,
0.05117206982543641,-0.004939369410851846,
0.05122194513715711,0.001186809868054764,
0.051271820448877806,-0.012543545639353004,
0.0513216957605985,-0.030920001433588744,
0.051371571072319204,-0.015981372007196733,
0.0514214463840399,0.0024577275333623715,
0.051471321695760595,-0.03736422761865123,
0.0515211970074813,-0.0538483508728297,
0.051571072319201994,-0.013808230593580146,
0.051620947630922696,0.0041466542372794145,
0.05167082294264339,-0.015418068549150607,
0.05172069825436409,-0.0072923254027986405,
0.05177057356608479,-0.022009385091312544,
0.051820448877805486,-0.014153128619767,
0.05187032418952618,-0.009679668030181426,
0.051920199501246884,-0.026808173774319145,
0.05197007481296758,-0.00736676701752721,
0.052019950124688276,0.002985199106149014,
0.05206982543640898,0.002509622506955557,
0.052119700748129674,0.00018611217039939815,
0.05216957605985038,-0.017148040639359704,
0.05221945137157107,-0.01603574725464596,
0.05226932668329177,-0.02380073442992478,
0.05231920199501247,-0.002411316919285129,
0.05236907730673317,-0.0014331639250627585,
0.05241895261845386,-0.025241025730415173,
0.052468827930174565,-0.027481948363410974,
0.05251870324189526,-0.03841240481865946,
0.05256857855361596,-0.007598270610812917,
0.05261845386533666,-0.006787244500242298,
0.052668329177057355,-0.028902500780262554,
0.05271820448877806,0.0041056396728600605,
0.05276807980049875,-0.050985072327502996,
0.05281795511221945,-0.014670391142524178,
0.05286783042394015,0.005579015504552852,
0.05291770573566085,-0.04431817941185437,
0.05296758104738154,-0.030795840950871355,
0.053017456359102245,-0.014504306672029683,
0.05306733167082294,-0.02876060251226937,
0.053117206982543644,-0.033367170158486684,
0.05316708229426434,-0.029591253654318483,
0.053216957605985035,0.00861172996084408,
0.05326683291770574,-0.01296723714210156,
0.053316708229426434,-0.02198822607498817,
0.05336658354114713,0.006218542008079978,
0.05341645885286783,0.0012741000070935291,
0.05346633416458853,0.0027566160865443775,
0.05351620947630923,-0.0168531257169756,
0.053566084788029926,-0.02647749436301984,
0.05361596009975062,0.0011193684184607582,
0.053665835411471324,0.006378481318159511,
0.05371571072319202,-0.032504063298428296,
0.053765586034912716,-0.0003213319241764743,
0.05381546134663342,0.009283626006578827,
0.053865336658354114,-0.03667264358557241,
0.05391521197007481,-0.0067998454862064645,
0.05396508728179551,-0.024353590754467,
0.05401496259351621,-0.008703313537846856,
0.05406483790523691,-0.0015957034470202086,
0.054114713216957606,-0.008479295615570627,
0.0541645885286783,-0.017213819683706166,
0.054214463840399005,-0.011240857158814292,
0.0542643391521197,0.0068569936102474225,
0.054314214463840396,-0.03494884891916951,
0.0543640897755611,-0.006360144383909576,
0.054413965087281795,0.00484782942370689,
0.0544638403990025,-0.007499252430934474,
0.05451371571072319,-0.036873153611675535,
0.05456359102244389,-0.005855245087229399,
0.05461346633416459,-0.020158507415598513,
0.05466334164588529,-0.022555279002180822,
0.05471321695760598,0.011491090087273535,
0.054763092269326685,-0.00412972609536737,
0.05481296758104738,-0.015806824241259954,
0.05486284289276808,-0.0042307307208151,
0.05491271820448878,-0.003821988129442064,
0.054962593516209475,0.0014156698899508938,
0.05501246882793018,-0.018941796443255342,
0.05506234413965087,-0.0040879047827343026,
0.05511221945137157,-0.015094912846433368,
0.05516209476309227,0.009948340954386856,
0.05521197007481297,0.004882498307823504,
0.05526184538653366,-0.013185606025087596,
0.055311720698254366,0.019638547623290908,
0.05536159600997506,0.0009556155037300207,
0.05541147132169576,-0.010238613800557723,
0.05546134663341646,-0.010460648533479323,
0.055511221945137156,0.0006442405087301892,
0.05556109725685786,-0.007328813118281979,
0.055610972568578554,0.005626215404990569,
0.05566084788029925,0.013734270740630383,
0.05571072319201995,-0.017778898284533808,
0.05576059850374065,-0.001534845568782665,
0.055810473815461344,0.005694076740242452,
0.055860349127182046,0.019440915666942903,
0.05591022443890274,0.016525761142160065,
0.055960099750623445,0.022461537476556687,
0.05600997506234414,-0.006797847562739287,
0.056059850374064836,-0.002739534965956131,
0.05610972568578554,-0.0333388774945874,
0.056159600997506234,0.022231072811245017,
0.05620947630922693,0.007055258200528049,
0.05625935162094763,0.015616697685272456,
0.05630922693266833,-0.006125151619567976,
0.056359102244389024,-0.021295631457089306,
0.05640897755610973,0.037995062788107055,
0.05645885286783042,0.022224676443908804,
0.056508728179551125,0.011322935751840926,
0.05655860349127182,-0.008748911446348163,
0.056608478802992516,0.00810534008933468,
0.05665835411471322,0.0020948321425333814,
0.056708229426433915,0.013731076603801904,
0.05675810473815461,-0.009519072917957663,
0.05680798004987531,-0.005586300724052012,
0.05685785536159601,-0.004039650976784253,
0.05690773067331671,0.007649260609304244,
0.05695760598503741,0.011139522932650105,
0.0570074812967581,0.0021266804323214128,
0.057057356608478806,-0.006640091134407991,
0.0571072319201995,0.018252310455156205,
0.0571571072319202,0.002763269108473727,
0.0572069825436409,-0.0037024099379415164,
0.057256857855361595,0.007941027948160241,
0.05730673316708229,-0.013008986392755762,
0.057356608478802994,0.021150039821832545,
0.05740648379052369,0.02857776235015728,
0.05745635910224439,-0.0021327323531607194,
0.05750623441396509,0.01532554316557921,
0.05755610972568578,-0.006247549744834307,
0.057605985037406486,0.0004338216279705445,
0.05765586034912718,0.04256275059705211,
0.05770573566084788,0.011477796619163644,
0.05775561097256858,0.03667056430300823,
0.057805486284289276,0.0018315423904565632,
0.05785536159600998,-0.004496883307281327,
0.057905236907730674,0.007430006683264924,
0.05795511221945137,-0.0010977940850906524,
0.05800498753117207,-0.004838863352101003,
0.05805486284289277,-0.008505394423584525,
0.058104738154613464,0.0143373831815184,
0.05815461346633417,0.000613586000298965,
0.05820448877805486,0.0010405569575144755,
0.05825436408977556,0.0004479632160744422,
0.05830423940149626,0.031888053275234154,
0.058354114713216956,-0.004062905029706205,
0.05840399002493766,0.012270483203525863,
0.058453865336658355,0.001715938714048626,
0.05850374064837905,0.011973746213204715,
0.05855361596009975,0.006738518041607548,
0.05860349127182045,-0.03266923556449983,
0.058653366583541144,0.01168562016621956,
0.05870324189526185,0.038884358922699924,
0.05875311720698254,0.02595473222127006,
0.05880299251870324,0.04021014808858489,
0.05885286783042394,0.01378365948247116,
0.05890274314214464,0.03247713730805838,
0.05895261845386534,0.007023888663046174,
0.059002493765586035,0.009236867139628827,
0.05905236907730673,-0.0018229349341958648,
0.059102244389027433,0.005444454026578621,
0.05915211970074813,0.014241543116525819,
0.059201995012468825,0.0031052948727166192,
0.05925187032418953,0.015339560426707477,
0.05930174563591022,0.01863243281182725,
0.059351620947630926,0.012278411839052986,
0.05940149625935162,-0.013613869313628672,
0.05945137157107232,0.040537804763981125,
0.05950124688279302,0.015397377124058174,
0.059551122194513716,0.03144231266784818,
0.05960099750623441,0.02718022364059614,
0.059650872817955114,0.029477144983889585,
0.05970074812967581,0.029960176729728158,
0.059750623441396505,0.03401275546623333,
0.05980049875311721,0.020453573992068184,
0.059850374064837904,0.029772742117921906,
0.059900249376558606,0.004389480431066139,
0.0599501246882793,0.025133766911129892,
0.06,0.05588793128085644,
0.0600498753117207,0.0192934173578109,
0.060099750623441396,-0.011414055191028578,
0.06014962593516209,0.017305378591264776,
0.060199501246882794,-0.0006397627312576606,
0.06024937655860349,0.0116182602632028,
0.06029925187032419,0.0236706087682441,
0.06034912718204489,0.029057814966726717,
0.060399002493765584,0.024527408535052683,
0.06044887780548629,0.06400019017828534,
0.06049875311720698,0.03169474825756667,
0.06054862842892768,0.014896249214601504,
0.06059850374064838,0.01559616436455303,
0.06064837905236908,0.025017701734828937,
0.06069825436408977,0.030980028033445732,
0.060748129675810475,-0.0019597646351757377,
0.06079800498753117,0.01882072459018651,
0.06084788029925187,0.02418764527098048,
0.06089775561097257,0.018517454512682375,
0.060947630922693265,0.03474353001083425,
0.06099750623441397,0.018998206733076294,
0.06104738154613466,0.05150161685675636,
0.06109725685785536,0.05017606634759889,
0.06114713216957606,0.013244311861047088,
0.06119700748129676,0.029327507315822184,
0.06124688279301746,0.046935802216549166,
0.061296758104738155,0.04246371193491994,
0.06134663341645885,0.006818702599382966,
0.061396508728179554,0.01237239024008291,
0.06144638403990025,0.042624061333860506,
0.061496259351620945,0.026519984410761237,
0.06154613466334165,0.03963453943488967,
0.061596009975062344,0.024350668476951828,
0.06164588528678304,0.0350244066263774,
0.06169576059850374,0.021165199006691837,
0.06174563591022444,0.029469911425901087,
0.06179551122194514,0.023814122217931964,
0.061845386533665836,0.04939297569315765,
0.06189526184538653,0.021862992906504758,
0.061945137157107234,0.010555356350900599,
0.06199501246882793,-0.001263486031423268,
0.062044887780548626,0.02991101037756019,
0.06209476309226933,0.0050528872017841855,
0.062144638403990024,0.03645039007334738,
0.06219451371571072,0.03260833445066955,
0.06224438902743142,0.013754003284101902,
0.06229426433915212,0.0015346929168788895,
0.06234413965087282,0.05126808975542478,
0.062394014962593516,0.028608345981370655,
0.06244389027431421,0.018597242095848572,
0.062493765586034915,-0.003736460141567678,
0.06254364089775562,0.027254546465508393,
0.06259351620947631,0.014164166107248535,
0.06264339152119701,0.014013059157051049,
0.0626932668329177,0.01162039039164113,
0.0627431421446384,0.003517304340657102,
0.0627930174563591,0.011390788933882344,
0.0628428927680798,-0.018149990790785824,
0.0628927680798005,0.04446213080399098,
0.0629426433915212,0.03634415691444607,
0.06299251870324189,0.03215992127079606,
0.06304239401496259,0.03527844874284557,
0.0630922693266833,0.016127111226363868,
0.063142144638404,-0.0069060997519149354,
0.06319201995012469,0.03334855400427527,
0.06324189526184539,-0.0005485382673125518,
0.06329177057356608,0.035720417605833464,
0.06334164588528678,0.021450151969119577,
0.06339152119700749,0.004962124575888797,
0.06344139650872818,0.03638181897959536,
0.06349127182044888,0.04101796274039719,
0.06354114713216957,0.026446038412660827,
0.06359102244389027,0.057349615414486216,
0.06364089775561098,0.012312607334484273,
0.06369077306733167,0.0429644065404457,
0.06374064837905237,0.03253930193786351,
0.06379052369077307,0.031198630450714134,
0.06384039900249376,0.01839689440940543,
0.06389027431421446,-0.005398158357584549,
0.06394014962593517,0.01702756303492453,
0.06399002493765586,0.01863868120255283,
0.06403990024937656,0.0396873106480756,
0.06408977556109725,0.015343613646626904,
0.06413965087281795,0.011354516780496534,
0.06418952618453866,0.006926580265985565,
0.06423940149625935,0.005896051089797027,
0.06428927680798005,0.021559108810732308,
0.06433915211970075,0.010467913569640474,
0.06438902743142144,0.020908249194357874,
0.06443890274314215,-0.0013426602327742398,
0.06448877805486285,0.012933075365253028,
0.06453865336658354,0.012964971686196381,
0.06458852867830424,0.0001484343633001619,
0.06463840399002493,0.02254368720959589,
0.06468827930174563,0.019657021199857926,
0.06473815461346634,0.0345508615095505,
0.06478802992518704,-0.016368097452646824,
0.06483790523690773,0.011878628742624082,
0.06488778054862843,0.0020820246412512223,
0.06493765586034912,0.03898750407398502,
0.06498753117206983,0.0021703811834531423,
0.06503740648379053,-0.000420909809131894,
0.06508728179551122,0.002938039926000585,
0.06513715710723192,0.01332089011518303,
0.06518703241895261,0.02545268067829718,
0.06523690773067331,0.02219242336398349,
0.06528678304239402,-0.0066368277828574435,
0.06533665835411472,0.01856205822853145,
0.06538653366583541,0.012578314051844463,
0.06543640897755611,-0.006266249804973773,
0.0654862842892768,0.017698110691227984,
0.06553615960099751,0.00942937025593472,
0.06558603491271821,-0.010301182469591639,
0.0656359102244389,0.026004697153775846,
0.0656857855361596,0.0037263108235923116,
0.0657356608478803,0.018384316499753903,
0.06578553615960099,-0.012246806981243757,
0.0658354114713217,0.030564753749312445,
0.0658852867830424,0.005922407462342949,
0.06593516209476309,0.008322251928782852,
0.06598503740648379,-0.00042980117684112643,
0.06603491271820448,0.010885549146301056,
0.06608478802992519,-0.007321053588009525,
0.06613466334164589,0.006752753546534645,
0.06618453865336658,-0.007869492116575475,
0.06623441396508728,0.0160739120160018,
0.06628428927680798,0.015734059174509013,
0.06633416458852869,0.013193590250325566,
0.06638403990024938,-0.006438261745629712,
0.06643391521197008,0.0020638174232799713,
0.06648379052369077,-0.0006576305629776794,
0.06653366583541147,0.029902077500308058,
0.06658354114713216,0.016774941984411356,
0.06663341645885287,-0.009689859770818744,
0.06668329177057357,-0.00043435869462468517,
0.06673316708229426,0.0011494563202521372,
0.06678304239401496,-0.007135886235866761,
0.06683291770573566,0.00456341790166368,
0.06688279301745637,0.002313151132899627,
0.06693266832917706,0.005361302954161732,
0.06698254364089776,0.022843365067568018,
0.06703241895261845,-0.004305846165001525,
0.06708229426433915,0.002574276821757161,
0.06713216957605984,-0.00040129883465089215,
0.06718204488778055,-0.017535769441187416,
0.06723192019950125,0.026763277483795617,
0.06728179551122195,-0.01624281712483121,
0.06733167082294264,-0.0059428543223271416,
0.06738154613466334,0.007329072285655895,
0.06743142144638405,0.014915421759606255,
0.06748129675810474,-0.010512347515581635,
0.06753117206982544,0.006092376142976048,
0.06758104738154613,-0.02062620417014059,
0.06763092269326683,-0.012095394067461691,
0.06768079800498752,-0.007128475421355339,
0.06773067331670823,-0.03590075733235795,
0.06778054862842893,-0.0034525875865239865,
0.06783042394014963,0.022424371164015865,
0.06788029925187032,0.007011360969507777,
0.06793017456359102,-0.00821638687513842,
0.06798004987531173,-0.00959307388774748,
0.06802992518703242,-0.001128398949479368,
0.06807980049875312,0.008618462011000576,
0.06812967581047381,-0.013856503518597421,
0.06817955112219451,-0.022949584968634838,
0.0682294264339152,-0.005128425597613052,
0.06827930174563591,-0.01880236150920931,
0.06832917705735661,0.0020684582593458465,
0.0683790523690773,-0.007782176249019263,
0.068428927680798,-0.030450045213174837,
0.0684788029925187,-0.006474473883588855,
0.06852867830423941,0.0046041794061643625,
0.0685785536159601,-0.011937405327303571,
0.0686284289276808,0.0008459441328290233,
0.0686783042394015,-0.011700427880978656,
0.06872817955112219,0.0047990332250754855,
0.0687780548628429,-0.0028999914515013296,
0.0688279301745636,0.003227993022846206,
0.06887780548628429,-0.017568514453756456,
0.06892768079800499,0.0022396094605058314,
0.06897755610972568,0.021687343285043764,
0.06902743142144638,-0.005641859110781066,
0.06907730673316709,-0.012009479423247801,
0.06912718204488778,-0.02297500591057007,
0.06917705735660848,-0.023181697589157873,
0.06922693266832917,-0.009505777434953358,
0.06927680798004987,-0.014389345269975385,
0.06932668329177058,0.0014923077385380259,
0.06937655860349128,-0.007750469704594354,
0.06942643391521197,0.0012848166620764868,
0.06947630922693267,-0.0021731159322247503,
0.06952618453865336,-0.02102797282024173,
0.06957605985037406,0.01566324420519965,
0.06962593516209477,-0.003698571163785339,
0.06967581047381546,-0.023404890171980323,
0.06972568578553616,-0.027416195276415038,
0.06977556109725686,-0.014980591564151447,
0.06982543640897755,-0.016930451842610203,
0.06987531172069826,-0.015096299833476863,
0.06992518703241896,-0.013432901951975306,
0.06997506234413965,-0.005897604474178961,
0.07002493765586035,-0.01248776273873411,
0.07007481296758104,-0.03520530862339914,
0.07012468827930174,-0.005768389038255162,
0.07017456359102245,-0.015157239123725923,
0.07022443890274314,-0.02561850616853938,
0.07027431421446384,0.012095783684209877,
0.07032418952618454,-0.021599230233765084,
0.07037406483790523,-0.01342274250062029,
0.07042394014962594,-0.02297267396145982,
0.07047381546134664,-0.002030606100148203,
0.07052369077306733,-0.007736701233140114,
0.07057356608478803,-0.013691177829411311,
0.07062344139650872,-0.022753522845212704,
0.07067331670822943,-0.03503756163609981,
0.07072319201995013,-0.0017720039680749877,
0.07077306733167082,0.03633129715594671,
0.07082294264339152,-0.007852588447560498,
0.07087281795511222,0.02147927469030268,
0.07092269326683291,-0.012402571283913342,
0.07097256857855362,0.011091905258715264,
0.07102244389027432,-0.011268157868982573,
0.07107231920199501,-0.024608884137814854,
0.07112219451371571,-0.003990308306885647,
0.0711720698254364,-0.019282591278901078,
0.07122194513715711,-0.015022486402033942,
0.07127182044887781,-0.032370924547766466,
0.0713216957605985,-0.011776343321437026,
0.0713715710723192,-0.015321215209265188,
0.0714214463840399,-0.01640803160477603,
0.07147132169576059,-0.021800794722243444,
0.0715211970074813,-0.024893494806131348,
0.071571072319202,-0.036465202863851284,
0.0716209476309227,-0.01418917325564266,
0.07167082294264339,-0.011270505166922767,
0.07172069825436408,0.013168602092783845,
0.0717705735660848,-0.022051634625686146,
0.07182044887780549,-0.02381592344597338,
0.07187032418952619,-0.027296873278796,
0.07192019950124688,-0.009039350276725096,
0.07197007481296758,0.014613834597579353,
0.07201995012468827,-0.013713149961934047,
0.07206982543640898,-0.007947570331992431,
0.07211970074812968,0.0005269202327718697,
0.07216957605985037,-0.011217668603162987,
0.07221945137157107,-0.009661215940332521,
0.07226932668329177,-0.02954376940344462,
0.07231920199501247,-0.025244148007952612,
0.07236907730673317,-0.014647923057427686,
0.07241895261845387,-0.0206776798163421,
0.07246882793017456,-0.02133975811080079,
0.07251870324189526,-0.028567360558826117,
0.07256857855361595,-0.015362205442840445,
0.07261845386533666,0.004370956467392443,
0.07266832917705736,-0.004047772395628929,
0.07271820448877805,-0.03714320384711238,
0.07276807980049875,0.006977589236944687,
0.07281795511221945,-0.013238375113903102,
0.07286783042394016,-0.014293552303409857,
0.07291770573566085,0.011410829206115601,
0.07296758104738155,-0.014925599297285028,
0.07301745635910224,-0.0014839730410214497,
0.07306733167082294,-0.019147908098144338,
0.07311720698254365,-0.021480985385639348,
0.07316708229426434,-0.005754371251598469,
0.07321695760598504,-0.009191042833670468,
0.07326683291770573,0.0020082708602123314,
0.07331670822942643,-0.02872043769831616,
0.07336658354114713,-0.02636182364672319,
0.07341645885286784,-0.01834816511627544,
0.07346633416458853,-0.015456818737961947,
0.07351620947630923,-0.02107578748096821,
0.07356608478802992,-0.0051718063742165225,
0.07361596009975062,-0.037062076473684584,
0.07366583541147133,-0.030913208369981363,
0.07371571072319202,-0.00712235225442742,
0.07376558603491272,-0.01899363822565838,
0.07381546134663342,-0.03551167677443578,
0.07386533665835411,-0.021003824870464167,
0.0739152119700748,-0.0076709817660929845,
0.07396508728179552,-0.013190868502860786,
0.07401496259351621,0.0031844288873589238,
0.07406483790523691,-0.008445702621321818,
0.0741147132169576,0.015498279616012623,
0.0741645885286783,-0.012773188372590769,
0.07421446384039901,-0.01239096590374086,
0.0742643391521197,-0.00026998627330260955,
0.0743142144638404,-0.01098910876420034,
0.0743640897755611,-0.0038347195116948986,
0.07441396508728179,-0.02127399664277866,
0.07446384039900249,0.004577149142904507,
0.0745137157107232,0.00814067093277697,
0.07456359102244389,0.020931679943148908,
0.07461346633416459,-0.0029998648891220057,
0.07466334164588528,-0.013394490577381322,
0.07471321695760598,-0.0020731518419720724,
0.07476309226932669,0.007909110534968157,
0.07481296758104738,0.0023456743617216967,
0.07486284289276808,-0.009832750069319562,
0.07491271820448878,-0.00966400860737079,
0.07496259351620947,0.0033991379763486564,
0.07501246882793017,0.00467233405056486,
0.07506234413965088,0.009972214131239509,
0.07511221945137157,-0.030454024788958436,
0.07516209476309227,-0.00564201804389172,
0.07521197007481296,0.015914489322850788,
0.07526184538653366,-0.0023013458489061,
0.07531172069825437,0.011589584431891961,
0.07536159600997507,-0.0005178503691030925,
0.07541147132169576,-0.0246203596684754,
0.07546134663341646,-0.01875755217374929,
0.07551122194513715,-0.007164194817132936,
0.07556109725685786,-0.01686777100530597,
0.07561097256857856,0.013341825273489195,
0.07566084788029925,0.005263258049206261,
0.07571072319201995,0.004411696719362087,
0.07576059850374064,-0.005271152115019806,
0.07581047381546134,0.029846031514397894,
0.07586034912718205,-0.005270782491360976,
0.07591022443890275,-0.016624246323575047,
0.07596009975062344,-0.011707412144631335,
0.07600997506234414,0.011745119868458625,
0.07605985037406483,-0.011372434155131476,
0.07610972568578554,0.01159377862254431,
0.07615960099750624,0.010747974260966544,
0.07620947630922693,0.020173743982141622,
0.07625935162094763,0.01629493364277289,
0.07630922693266833,0.024473226356123548,
0.07635910224438902,0.010191442365835237,
0.07640897755610973,-0.0016133430989604125,
0.07645885286783043,0.04696548942161772,
0.07650872817955112,-0.011467771650400358,
0.07655860349127182,0.021018681918706893,
0.07660847880299251,0.02408667920691861,
0.07665835411471322,-0.03214933193943097,
0.07670822942643392,0.012539982334837173,
0.07675810473815461,-0.01891590284002026,
0.07680798004987531,-0.0024749554721139044,
0.076857855361596,0.010396331582250165,
0.0769077306733167,-0.006468665691147547,
0.07695760598503741,0.002467834084930705,
0.0770074812967581,0.014403787776825102,
0.0770573566084788,0.0030658017099887648,
0.0771072319201995,0.017255776785102806,
0.0771571072319202,0.02695903912784095,
0.0772069825436409,0.017584063631147395,
0.0772568578553616,0.012198480410507617,
0.0773067331670823,0.030544047934291604,
0.07735660847880299,0.01193464485767352,
0.07740648379052369,0.0067933206260589836,
0.0774563591022444,0.019403118505235427,
0.07750623441396509,-0.015319050501838571,
0.07755610972568579,0.031499389280967974,
0.07760598503740648,-0.002197819916707453,
0.07765586034912718,0.00039621446769431447,
0.07770573566084787,0.01459883832349281,
0.07775561097256858,0.03976957187716112,
0.07780548628428928,0.010724252817592338,
0.07785536159600998,0.0037169183027128856,
0.07790523690773067,0.011493086465335775,
0.07795511221945137,-0.009025708919991144,
0.07800498753117208,0.014731314347022085,
0.07805486284289277,0.01007330182671874,
0.07810473815461347,-0.009281049179725387,
0.07815461346633416,0.007279005226919296,
0.07820448877805486,-0.0012089985834598492,
0.07825436408977555,0.020383726455626475,
0.07830423940149626,-0.002437773861024877,
0.07835411471321696,0.00501918234843844,
0.07840399002493766,0.016461475661655768,
0.07845386533665835,0.05427898642684035,
0.07850374064837905,0.02496958110698593,
0.07855361596009976,0.011397517690838856,
0.07860349127182045,0.03243364128569218,
0.07865336658354115,-0.006158132079009008,
0.07870324189526184,0.01780676814211707,
0.07875311720698254,-0.018921394187621007,
0.07880299251870324,0.028890750955884226,
0.07885286783042394,0.0026507025840008316,
0.07890274314214464,-0.0053852804618256915,
0.07895261845386534,0.011167508174647777,
0.07900249376558603,0.026797996065291055,
0.07905236907730673,0.03658867480805889,
0.07910224438902744,0.014899647505167705,
0.07915211970074813,0.036722707511097595,
0.07920199501246883,0.023048643913015282,
0.07925187032418952,0.01617906882144526,
0.07930174563591022,0.023919912587260075,
0.07935162094763092,0.027206867368932273,
0.07940149625935163,0.03203932386989796,
0.07945137157107232,0.02017969047289785,
0.07950124688279302,0.003510162162905478,
0.07955112219451371,0.017337410410433816,
0.07960099750623441,0.06566888005643387,
0.07965087281795512,0.030765988641047452,
0.07970074812967581,0.025274855684122747,
0.07975062344139651,0.04004951572206672,
0.0798004987531172,0.011154156602757478,
0.0798503740648379,0.012886227554297532,
0.07990024937655861,0.011384199791291488,
0.0799501246882793,0.049393095771439716,
0.08,0.016505162577173146,
0.0800498753117207,0.009586433947699024,
0.0800997506234414,0.036983634097383915,
0.08014962593516209,-0.0037460806587529226,
0.0801995012468828,0.027760794226067777,
0.0802493765586035,0.018125896322491904,
0.08029925187032419,0.029642973950482543,
0.08034912718204489,0.04914450599876766,
0.08039900249376558,0.026034652147170604,
0.08044887780548629,0.028136864935930303,
0.08049875311720699,0.009476122852956927,
0.08054862842892768,0.011200581006009153,
0.08059850374064838,0.05374864767761145,
0.08064837905236907,-0.0013065570695877035,
0.08069825436408977,0.014051988390901228,
0.08074812967581048,0.057465318078436134,
0.08079800498753117,-0.005518730120727639,
0.08084788029925187,0.006888895199365162,
0.08089775561097257,0.01881351311802671,
0.08094763092269326,0.008749790454680103,
0.08099750623441397,0.0333925923957407,
0.08104738154613467,0.006364769540045948,
0.08109725685785536,0.02243441372288055,
0.08114713216957606,-0.0024685652252673003,
0.08119700748129675,0.03112376369896775,
0.08124688279301745,0.032194600000019766,
0.08129675810473816,0.007778298251338314,
0.08134663341645886,0.03697165591962361,
0.08139650872817955,0.03001912793592236,
0.08144638403990025,0.012492095334392092,
0.08149625935162094,0.020298485679553856,
0.08154613466334165,0.01109262248459706,
0.08159600997506235,0.01913338014007439,
0.08164588528678304,0.04928370091540211,
0.08169576059850374,0.026230938508355707,
0.08174563591022443,0.03492826176302896,
0.08179551122194513,0.011379032310343238,
0.08184538653366584,0.0351785134608213,
0.08189526184538654,0.04270935350180012,
0.08194513715710723,0.00785690966913492,
0.08199501246882793,0.04378965081380266,
0.08204488778054862,0.03818391012241368,
0.08209476309226933,0.029891206248669297,
0.08214463840399003,0.01016017365729708,
0.08219451371571072,0.0439770017160422,
0.08224438902743142,0.05160811297427709,
0.08229426433915212,0.04215575048277001,
0.08234413965087282,0.021708853227700862,
0.08239401496259352,0.02390026990119645,
0.08244389027431422,0.033624473572334626,
0.08249376558603491,-0.005023007436260187,
0.08254364089775561,0.0208637409142439,
0.0825935162094763,0.01205780074786821,
0.08264339152119701,0.040778221361865014,
0.08269326683291771,0.014192660500153276,
0.0827431421446384,0.04216026759940429,
0.0827930174563591,-0.004255737386727368,
0.0828428927680798,0.03663772992034331,
0.0828927680798005,0.005781879887513976,
0.0829426433915212,0.052597204727486815,
0.0829925187032419,0.013595124701194092,
0.08304239401496259,-0.005912173752806903,
0.08309226932668329,0.016132206476632632,
0.08314214463840398,0.01677275629208158,
0.0831920199501247,0.01266567702013141,
0.08324189526184539,-0.004690212699079675,
0.08329177057356608,0.024040730293264697,
0.08334164588528678,0.010473119885609306,
0.08339152119700748,0.04069904221445543,
0.08344139650872819,0.03708743489383059,
0.08349127182044888,0.032612519047859174,
0.08354114713216958,0.024214705653806755,
0.08359102244389027,0.011853261885137715,
0.08364089775561097,0.022653005193190728,
0.08369077306733166,0.04594135079998348,
0.08374064837905237,0.02259168133244663,
0.08379052369077307,0.017686535217967737,
0.08384039900249377,0.03043331898208701,
0.08389027431421446,0.006402850107441712,
0.08394014962593516,0.012725745360188563,
0.08399002493765587,0.028382102139123462,
0.08403990024937656,0.01576299323094354,
0.08408977556109726,0.012176989761195158,
0.08413965087281795,0.02948961819494246,
0.08418952618453865,0.027085131082598128,
0.08423940149625936,0.02918934842994927,
0.08428927680798005,0.009836296576519715,
0.08433915211970075,0.01683256122846926,
0.08438902743142145,0.01755888714606497,
0.08443890274314214,0.03273376757802961,
0.08448877805486284,0.011287102263754817,
0.08453865336658355,0.03730840835688426,
0.08458852867830424,0.033970888523557036,
0.08463840399002494,0.004504305413719635,
0.08468827930174563,0.011702536440428062,
0.08473815461346633,0.015303694287325672,
0.08478802992518704,0.01682410513795931,
0.08483790523690773,0.02224219379064615,
0.08488778054862843,0.012304618628809483,
0.08493765586034913,0.023161562297714773,
0.08498753117206982,0.03822997878806135,
0.08503740648379052,0.017739721312011274,
0.08508728179551123,0.027215760634453592,
0.08513715710723192,0.0259145268074538,
0.08518703241895262,0.021992860523241602,
0.08523690773067331,0.006985252271519398,
0.08528678304239401,0.011512428068270696,
0.08533665835411472,0.011423405629491049,
0.08538653366583542,0.014665450058492051,
0.08543640897755611,0.013372070647543564,
0.0854862842892768,0.03218222189237668,
0.0855361596009975,0.0037701774867212653,
0.0855860349127182,0.008258500746442314,
0.08563591022443891,0.007289843508521947,
0.0856857855361596,0.0235478559957103,
0.0857356608478803,-0.033619190724738825,
0.085785536159601,0.03169484656017476,
0.08583541147132169,0.022381425978457818,
0.0858852867830424,0.014454146688042582,
0.0859351620947631,-0.006375701450182044,
0.08598503740648379,0.0011255117667361347,
0.08603491271820449,0.010209326249577884,
0.08608478802992518,0.002347273734924586,
0.08613466334164588,0.01628412234292983,
0.08618453865336659,-0.004595285322722575,
0.08623441396508728,0.01721873215321174,
0.08628428927680798,0.03148501858596976,
0.08633416458852868,0.005643794340933722,
0.08638403990024937,0.015165173530798912,
0.08643391521197008,0.00565980686020995,
0.08648379052369078,0.0064602733418044804,
0.08653366583541147,0.028158376610582812,
0.08658354114713217,-0.01923682226222152,
0.08663341645885286,0.021866228919906423,
0.08668329177057357,-0.013147795006432046,
0.08673316708229427,0.03767016078219633,
0.08678304239401496,-0.013724190001072004,
0.08683291770573566,0.004363186379290885,
0.08688279301745636,0.025724190280762668,
0.08693266832917705,0.01629800945521786,
0.08698254364089776,0.004163607151883828,
0.08703241895261846,0.018951669877376114,
0.08708229426433915,-0.00712936223003993,
0.08713216957605985,-0.0010206576823844644,
0.08718204488778054,-0.0019219897661282145,
0.08723192019950125,0.010378556541563066,
0.08728179551122195,0.041120834341490116,
0.08733167082294264,0.015767441732883632,
0.08738154613466334,0.020335558644537385,
0.08743142144638404,-0.011440305546467043,
0.08748129675810473,0.012575149685144654,
0.08753117206982544,-0.04168745883092898,
0.08758104738154614,-0.019629157171264615,
0.08763092269326683,0.006410768657752878,
0.08768079800498753,-0.006504693538580096,
0.08773067331670822,-0.016107710131546434,
0.08778054862842893,-0.00557134277044075,
0.08783042394014963,0.007687310621964687,
0.08788029925187033,-0.019763407521427162,
0.08793017456359102,0.020556330401940805,
0.08798004987531172,-0.02135167009067365,
0.08802992518703241,-0.021595296206496094,
0.08807980049875312,-0.022456007359924975,
0.08812967581047382,0.0057603249705684475,
0.08817955112219451,-0.016311741872681106,
0.08822942643391521,-0.03707115501403317,
0.0882793017456359,0.0010095152552870058,
0.08832917705735661,-0.008969784742214515,
0.08837905236907731,0.00406368337843849,
0.088428927680798,0.006320566933583498,
0.0884788029925187,-0.013128381223181615,
0.0885286783042394,-0.003007703318915681,
0.0885785536159601,-0.0035812162861853596,
0.0886284289276808,-0.03731486040086561,
0.0886783042394015,-0.009810767603752577,
0.0887281795511222,-0.009543883372299042,
0.08877805486284289,-0.016145778233783478,
0.08882793017456359,0.024538934432686718,
0.0888778054862843,-0.017133612500526474,
0.08892768079800499,-0.01265792572040983,
0.08897755610972569,-0.004995414811253903,
0.08902743142144638,-0.024028978288961375,
0.08907730673316708,-0.0016775873261861106,
0.08912718204488779,0.006174060988598852,
0.08917705735660848,-0.007587444541514318,
0.08922693266832918,-0.013518632164071535,
0.08927680798004987,-0.02229568656825211,
0.08932668329177057,-0.0041491696210098575,
0.08937655860349127,0.00037680757959081095,
0.08942643391521198,-0.021350614470491292,
0.08947630922693267,-0.0258772608857279,
0.08952618453865337,-0.006527916986060601,
0.08957605985037406,-0.01803657270705596,
0.08962593516209476,0.0013338425490217656,
0.08967581047381547,-0.0072474055201141915,
0.08972568578553616,-0.015555865788446515,
0.08977556109725686,-0.0020913613127121877,
0.08982543640897755,-0.004825906565411848,
0.08987531172069825,-0.015399538862773059,
0.08992518703241895,0.011075848027749344,
0.08997506234413966,-0.01911133790518626,
0.09002493765586035,-0.0033060856225639607,
0.09007481296758105,-0.0070211280921308105,
0.09012468827930174,-0.008201307686534175,
0.09017456359102244,-0.015942667533623556,
0.09022443890274315,0.01650359516021649,
0.09027431421446384,0.002509013556456356,
0.09032418952618454,0.001250821369430364,
0.09037406483790524,-0.013170284050309115,
0.09042394014962593,-0.01832318887922647,
0.09047381546134663,-0.01045298190881172,
0.09052369077306734,-0.015033189267802363,
0.09057356608478803,-0.01187751713127284,
0.09062344139650873,0.0012857946499591627,
0.09067331670822942,-0.014392715327119762,
0.09072319201995012,-0.0246892442813358,
0.09077306733167083,-0.0025371880019815496,
0.09082294264339152,0.0023683791228959906,
0.09087281795511222,-0.04835310663235445,
0.09092269326683292,-0.03336660260536737,
0.09097256857855361,0.006089638406842816,
0.09102244389027432,-0.007442645516106563,
0.09107231920199502,-0.01724319898576502,
0.09112219451371571,-0.019589748394828996,
0.09117206982543641,-0.015348591731193715,
0.0912219451371571,-0.007335451118851068,
0.0912718204488778,-0.015723215475420545,
0.09132169576059851,-0.01669355542435118,
0.0913715710723192,0.01320829767112793,
0.0914214463840399,0.004700813463028796,
0.0914713216957606,-0.031278461514853646,
0.09152119700748129,-0.029851314823588354,
0.091571072319202,0.03329798673508585,
0.0916209476309227,-0.023006416164778058,
0.09167082294264339,-0.03574746653787518,
0.09172069825436409,0.0004071775697264343,
0.09177057356608478,-0.003626354610415541,
0.09182044887780548,-0.016885279068280742,
0.09187032418952619,0.00757406712779847,
0.09192019950124689,-0.00890202784283831,
0.09197007481296758,-0.01644147716680885,
0.09201995012468828,-0.03279072966679365,
0.09206982543640897,-0.017943452369309387,
0.09211970074812968,-0.02005613891557155,
0.09216957605985038,-0.029717794165077208,
0.09221945137157107,-0.007442224320190011,
0.09226932668329177,-0.0020245803934807616,
0.09231920199501246,-0.007093147864406855,
0.09236907730673316,-0.005487570235453383,
0.09241895261845387,-0.03858368527483223,
0.09246882793017457,-0.012831779081423767,
0.09251870324189526,-0.0030306677972703894,
0.09256857855361596,-0.0033386566298308808,
0.09261845386533665,-0.026633108483907868,
0.09266832917705736,-0.004414363553291534,
0.09271820448877806,-0.0449421800106151,
0.09276807980049875,0.01581373180056039,
0.09281795511221945,-0.02417801911987185,
0.09286783042394015,0.004768549858569209,
0.09291770573566084,-0.010927014036731226,
0.09296758104738155,0.0018957331314066652,
0.09301745635910225,-0.0138953782557093,
0.09306733167082294,0.0011270653527134383,
0.09311720698254364,-0.016291356983317202,
0.09316708229426433,-0.01251985392423098,
0.09321695760598504,-0.020309077834669384,
0.09326683291770574,-0.023535244655350257,
0.09331670822942643,0.022251346134941247,
0.09336658354114713,-0.005232459428844007,
0.09341645885286783,0.013720490013408141,
0.09346633416458854,-0.029810687319045417,
0.09351620947630923,0.003985005026468022,
0.09356608478802993,0.002634327471851664,
0.09361596009975062,-0.023812956460110776,
0.09366583541147132,-0.013468059090000498,
0.09371571072319201,0.012641522414280595,
0.09376558603491272,-0.010235217092349293,
0.09381546134663342,-0.009352870096783494,
0.09386533665835411,-0.019124506744063362,
0.09391521197007481,-0.015373590102350947,
0.0939650872817955,-0.026589771096036163,
0.09401496259351622,-0.026966819794146377,
0.09406483790523691,0.003096464311392105,
0.09411471321695761,0.0002451010713637909,
0.0941645885286783,-0.026084948823132847,
0.094214463840399,-0.003442758978729531,
0.0942643391521197,-0.020162169904882413,
0.0943142144638404,-0.011960501354690772,
0.0943640897755611,-0.01004548813672859,
0.0944139650872818,0.020733067164551353,
0.09446384039900249,-0.01084178758308502,
0.09451371571072319,-0.006671503772250016,
0.0945635910224439,0.0040005129479601265,
0.09461346633416459,-0.011718824476390527,
0.09466334164588529,-0.00113129221805124,
0.09471321695760598,0.004524520940306981,
0.09476309226932668,-0.01668965348378821,
0.09481296758104737,-0.013367606013826897,
0.09486284289276808,-0.007808234750414172,
0.09491271820448878,-0.0030540431943681464,
0.09496259351620948,-0.006350270598164201,
0.09501246882793017,0.02162600411518393,
0.09506234413965087,-0.017641022921468325,
0.09511221945137158,-0.001364720191250701,
0.09516209476309227,-0.010717351457718068,
0.09521197007481297,-0.0012409607106040057,
0.09526184538653366,-0.006811251914942141,
0.09531172069825436,-0.015469686025017474,
0.09536159600997507,0.010914941658288161,
0.09541147132169576,-0.010446429721527154,
0.09546134663341646,0.022474052815395117,
0.09551122194513716,-0.0012956959379719479,
0.09556109725685785,-0.009178425220487466,
0.09561097256857855,0.03000007134464819,
0.09566084788029926,-0.01239840535440612,
0.09571072319201995,0.04386779073246102,
0.09576059850374065,-0.0015686701323147701,
0.09581047381546134,0.020282245563408446,
0.09586034912718204,0.011359892345241093,
0.09591022443890275,0.026975776953622046,
0.09596009975062345,0.021650330950886497,
0.09600997506234414,0.014463178986981502,
0.09605985037406484,0.019981800773036393,
0.09610972568578553,0.0016660102763153993,
0.09615960099750623,0.029158591091070513,
0.09620947630922694,-0.005525692123995756,
0.09625935162094763,0.00221282056808252,
0.09630922693266833,-0.008484193094868912,
0.09635910224438902,0.003176173677355387,
0.09640897755610972,0.009572562372920304,
0.09645885286783043,0.02737472147758051,
0.09650872817955113,-0.00924111247923348,
0.09655860349127182,0.013404693670726744,
0.09660847880299252,0.02169185735536954,
0.09665835411471321,-0.003591923922278799,
0.09670822942643391,-0.0021442432143323562,
0.09675810473815462,0.02194991613955432,
0.09680798004987531,0.02463929444359588,
0.09685785536159601,0.003958278737765753,
0.0969077306733167,0.0029525980384691557,
0.0969576059850374,0.03642995996765816,
0.09700748129675811,-0.006563941618431917,
0.0970573566084788,-0.008999070543031947,
0.0971072319201995,0.030106255551112415,
0.0971571072319202,0.035341903334152096,
0.0972069825436409,0.03299860621211338,
0.09725685785536159,0.03924154718636993,
0.0973067331670823,-0.011666143373354854,
0.097356608478803,0.01174507040588779,
0.09740648379052369,0.032787690775918824,
0.09745635910224439,0.0046663616761301405,
0.09750623441396508,-3.664810374830532e-05,
0.09755610972568579,0.005588612294582877,
0.09760598503740649,0.004614001054928183,
0.09765586034912718,0.008520963837667808,
0.09770573566084788,0.026268661292429427,
0.09775561097256857,0.03517309232504137,
0.09780548628428928,0.02170509244736795,
0.09785536159600998,0.022287406008841285,
0.09790523690773068,0.006482181542267382,
0.09795511221945137,-0.01260111523504575,
0.09800498753117207,0.025279147043813316,
0.09805486284289276,0.047364542475695305,
0.09810473815461347,0.027603205637017833,
0.09815461346633417,0.03167780714294469,
0.09820448877805486,0.023037579994387387,
0.09825436408977556,-0.0022502276985939124,
0.09830423940149625,0.008206657725303079,
0.09835411471321696,0.010960796802692446,
0.09840399002493766,0.01637768656019351,
0.09845386533665836,0.028340368892552877,
0.09850374064837905,-0.011072044109068382,
0.09855361596009975,0.0015265390560327725,
0.09860349127182044,0.03574271861806574,
0.09865336658354115,0.028013125254216124,
0.09870324189526185,-0.008247842229666104,
0.09875311720698254,0.04234074201070391,
0.09880299251870324,0.030594811875738696,
0.09885286783042393,0.04857017581903156,
0.09890274314214464,0.002714071310299184,
0.09895261845386534,0.02923861779956255,
0.09900249376558604,0.007153822583923062,
0.09905236907730673,0.01843532042253699,
0.09910224438902743,0.03719222154837584,
0.09915211970074812,0.003461266391122996,
0.09920199501246883,0.014197625094447119,
0.09925187032418953,0.04559801714115434,
0.09930174563591022,0.012517798734113126,
0.09935162094763092,0.028254450658379192,
0.09940149625935162,0.01685795672584171,
0.09945137157107233,0.04113739638673838,
0.09950124688279302,0.033197093908061526,
0.09955112219451372,0.031819552067087,
0.09960099750623441,0.019610750043400592,
0.09965087281795511,0.018769488993070925,
0.0997007481296758,0.03194425502594104,
0.09975062344139651,0.030028349400339018,
0.09980049875311721,0.05063163776551841,
0.0998503740648379,0.013080611887517581,
0.0999002493765586,0.018134936780660468,
0.0999501246882793,0.013636141899740939,
0.1,0.03790847398058092,
0.1000498753117207,0.00645724673324986,
0.1000997506234414,0.04242729978213255,
0.10014962593516209,0.03194895608599306,
0.10019950124688279,0.022226435628342686,
0.1002493765586035,0.021306073917615624,
0.1002992518703242,0.025759247303485097,
0.10034912718204489,0.04232727115722963,
0.10039900249376559,0.06453806393033783,
0.10044887780548628,0.037588938143774814,
0.10049875311720698,0.01819789398671926,
0.10054862842892769,0.033866048055535294,
0.10059850374064838,0.0431365770886832,
0.10064837905236908,0.026392482087528816,
0.10069825436408977,0.016137663550762286,
0.10074812967581047,0.017055986721841734,
0.10079800498753118,0.026806283563293985,
0.10084788029925187,0.0329802596475567,
0.10089775561097257,0.03193373452862062,
0.10094763092269327,0.02508118035408942,
0.10099750623441396,0.03207300354126853,
0.10104738154613466,0.02510627991217665,
0.10109725685785537,0.055995480684283394,
0.10114713216957606,0.028655454342002628,
0.10119700748129676,0.03601359964426259,
0.10124688279301745,0.0017613376373806153,
0.10129675810473815,0.01340378627449829,
0.10134663341645886,0.003131519671765663,
0.10139650872817955,0.025603762133811065,
0.10144638403990025,0.02491432707726717,
0.10149625935162095,0.033013251927872724,
0.10154613466334164,0.0017485888095166331,
0.10159600997506234,0.01634551980536195,
0.10164588528678305,0.010728576687895907,
0.10169576059850374,0.006806415544337082,
0.10174563591022444,0.038978272222501595,
0.10179551122194513,0.05450958518824732,
0.10184538653366583,0.05361478314705755,
0.10189526184538654,0.046909023298831704,
0.10194513715710724,0.03543953423025752,
0.10199501246882793,0.053772880638789045,
0.10204488778054863,0.029350617329860187,
0.10209476309226932,0.032597296743148145,
0.10214463840399003,0.027904151169297425,
0.10219451371571073,0.046148542089126374,
0.10224438902743142,0.002028133359643223,
0.10229426433915212,0.052056616852694367,
0.10234413965087281,0.005036434289166763,
0.10239401496259351,0.047311365186604774,
0.10244389027431422,0.04610787477923475,
0.10249376558603492,0.02181624926861892,
0.10254364089775561,0.021481392145131218,
0.10259351620947631,0.01379189008543919,
0.102643391521197,0.036635428157908254,
0.10269326683291771,0.03783191609096534,
0.10274314214463841,0.016108519091747188,
0.1027930174563591,0.0384048136459651,
0.1028428927680798,0.02910886161058729,
0.1028927680798005,0.020061674756891364,
0.10294264339152119,0.004535633957078157,
0.1029925187032419,0.0141546275883165,
0.1030423940149626,0.01643729204755672,
0.10309226932668329,0.0243651087713381,
0.10314214463840399,0.02410254940892553,
0.10319201995012468,0.03810278519660554,
0.10324189526184539,0.027885094376375562,
0.10329177057356609,0.04667126714094115,
0.10334164588528678,0.03069022124467805,
0.10339152119700748,0.05950050715304916,
0.10344139650872818,0.05349187774001332,
0.10349127182044887,0.020101690902964077,
0.10354114713216958,0.06742262543265455,
0.10359102244389028,0.03525827085221811,
0.10364089775561097,0.018690077365975843,
0.10369077306733167,0.07431201433735585,
0.10374064837905236,0.009768730987097615,
0.10379052369077307,0.015190705203782,
0.10384039900249377,0.022257440613640878,
0.10389027431421446,0.04714221665411483,
0.10394014962593516,0.01500749115415032,
0.10399002493765586,0.023269579916165687,
0.10403990024937655,0.03782354009940681,
0.10408977556109726,-0.006822577994403431,
0.10413965087281796,0.025984053212041783,
0.10418952618453865,0.0067990480392341145,
0.10423940149625935,0.022795890569514494,
0.10428927680798004,0.013105693992921257,
0.10433915211970075,0.03356747918548078,
0.10438902743142145,0.04546148578944349,
0.10443890274314215,0.04803230491746758,
0.10448877805486284,0.036883866326841847,
0.10453865336658354,0.04299773567773782,
0.10458852867830425,0.0013463195500541779,
0.10463840399002494,0.024800392823006227,
0.10468827930174564,0.004255321540119315,
0.10473815461346633,0.01693830241832634,
0.10478802992518703,0.008972236307674152,
0.10483790523690772,0.021126326046959496,
0.10488778054862843,0.006427382990751627,
0.10493765586034913,0.032267716619230224,
0.10498753117206983,0.0320603490326573,
0.10503740648379052,0.003923822058799535,
0.10508728179551122,0.02377652670791982,
0.10513715710723193,0.019289834934638702,
0.10518703241895262,0.01995848305240355,
0.10523690773067332,0.030568029902283307,
0.10528678304239401,0.02770476769741939,
0.10533665835411471,0.037370209928597964,
0.1053865336658354,0.006250569417431178,
0.10543640897755611,0.009009658857318288,
0.10548628428927681,0.027551266897341574,
0.1055361596009975,0.021319702280491536,
0.1055860349127182,0.00564983566057965,
0.1056359102244389,0.00651169159213593,
0.10568578553615961,0.013393429844759573,
0.1057356608478803,0.0026301077624251885,
0.105785536159601,0.012061595501282328,
0.1058354114713217,-0.01373158286174294,
0.10588528678304239,0.028866664708697642,
0.10593516209476309,0.01454920801210173,
0.1059850374064838,0.019108375797178362,
0.10603491271820449,-0.00569545044538405,
0.10608478802992519,-0.01598982830687609,
0.10613466334164588,0.010917341519819735,
0.10618453865336658,-0.010254896402032275,
0.10623441396508729,0.011386916616228319,
0.10628428927680798,-0.0021898253885518984,
0.10633416458852868,0.025380443325222143,
0.10638403990024937,0.018011256887751105,
0.10643391521197007,-0.024742687105069137,
0.10648379052369077,0.03342139356174791,
0.10653366583541148,0.009018395359637856,
0.10658354114713217,0.007249928371763928,
0.10663341645885287,-0.015683898768047284,
0.10668329177057356,0.01720121233593584,
0.10673316708229426,-0.005554031252608979,
0.10678304239401497,0.0030478056124315154,
0.10683291770573566,-0.02106950070771027,
0.10688279301745636,0.03861758739727236,
0.10693266832917706,-0.009217212537488624,
0.10698254364089775,-0.003091468400996512,
0.10703241895261846,0.008503621683930051,
0.10708229426433916,-0.013451450415198985,
0.10713216957605985,-0.019394161963597695,
0.10718204488778055,-0.003737753865864229,
0.10723192019950124,-0.015018207159113891,
0.10728179551122194,0.015966987387121625,
0.10733167082294265,-0.009635759224483249,
0.10738154613466334,0.022860694586401713,
0.10743142144638404,-0.007361882875776593,
0.10748129675810474,0.023180010921546243,
0.10753117206982543,0.004921915699379298,
0.10758104738154614,-0.003101612129970284,
0.10763092269326684,0.005359041326497739,
0.10768079800498753,-0.0005209073617063497,
0.10773067331670823,-0.0007072969272847055,
0.10778054862842892,-0.017056260444755562,
0.10783042394014962,0.008526670954479995,
0.10788029925187033,-0.0008813166863149379,
0.10793017456359102,-0.011336253542268837,
0.10798004987531172,-0.01653591242962596,
0.10802992518703242,-0.018372669540424887,
0.10807980049875311,-0.002508176135560987,
0.10812967581047382,-0.0016598043256714247,
0.10817955112219452,0.004291023176411854,
0.10822942643391521,-0.02728405132403549,
0.10827930174563591,0.00982379615803989,
0.1083291770573566,0.01423905814215518,
0.1083790523690773,0.02511444256124494,
0.10842892768079801,-0.014461221999741697,
0.1084788029925187,0.004415143626892184,
0.1085286783042394,-0.02767685997533513,
0.1085785536159601,0.02152511824255169,
0.10862842892768079,-0.00723051946048152,
0.1086783042394015,-0.004783952808346445,
0.1087281795511222,-0.004932514107843155,
0.1087780548628429,-0.01751038254563629,
0.10882793017456359,-0.025647363598780126,
0.10887780548628428,-0.023757694890982093,
0.108927680798005,-0.039062338156908134,
0.10897755610972569,-0.0001511233724641875,
0.10902743142144639,-0.009471623128990721,
0.10907730673316708,-0.001118001115040704,
0.10912718204488778,0.01383668374574011,
0.10917705735660847,-0.01723183535643837,
0.10922693266832918,-0.027669176301990672,
0.10927680798004988,0.01931648434230525,
0.10932668329177057,-0.012487652678988503,
0.10937655860349127,-0.035371825543993124,
0.10942643391521197,-0.016993059477917107,
0.10947630922693267,-0.03010908743370548,
0.10952618453865337,0.004257548160895415,
0.10957605985037407,0.011451424307696433,
0.10962593516209476,-0.012911552427861215,
0.10967581047381546,-0.005495891278859557,
0.10972568578553615,-0.03565203168286411,
0.10977556109725686,-0.00870101674473136,
0.10982543640897756,-0.0447261090161372,
0.10987531172069825,-0.03156023267852449,
0.10992518703241895,-0.003837169732383118,
0.10997506234413965,-0.0007269241401241123,
0.11002493765586036,0.00173575532952157,
0.11007481296758105,0.016726133339620523,
0.11012468827930175,-0.012514629636430387,
0.11017456359102244,-0.02877383294032921,
0.11022443890274314,-0.029393161716302137,
0.11027431421446383,0.0015783071085869078,
0.11032418952618454,-0.01847092790876554,
0.11037406483790524,-0.009971603274560231,
0.11042394014962593,0.00031630611765011765,
0.11047381546134663,0.0146154069239008,
0.11052369077306733,-0.001292634861128801,
0.11057356608478804,-0.026326755400449875,
0.11062344139650873,-0.03180980099869058,
0.11067331670822943,-0.004786508857484116,
0.11072319201995012,-0.0019247784393583607,
0.11077306733167082,-0.031084136113016046,
0.11082294264339151,-0.026297281612625123,
0.11087281795511222,-0.005415242679392395,
0.11092269326683292,-0.002685992619309985,
0.11097256857855362,-0.018510621645085913,
0.11102244389027431,-0.030930751293508717,
0.111072319201995,-0.00806032702364658,
0.11112219451371572,-0.0025747929565958904,
0.11117206982543641,-0.03299280574497084,
0.11122194513715711,-0.011381035293211793,
0.1112718204488778,0.004208957482085706,
0.1113216957605985,0.02086372551685981,
0.11137157107231921,-0.014190507889441767,
0.1114214463840399,-0.010851418229645577,
0.1114713216957606,-0.009373210320998854,
0.1115211970074813,-0.027134244816194274,
0.11157107231920199,-0.007591354978197871,
0.11162094763092269,-0.0202706251192354,
0.1116708229426434,-0.010365325625503963,
0.11172069825436409,-0.001516100134959732,
0.11177057356608479,-0.009398605902124383,
0.11182044887780548,-0.019628482621040465,
0.11187032418952618,-0.04482589153711544,
0.11192019950124689,-0.0042696271717791575,
0.11197007481296758,-0.016937482393894112,
0.11201995012468828,-0.016294903083210743,
0.11206982543640898,-0.02049091872197275,
0.11211970074812967,-0.015874351449028705,
0.11216957605985037,-0.008714148155700369,
0.11221945137157108,-0.006613511173019691,
0.11226932668329177,0.002335088819763853,
0.11231920199501247,0.0038577073782629506,
0.11236907730673316,-0.009269832518416128,
0.11241895261845386,-0.011271367425003207,
0.11246882793017457,-0.009651783876680337,
0.11251870324189527,-0.01075470652769715,
0.11256857855361596,0.015164377463644697,
0.11261845386533666,-0.029023650897524848,
0.11266832917705735,-0.0037862492075277383,
0.11271820448877805,-0.026219705600807233,
0.11276807980049876,0.003732957860041533,
0.11281795511221945,-0.0023485367547811872,
0.11286783042394015,0.011856721917418689,
0.11291770573566084,0.0072235499978159905,
0.11296758104738154,0.009621118117684728,
0.11301745635910225,-0.029912778240246265,
0.11306733167082295,-0.006961301206006111,
0.11311720698254364,-0.015684321396496944,
0.11316708229426434,0.0021052472794535256,
0.11321695760598503,-0.015886989600723836,
0.11326683291770574,0.025697406241285616,
0.11331670822942644,0.013339899802064683,
0.11336658354114713,0.0011475867996076049,
0.11341645885286783,0.022697901436442566,
0.11346633416458853,-0.013781193725402374,
0.11351620947630922,-0.01965795944259323,
0.11356608478802993,0.0023832803897685575,
0.11361596009975063,-0.00277554016489347,
0.11366583541147132,-0.022912281688481084,
0.11371571072319202,0.00564813249258115,
0.11376558603491271,-0.007818174039224347,
0.11381546134663342,-0.010910342945898405,
0.11386533665835412,-0.006018237982984918,
0.11391521197007481,-0.004046053566186225,
0.11396508728179551,-0.04379610904985805,
0.1140149625935162,-0.016321005841379355,
0.1140648379052369,-0.0033007585099334275,
0.11411471321695761,0.00869678515905276,
0.1141645885286783,0.002039901839306122,
0.114214463840399,0.002623337186362663,
0.1142643391521197,-0.007895339897271833,
0.1143142144638404,-0.01260940299952523,
0.1143640897755611,-0.016874002489678252,
0.1144139650872818,-0.017852930133176736,
0.1144638403990025,0.002779307896084198,
0.11451371571072319,-0.0260855848741594,
0.11456359102244389,-0.024689025042494164,
0.11461346633416458,0.01600385392662145,
0.11466334164588529,0.031372177896816414,
0.11471321695760599,-0.010623849020541533,
0.11476309226932668,0.02454775212258524,
0.11481296758104738,0.0030860056210563758,
0.11486284289276807,-0.026111893827122847,
0.11491271820448878,-0.004723264252240156,
0.11496259351620948,-0.03790225900506697,
0.11501246882793018,0.006648034133800083,
0.11506234413965087,0.0032272163720016385,
0.11511221945137157,0.040693740552126684,
0.11516209476309226,0.011187985702018928,
0.11521197007481297,-0.025758313751538198,
0.11526184538653367,-0.002635386406841902,
0.11531172069825436,0.009521336546995676,
0.11536159600997506,-0.004510340018955403,
0.11541147132169575,-0.012646666832656887,
0.11546134663341646,-0.013862877308122582,
0.11551122194513716,-0.0011767208534012932,
0.11556109725685786,-0.003336921571013382,
0.11561097256857855,-0.0030282547158014496,
0.11566084788029925,-0.001262601096033606,
0.11571072319201996,-0.01532816602002608,
0.11576059850374065,0.009363948348022535,
0.11581047381546135,0.0073579390384923395,
0.11586034912718204,0.0195136176719595,
0.11591022443890274,-0.005214155915521325,
0.11596009975062344,0.022817466908672736,
0.11600997506234415,0.002139850443512706,
0.11605985037406484,0.029435089040266565,
0.11610972568578554,-0.005863285621920733,
0.11615960099750623,0.0026152336259676673,
0.11620947630922693,0.02426521341335086,
0.11625935162094764,0.022466314836210227,
0.11630922693266833,0.01742869705950152,
0.11635910224438903,0.01784964233367393,
0.11640897755610972,-0.002996516822039219,
0.11645885286783042,-0.013234315768042827,
0.11650872817955112,0.014687084198601997,
0.11655860349127183,0.011213399558046892,
0.11660847880299252,0.011697835179616423,
0.11665835411471322,-0.0034772433851628284,
0.11670822942643391,0.00511886313219897,
0.11675810473815461,0.02695722843367021,
0.11680798004987532,0.02405777291601177,
0.11685785536159601,0.04647893920642998,
0.11690773067331671,0.00990891895981133,
0.1169576059850374,0.0098053681679631,
0.1170074812967581,-7.92113664720498e-05,
0.1170573566084788,0.0010169574806330305,
0.1171072319201995,0.007705084859386112,
0.1171571072319202,0.028530027060792197,
0.1172069825436409,0.008687113621799053,
0.1172568578553616,-0.004415729082822622,
0.11730673316708229,0.009459172396863502,
0.117356608478803,0.01481701714930466,
0.1174064837905237,0.010476792892395496,
0.11745635910224439,0.0339180095260386,
0.11750623441396509,-0.005265653761266292,
0.11755610972568578,0.009559129257607577,
0.11760598503740648,-0.007273629755819952,
0.11765586034912719,-0.0034257234777910414,
0.11770573566084788,0.001481465132811213,
0.11775561097256858,0.008192008178585406,
0.11780548628428927,0.03189941511837353,
0.11785536159600997,0.02528803973903475,
0.11790523690773068,0.03765445835174773,
0.11795511221945137,0.013525996472412774,
0.11800498753117207,0.02174005830736664,
0.11805486284289277,0.03684599193187538,
0.11810473815461346,-0.0056751788881370425,
0.11815461346633417,0.008509521885339679,
0.11820448877805487,0.01047193455260339,
0.11825436408977556,0.002958889799348257,
0.11830423940149626,0.021918464225452218,
0.11835411471321695,0.02005307794828287,
0.11840399002493765,0.020267333230873916,
0.11845386533665836,0.050134914541134,
0.11850374064837906,0.03340314302801776,
0.11855361596009975,0.01999667125243003,
0.11860349127182045,0.03928168420172321,
0.11865336658354114,0.007817606814535043,
0.11870324189526185,0.021440759720086897,
0.11875311720698255,0.028676153802658203,
0.11880299251870324,0.00857644841382507,
0.11885286783042394,0.0004234306896577812,
0.11890274314214463,0.015243506118863227,
0.11895261845386533,0.020001711554696204,
0.11900249376558604,0.04222069143574855,
0.11905236907730674,0.027433449556642793,
0.11910224438902743,0.029566611868237044,
0.11915211970074813,0.025879072524347364,
0.11920199501246882,0.028739273969206676,
0.11925187032418953,0.05925933118713057,
0.11930174563591023,0.04402121816466671,
0.11935162094763092,0.04240752646246201,
0.11940149625935162,0.03042022081475121,
0.11945137157107232,0.01987486260010812,
0.11950124688279301,0.037570420518729684,
0.11955112219451372,0.03019314813242705,
0.11960099750623442,-0.009944167375564028,
0.11965087281795511,0.028203498383546948,
0.11970074812967581,0.05257736019953181,
0.1197506234413965,0.036189256683266946,
0.11980049875311721,0.008729389238303228,
0.11985037406483791,0.02702999426221777,
0.1199002493765586,-0.004455591352253246,
0.1199501246882793,0.02129939769730611,
0.12,-0.0025287582459118385,
0.1200498753117207,0.029349377796311162,
0.1200997506234414,0.02945447457716817,
0.1201496259351621,0.017749175809598696,
0.12019950124688279,0.008656624870244153,
0.12024937655860349,0.03620170236483329,
0.12029925187032418,-0.018528032900673473,
0.1203491271820449,0.050578299957269326,
0.12039900249376559,0.005380663066464023,
0.12044887780548628,0.043239397331260206,
0.12049875311720698,0.031054225372566784,
0.12054862842892768,0.032444449631743165,
0.12059850374064839,0.030805480939584556,
0.12064837905236908,0.0469465621229606,
0.12069825436408978,0.02604371113405296,
0.12074812967581047,-0.0055632668562495685,
0.12079800498753117,0.04967389047035628,
0.12084788029925186,0.042385664056765054,
0.12089775561097257,0.07616537367957933,
0.12094763092269327,0.025023322664934566,
0.12099750623441397,0.02353632608719886,
0.12104738154613466,0.042711768638327,
0.12109725685785536,0.038135166350006744,
0.12114713216957607,0.03549045129754686,
0.12119700748129676,0.011116473073189307,
0.12124688279301746,0.024278024705917722,
0.12129675810473815,0.013825544249926151,
0.12134663341645885,0.059330237378994705,
0.12139650872817954,0.013858599817408201,
0.12144638403990025,0.025377319980276387,
0.12149625935162095,0.010243632352806065,
0.12154613466334165,0.03687274314588053,
0.12159600997506234,0.04128073909870186,
0.12164588528678304,0.019082652971094155,
0.12169576059850375,0.02134437256354165,
0.12174563591022444,0.02305814281800233,
0.12179551122194514,0.03579471051804718,
0.12184538653366583,0.03261957642106924,
0.12189526184538653,0.03462696716599837,
0.12194513715710723,0.01684000401317011,
0.12199501246882793,0.04677734484692955,
0.12204488778054863,0.032995133234878786,
0.12209476309226933,0.03502576102107544,
0.12214463840399002,-0.010628072921354932,
0.12219451371571072,0.005175912292697236,
0.12224438902743143,0.051963326394029855,
0.12229426433915212,0.05451998147541513,
0.12234413965087282,0.03511772752306138,
0.12239401496259351,0.048443123560260676,
0.12244389027431421,0.05653939606198016,
0.12249376558603492,-0.014067556578910373,
0.12254364089775562,0.05233960556259573,
0.12259351620947631,0.04009839559128777,
0.122643391521197,0.032866326942085106,
0.1226932668329177,0.027358795433579716,
0.1227431421446384,0.02567703363560178,
0.12279301745635911,0.02181685528287671,
0.1228428927680798,0.02695251551339103,
0.1228927680798005,0.02850089466651583,
0.1229426433915212,0.02451599090889544,
0.12299251870324189,0.0240347837443294,
0.1230423940149626,0.03345006822119318,
0.1230922693266833,0.007615995203876454,
0.12314214463840399,0.05246719477770367,
0.12319201995012469,0.012260229442568325,
0.12324189526184538,0.019347080997791706,
0.12329177057356608,0.021128334402350568,
0.12334164588528679,0.049852178724696286,
0.12339152119700748,0.020000310880001947,
0.12344139650872818,-0.00513516514971862,
0.12349127182044888,0.0005375118803551369,
0.12354114713216957,0.039602254153060026,
0.12359102244389028,0.020380618763920187,
0.12364089775561098,0.015743166474876585,
0.12369077306733167,0.046837083506249336,
0.12374064837905237,0.014819120576280645,
0.12379052369077306,0.023193888261482956,
0.12384039900249376,0.024905636159434995,
0.12389027431421447,0.03292368082023141,
0.12394014962593516,0.01653288007051692,
0.12399002493765586,0.025965980483670863,
0.12403990024937656,0.007742363362022888,
0.12408977556109725,0.019277839495705024,
0.12413965087281796,0.031040778872643907,
0.12418952618453866,0.017952467015534403,
0.12423940149625935,0.01850958417077283,
0.12428927680798005,0.016375140494141828,
0.12433915211970074,0.014525896393446439,
0.12438902743142144,0.03581272749117412,
0.12443890274314215,0.04489124626568536,
0.12448877805486284,0.04829291015945195,
0.12453865336658354,0.022856165049670585,
0.12458852867830424,0.012789789407293008,
0.12463840399002493,0.03761618462759793,
0.12468827930174564,0.0603384655225249,
0.12473815461346634,0.030401058219916087,
0.12478802992518703,0.0085800853877906,
0.12483790523690773,-0.0026901064491232675,
0.12488778054862842,-0.007868747402476721,
0.12493765586034913,0.00594955102171294,
0.12498753117206983,0.007180220417638697,
0.12503740648379053,0.04174377291415281,
0.12508728179551123,0.0078350980724561,
0.12513715710723192,0.01700655932334127,
0.12518703241895263,0.031176627764231645,
0.1252369077306733,0.02447529316046844,
0.12528678304239402,0.006917319474417998,
0.1253366583541147,0.022147447706078103,
0.1253865336658354,0.0006717281338478494,
0.12543640897755612,0.048261049640353736,
0.1254862842892768,0.020810989928172027,
0.1255361596009975,0.030708320374538484,
0.1255860349127182,0.013250405559805438,
0.1256359102244389,0.01887565267719703,
0.1256857855361596,0.013777310420264184,
0.1257356608478803,0.03150841351019909,
0.125785536159601,0.026822727556866058,
0.12583541147132168,0.026454079283181414,
0.1258852867830424,0.016574790185047802,
0.1259351620947631,0.028928852629735644,
0.12598503740648379,0.00941984046715185,
0.1260349127182045,0.011624351814059207,
0.12608478802992518,0.011357815429927684,
0.1261346633416459,0.012273281613810763,
0.1261845386533666,0.018805208590972344,
0.12623441396508728,0.003091101776804641,
0.126284289276808,-0.022254561700204557,
0.12633416458852867,-0.0071803302752757436,
0.12638403990024938,0.005573746553296446,
0.1264339152119701,0.04181932018295406,
0.12648379052369077,0.032623747934756336,
0.12653366583541148,-0.015791900599704513,
0.12658354114713216,0.014276819035757513,
0.12663341645885287,-0.0033207457949492817,
0.12668329177057355,-0.008921022053375235,
0.12673316708229426,0.00937421728698428,
0.12678304239401497,0.0008368467548346336,
0.12683291770573565,0.005293374806000222,
0.12688279301745636,0.026812502054340714,
0.12693266832917705,-0.014427349761007235,
0.12698254364089775,0.008170781798916907,
0.12703241895261846,0.02492801077069362,
0.12708229426433915,-0.007596778871240024,
0.12713216957605986,0.01172976969571917,
0.12718204488778054,0.014092929569503155,
0.12723192019950125,-0.037299949254504854,
0.12728179551122196,-0.0058349202370351246,
0.12733167082294264,0.008416675164270734,
0.12738154613466335,-0.009551181648261475,
0.12743142144638403,0.01684608503295319,
0.12748129675810474,0.02185121202757702,
0.12753117206982545,-0.013131040522336511,
0.12758104738154613,0.003806244100124485,
0.12763092269326684,0.011365252680286115,
0.12768079800498752,-0.008974184863931726,
0.12773067331670823,-0.006820578582930847,
0.1277805486284289,-0.001481760386372245,
0.12783042394014962,-0.02957112860256722,
0.12788029925187033,0.008623907170524124,
0.12793017456359101,0.00016015841005338503,
0.12798004987531172,0.002997861453060132,
0.1280299251870324,0.00545537449933528,
0.12807980049875312,0.0030827633208704037,
0.12812967581047383,-0.016136548523935375,
0.1281795511221945,0.00938984271857728,
0.12822942643391522,0.011883049741437581,
0.1282793017456359,-0.015056448727781415,
0.1283291770573566,0.005317313223930732,
0.12837905236907732,-0.02414565012812781,
0.128428927680798,0.027560145070822335,
0.1284788029925187,-0.011860559409783004,
0.1285286783042394,-0.0061535157007110534,
0.1285785536159601,0.004321325237844278,
0.1286284289276808,-0.008056580734357086,
0.1286783042394015,-0.011512672489021897,
0.1287281795511222,-0.0030373904011055885,
0.12877805486284288,-0.001124335466062856,
0.1288279301745636,-0.013717118959247671,
0.1288778054862843,-0.00010063651358944038,
0.12892768079800498,0.0032046450070744477,
0.1289775561097257,-0.016526958367762957,
0.12902743142144638,-0.028918054478640716,
0.12907730673316709,-0.011150064922363562,
0.12912718204488777,-0.02713932212070936,
0.12917705735660848,-0.0008850722673881574,
0.1292269326683292,-0.011984228188936661,
0.12927680798004987,0.006158722767991252,
0.12932668329177058,-0.02179083951698304,
0.12937655860349126,-0.00480109467452651,
0.12942643391521197,-0.018453048181291485,
0.12947630922693268,0.0003152877425173775,
0.12952618453865336,-0.005478993233037686,
0.12957605985037407,0.012525266571504576,
0.12962593516209475,-0.028138588460654,
0.12967581047381546,-0.014159332000344029,
0.12972568578553617,-0.030178163442216216,
0.12977556109725685,-0.013214578915789643,
0.12982543640897756,-0.02466633212189751,
0.12987531172069824,-0.009722460974565457,
0.12992518703241895,-0.0159313629611725,
0.12997506234413966,0.002936729559513941,
0.13002493765586035,-0.008467418011089045,
0.13007481296758105,-0.029996578082132547,
0.13012468827930174,-0.04069221883695024,
0.13017456359102245,-0.034315438518980196,
0.13022443890274316,-0.001652517400003396,
0.13027431421446384,-0.014938314570282097,
0.13032418952618455,-0.015057098025867688,
0.13037406483790523,-0.004361767873090877,
0.13042394014962594,-0.024864787443497557,
0.13047381546134662,-0.008458735998677885,
0.13052369077306733,0.011668587551775305,
0.13057356608478804,-0.02596938998647693,
0.13062344139650872,-0.01733706021611274,
0.13067331670822943,-0.038958657658483414,
0.1307231920199501,-0.004873631284650347,
0.13077306733167082,-0.033824848549569034,
0.13082294264339153,-0.01880741909075766,
0.13087281795511221,-0.011377655258227707,
0.13092269326683292,-0.01416052507390345,
0.1309725685785536,0.0012220637882162776,
0.13102244389027431,0.004214830479136185,
0.13107231920199502,-0.01029011174774668,
0.1311221945137157,0.009533284593973524,
0.13117206982543642,-0.01843317701688138,
0.1312219451371571,-0.008350564984566197,
0.1312718204488778,-0.002255525763747707,
0.13132169576059852,-0.022698386370035788,
0.1313715710723192,-0.0218213765195992,
0.1314214463840399,-0.02296605981448075,
0.1314713216957606,-0.017199159236841614,
0.1315211970074813,-0.00825485264593645,
0.13157107231920198,-0.010796319645196532,
0.1316209476309227,-0.015909905292038066,
0.1316708229426434,-0.010739809897249045,
0.13172069825436408,0.0091761574778835,
0.1317705735660848,-0.014373192226618713,
0.13182044887780547,-0.017612204494158575,
0.13187032418952618,-0.008861096660630074,
0.1319201995012469,-0.008975350071648378,
0.13197007481296757,0.009551721993893604,
0.13201995012468828,-0.0031528041816166206,
0.13206982543640897,-0.02101089278014135,
0.13211970074812968,-0.007027455040640677,
0.13216957605985039,-0.028191817904999434,
0.13221945137157107,0.003222427821018614,
0.13226932668329178,0.01603099845055827,
0.13231920199501246,-0.01579351277453723,
0.13236907730673317,0.002116269206551632,
0.13241895261845388,-0.016553887267356723,
0.13246882793017456,0.0032411814312354476,
0.13251870324189527,-0.024304583469750812,
0.13256857855361595,-0.023955056545542527,
0.13261845386533666,-0.004958212966448598,
0.13266832917705737,-0.01469353293387465,
0.13271820448877805,0.007535914870844972,
0.13276807980049876,0.0013429192942979677,
0.13281795511221944,-0.007772537093639075,
0.13286783042394015,-0.030736658211224958,
0.13291770573566083,0.005265112678673632,
0.13296758104738154,0.00394389045947173,
0.13301745635910225,-0.001259746324179428,
0.13306733167082294,-0.007907345523623831,
0.13311720698254365,-0.006690154114332967,
0.13316708229426433,0.0027531115194303745,
0.13321695760598504,0.006488413487364047,
0.13326683291770575,-0.0064381748811208695,
0.13331670822942643,-0.022802015810338885,
0.13336658354114714,-0.002042968517714139,
0.13341645885286782,0.00419572641114299,
0.13346633416458853,-0.03207242160524229,
0.13351620947630924,0.002972423770087062,
0.13356608478802992,0.020629599799365853,
0.13361596009975063,-0.0017245658008978072,
0.1336658354114713,-0.02549870083924034,
0.13371571072319202,-0.00787495115146089,
0.13376558603491273,0.01184920123335925,
0.1338154613466334,-0.008712109623304858,
0.13386533665835412,-0.006448215122108855,
0.1339152119700748,0.008257546142319666,
0.13396508728179551,0.013685355241803346,
0.1340149625935162,-0.0004408465289927801,
0.1340648379052369,-0.010092493167893676,
0.13411471321695762,0.003967409525991228,
0.1341645885286783,-0.011143810799325275,
0.134214463840399,0.028940271637411558,
0.1342643391521197,-0.021741235216605842,
0.1343142144638404,0.01662720041059311,
0.1343640897755611,0.017145981221302353,
0.1344139650872818,0.002457430740896774,
0.1344638403990025,0.0033834283496686716,
0.13451371571072318,-0.02918236228707767,
0.1345635910224439,0.015627842982712456,
0.1346134663341646,-0.009975811603881217,
0.13466334164588528,-0.010908648882287618,
0.134713216957606,-0.0009030474928084383,
0.13476309226932667,-0.010034657100024307,
0.13481296758104738,0.00939045029813586,
0.1348628428927681,-0.011343794511537036,
0.13491271820448877,-0.009364858258995195,
0.13496259351620948,-0.007722902023667558,
0.13501246882793017,-0.014952473756757628,
0.13506234413965088,0.022556558421668215,
0.13511221945137158,0.004991705844058108,
0.13516209476309227,-0.0009347881752363413,
0.13521197007481298,0.010456509605775516,
0.13526184538653366,0.0193744956751732,
0.13531172069825437,0.032463542132647086,
0.13536159600997505,-0.00532432221748431,
0.13541147132169576,0.005853434808244292,
0.13546134663341647,-0.015333110018494325,
0.13551122194513715,0.017098645700085853,
0.13556109725685786,0.0058556444253580735,
0.13561097256857854,0.03175108825746013,
0.13566084788029925,-0.003394959413947873,
0.13571072319201996,0.022104071927900728,
0.13576059850374064,0.023994978664575152,
0.13581047381546135,-0.01620376861445446,
0.13586034912718203,0.016430105948792212,
0.13591022443890274,-0.00660121189633531,
0.13596009975062345,0.02491621800212049,
0.13600997506234414,0.014499233068009931,
0.13605985037406484,0.005294644369292933,
0.13610972568578553,-0.013098481041911468,
0.13615960099750624,0.007336023188310132,
0.13620947630922695,0.01566544653992629,
0.13625935162094763,-0.002000521099228934,
0.13630922693266834,0.0013425828946245812,
0.13635910224438902,0.010868388093337114,
0.13640897755610973,0.020179847772006893,
0.1364588528678304,0.021503338919043716,
0.13650872817955112,0.0024168386552006187,
0.13655860349127183,0.020162755549175064,
0.1366084788029925,0.001027009962406858,
0.13665835411471322,0.02626897835361198,
0.1367082294264339,-0.007165423813882254,
0.1367581047381546,0.0017884550412043381,
0.13680798004987532,0.00286793756600995,
0.136857855361596,0.016078871071719895,
0.1369077306733167,-0.005278701306404135,
0.1369576059850374,0.03705934358908545,
0.1370074812967581,0.04416053768813423,
0.13705735660847881,0.02835219343290419,
0.1371072319201995,0.02674027086480161,
0.1371571072319202,0.006427880856745878,
0.1372069825436409,0.02467675196801504,
0.1372568578553616,0.011534729931363268,
0.1373067331670823,-0.0021683177650704613,
0.137356608478803,-0.007818978349975463,
0.1374064837905237,0.04387107137275946,
0.13745635910224438,-0.000690039169516439,
0.1375062344139651,0.04585972424611352,
0.1375561097256858,0.05227354934489578,
0.13760598503740648,-0.014657885231997403,
0.1376558603491272,-0.009594066173916622,
0.13770573566084787,0.013318427820088196,
0.13775561097256858,0.021211732344657445,
0.13780548628428926,0.028432205392892693,
0.13785536159600997,0.006344354119294975,
0.13790523690773068,0.030685349270560127,
0.13795511221945136,0.023155741021596742,
0.13800498753117207,0.034639220388235,
0.13805486284289276,0.026626011468874455,
0.13810473815461347,0.01691670296997165,
0.13815461346633418,0.04008731156453667,
0.13820448877805486,0.000821320144435287,
0.13825436408977557,0.02208370764043049,
0.13830423940149625,0.0018968874145871041,
0.13835411471321696,0.01709710001674418,
0.13840399002493767,0.011122644582015208,
0.13845386533665835,-0.0036515716079504983,
0.13850374064837906,0.046194640152253594,
0.13855361596009974,0.003154682548521231,
0.13860349127182045,0.02807310688294409,
0.13865336658354116,-0.0010629491540889817,
0.13870324189526184,0.015653705121246475,
0.13875311720698255,0.014308060460759747,
0.13880299251870323,0.009198557971599412,
0.13885286783042394,0.04108809024131076,
0.13890274314214462,0.005009908649856662,
0.13895261845386533,0.024030806483113797,
0.13900249376558604,0.03347973550941104,
0.13905236907730673,0.018959757004231505,
0.13910224438902744,0.02751411246613514,
0.13915211970074812,0.024131563612279923,
0.13920199501246883,0.034395156199058974,
0.13925187032418954,0.028730081999475365,
0.13930174563591022,0.04222373132891438,
0.13935162094763093,0.018855647370726446,
0.1394014962593516,0.031505864118583964,
0.13945137157107232,0.035858959054428534,
0.13950124688279303,0.005674824481162754,
0.1395511221945137,0.0510700398301471,
0.13960099750623442,0.019094213871682475,
0.1396508728179551,0.030025491671782673,
0.1397007481296758,0.03437052894312686,
0.13975062344139652,0.038003508421931405,
0.1398004987531172,0.013528347345268376,
0.1398503740648379,0.052640284446799135,
0.1399002493765586,0.015864602347782676,
0.1399501246882793,0.03890200237168639,
0.14,0.03213688110134714,
0.1400498753117207,0.03907992845439435,
0.1400997506234414,0.025563803178449224,
0.1401496259351621,0.047381529917396095,
0.1401995012468828,0.03834451172109124,
0.14024937655860348,0.020907017218693313,
0.1402992518703242,0.029422868298376703,
0.1403491271820449,0.013728736779842925,
0.14039900249376558,0.04438576888662943,
0.1404488778054863,0.025657787962858704,
0.14049875311720697,0.03251950216671561,
0.14054862842892768,0.03643537771211528,
0.1405985037406484,0.023395582170938574,
0.14064837905236907,0.02888256070240054,
0.14069825436408978,0.061223390152660456,
0.14074812967581046,0.03411397056239627,
0.14079800498753117,0.00978369817364851,
0.14084788029925188,0.030948864127600107,
0.14089775561097256,0.04458760167907686,
0.14094763092269327,0.03313582938979494,
0.14099750623441396,0.032088041092052544,
0.14104738154613466,0.026325776908245623,
0.14109725685785537,0.04237588238762114,
0.14114713216957606,0.04000243173401329,
0.14119700748129677,0.006247265079984937,
0.14124688279301745,0.036427156802925006,
0.14129675810473816,0.003664855278661481,
0.14134663341645887,0.024299060543476636,
0.14139650872817955,0.021339850222809473,
