time,amplitude,label
0.0,-0.02199596591333337,
4.987531172069826e-05,0.03789648301546053,
9.975062344139652e-05,0.02462441561210836,
0.00014962593516209475,0.0018276345332048916,
0.00019950124688279303,0.016489641991821423,
0.00024937655860349125,0.03282514264098618,
0.0002992518703241895,0.04093882099480736,
0.00034912718204488776,0.014875127219702971,
0.00039900249376558606,0.010708714702603742,
0.0004488778054862843,0.033137857220200344,
0.0004987531172069825,0.04419784109526043,
0.0005486284289276808,-0.0005109221808814735,
0.000598503740648379,0.015283553558943477,
0.0006483790523690773,0.025853121841665532,
0.0006982543640897755,0.006754100582270606,
0.0007481296758104738,0.034944273136478576,
0.0007980049875311721,0.028102895125387106,
0.0008478802992518703,0.02209476805123971,
0.0008977556109725686,-0.015977278099662418,
0.0009476309226932668,0.002877234330690785,
0.000997506234413965,-0.007369828038677122,
0.0010473815461346633,-0.012186985735644553,
0.0010972568578553616,0.05086409599854487,
0.00114713216957606,0.0233564362691994,
0.001197007481296758,0.022598312991143944,
0.0012468827930174563,0.02989360984354489,
0.0012967581047381546,-0.0031935537913692098,
0.001346633416458853,0.016201216854961727,
0.001396508728179551,-0.0015845909542141837,
0.0014463840399002493,0.025822125279526466,
0.0014962593516209476,0.006943134597267766,
0.001546134663341646,0.02918512566519013,
0.0015960099750623442,-0.0036376921529511445,
0.0016458852867830423,0.0018508439629368895,
0.0016957605985037406,0.02694650268923389,
0.001745635910224439,0.019130001494308782,
0.0017955112219451373,0.018160339248544755,
0.0018453865336658353,0.028206705784185222,
0.0018952618453865336,0.05010350452544903,
0.001945137157107232,-0.008105832115966678,
0.00199501246882793,0.014729041375372119,
0.0020448877805486283,0.02284421243628245,
0.0020947630922693266,0.006198856461305475,
0.002144638403990025,-0.0341217292501059,
0.0021945137157107233,0.013227881180560671,
0.0022443890274314216,0.015775261836330157,
0.00229426433915212,0.008750369458778764,
0.0023441396508728177,0.0067371543859454115,
0.002394014962593516,-0.004669371604927896,
0.0024438902743142144,0.04932424348546183,
0.0024937655860349127,-0.00521096846649244,
0.002543640897755611,0.021366700899298645,
0.0025935162094763093,-0.007718176280312662,
0.0026433915211970076,0.0006979252752799935,
0.002693266832917706,0.026635904058149442,
0.002743142144638404,0.027323378883641343,
0.002793017456359102,0.018985049412205142,
0.0028428927680798004,-0.011060500927440218,
0.0028927680798004987,-0.00960505779176425,
0.002942643391521197,-0.005985460827034281,
0.0029925187032418953,0.01286191165612463,
0.0030423940149625936,0.03127780937741914,
0.003092269326683292,-0.012148217883352437,
0.00314214463840399,-0.0011715526804985336,
0.0031920199501246885,-0.01453366759218714,
0.0032418952618453864,-0.008510107010032776,
0.0032917705735660847,-0.0017748537152864393,
0.003341645885286783,-0.005146153469484729,
0.0033915211970074813,-0.0007456557582078867,
0.0034413965087281796,0.025882113729423204,
0.003491271820448878,0.00039281854606704105,
0.003541147132169576,-0.013182229869758939,
0.0035910224438902745,-0.02874442330453246,
0.0036408977556109724,0.009335767449167318,
0.0036907730673316707,0.023839820171218485,
0.003740648379052369,0.01193403497909679,
0.0037905236907730673,-0.02912356484187504,
0.0038403990024937656,0.0009311919855287589,
0.003890274314214464,-0.0018740879537113508,
0.003940149625935162,-0.00618892078533332,
0.00399002493765586,-0.01435548332121729,
0.004039900249376558,-0.023469411360019055,
0.004089775561097257,-0.0012226491717359975,
0.004139650872817955,-0.01666446460619274,
0.004189526184538653,-0.026714150909144342,
0.004239401496259352,0.020077110963438963,
0.00428927680798005,0.0008274069136266476,
0.004339152119700748,0.010872366037052123,
0.0043890274314214465,-0.023163959013084753,
0.004438902743142145,0.0013387995607973702,
0.004488778054862843,-0.001362793846778221,
0.004538653366583541,-0.005865275937139241,
0.00458852867830424,-0.029207551388986515,
0.004638403990024938,0.011148573708620551,
0.0046882793017456355,0.011273018947736082,
0.004738154613466334,-0.00666272502148007,
0.004788029925187032,-0.0018755532253231337,
0.00483790523690773,0.020769773084022697,
0.004887780548628429,-0.013436386940318762,
0.004937655860349127,-0.0075329648844759175,
0.004987531172069825,-0.02346513356549821,
0.005037406483790524,-0.002382741643533543,
0.005087281795511222,-0.031747320839497696,
0.00513715710723192,-0.011117446657716332,
0.0051870324189526185,-0.004160640935141896,
0.005236907730673317,0.009894973682183544,
0.005286783042394015,0.011731596100730938,
0.0053366583541147134,0.003234298301252384,
0.005386533665835412,-0.014361484814382392,
0.00543640897755611,-0.01512354294843879,
0.005486284289276808,-0.013705630045209825,
0.005536159600997507,-0.007491252233714874,
0.005586034912718204,-0.013365507753180413,
0.005635910224438902,-0.009899174137360463,
0.005685785536159601,-0.015617140175534484,
0.005735660847880299,-0.006017880800772845,
0.005785536159600997,0.00435093700051653,
0.005835411471321696,-0.01690006794889175,
0.005885286783042394,0.005887791761126563,
0.005935162094763092,-0.03476614296803873,
0.0059850374064837905,-0.0005929065441768831,
0.006034912718204489,-0.03499414645859306,
0.006084788029925187,-0.02160951495953887,
0.0061346633416458855,0.0009002760239458923,
0.006184538653366584,-0.016141448891895536,
0.006234413965087282,-0.0036399203062253555,
0.00628428927680798,-0.018032764848964326,
0.006334164588528679,-0.025502248096799626,
0.006384039900249377,-0.0010790302014752739,
0.006433915211970074,-0.004853302004511305,
0.006483790523690773,-0.01313250777199514,
0.006533665835411471,-0.02097074221701984,
0.006583541147132169,0.0031254991193302387,
0.006633416458852868,0.011310569349737395,
0.006683291770573566,-0.01960187695293884,
0.006733167082294264,-0.03244311241233177,
0.0067830423940149626,-0.0044478803406144424,
0.006832917705735661,-0.027799145502941405,
0.006882793017456359,-0.034978160650086854,
0.0069326683291770575,-0.0047094196942249495,
0.006982543640897756,-0.01221625910271184,
0.007032418952618454,-0.019288989757000406,
0.007082294264339152,-0.020418598639242586,
0.007132169576059851,-0.009447741163741707,
0.007182044887780549,0.009976540252510036,
0.007231920199501247,-0.027224515604744797,
0.007281795511221945,-0.020649406154498295,
0.007331670822942643,-0.008631176689924145,
0.007381546134663341,-0.019111353772547347,
0.00743142144638404,-0.01862183324299747,
0.007481296758104738,-0.008719612438846133,
0.007531172069825436,-0.03240525135417001,
0.007581047381546135,-0.04203998740414741,
0.007630922693266833,-0.013118043561805882,
0.007680798004987531,-0.014818211393004118,
0.0077306733167082295,-0.036339737646310474,
0.007780548628428928,-0.06446684659566398,
0.007830423940149626,0.0040100518894603775,
0.007880299251870324,-0.009352213936546973,
0.007930174563591023,-0.00789372087274277,
0.00798004987531172,-0.03505092259280854,
0.00802992518703242,-0.0009364491112067441,
0.008079800498753117,-0.011636731802597262,
0.008129675810473816,-0.028875238397059442,
0.008179551122194513,-0.01799044559827403,
0.008229426433915213,-0.006357276955436147,
0.00827930174563591,-0.031655401912003715,
0.00832917705735661,-0.0187770083839802,
0.008379052369077307,0.004345833468911618,
0.008428927680798006,-0.012643130947565091,
0.008478802992518703,-0.03817883673686139,
0.0085286783042394,0.011850513887642519,
0.0085785536159601,0.004364511361189854,
0.008628428927680797,-0.0008723882385420177,
0.008678304239401496,-0.02134227800000984,
0.008728179551122194,-0.021952598600106992,
0.008778054862842893,-0.030724708738393114,
0.00882793017456359,-0.03115783969368054,
0.00887780548628429,-0.015641689253167407,
0.008927680798004987,-0.013095138072286154,
0.008977556109725686,-0.004439904616674614,
0.009027431421446384,-0.01664376836203263,
0.009077306733167083,-0.01438680961591464,
0.00912718204488778,-0.019568399698437797,
0.00917705735660848,-0.026696037683821026,
0.009226932668329177,-0.01573616973313233,
0.009276807980049876,-0.02711728360344001,
0.009326683291770574,0.004008131575378743,
0.009376558603491271,-0.03958745191095059,
0.00942643391521197,-0.03122446159603109,
0.009476309226932668,-0.021479681086999883,
0.009526184538653367,-0.0026608193319223594,
0.009576059850374064,-0.011818232445640323,
0.009625935162094763,-0.04177674432264776,
0.00967581047381546,0.004579226248653326,
0.00972568578553616,-0.0327197790368816,
0.009775561097256857,0.0027909135847837135,
0.009825436408977557,-0.03588752262604361,
0.009875311720698254,-0.012498342531162084,
0.009925187032418953,-0.03614938450770837,
0.00997506234413965,-0.032562483025871024,
0.01002493765586035,-0.015334616414153044,
0.010074812967581047,-0.023711725083915215,
0.010124688279301746,-0.011825309982745197,
0.010174563591022444,-0.011808415508026608,
0.010224438902743141,-0.004988942477851728,
0.01027431421446384,-0.017596436712297568,
0.010324189526184538,-0.02489717086554755,
0.010374064837905237,-0.030405710067494447,
0.010423940149625935,0.0012640555465684364,
0.010473815461346634,-0.020433986716811074,
0.010523690773067331,-0.014343959616062095,
0.01057356608478803,-0.03445435868501823,
0.010623441396508728,-0.003163040649182932,
0.010673316708229427,-0.008440132375098844,
0.010723192019950124,-0.014011027563656473,
0.010773067331670824,-0.014106059126911721,
0.010822942643391521,-0.014102493304991916,
0.01087281795511222,-0.02885643147994022,
0.010922693266832918,0.015702638638661892,
0.010972568578553617,-0.008812522089402176,
0.011022443890274314,-0.041228735980346966,
0.011072319201995013,0.004353232075533646,
0.01112219451371571,-0.013541302781605369,
0.011172069825436408,0.017372653585787462,
0.011221945137157107,-0.007232776383756342,
0.011271820448877805,-0.0006677469339153325,
0.011321695760598504,-0.015546768218968728,
0.011371571072319201,2.227403637941258e-06,
0.0114214463840399,-0.03452990074707264,
0.011471321695760598,-0.005499521956392627,
0.011521197007481297,-0.021870706290108736,
0.011571072319201995,-0.01639127429260191,
0.011620947630922694,-0.010682197221857904,
0.011670822942643391,-0.04103030054093519,
0.01172069825436409,-0.010603666250696779,
0.011770573566084788,-0.022417568836782812,
0.011820448877805487,-0.029137392740954234,
0.011870324189526184,0.010991910424603887,
0.011920199501246884,-0.020170958041878656,
0.011970074812967581,-0.014908674592415032,
0.012019950124688279,-0.006748959457405505,
0.012069825436408978,-0.020473635838029407,
0.012119700748129675,-0.009645088764171972,
0.012169576059850374,-0.013177422574470707,
0.012219451371571072,-0.010648898617162164,
0.012269326683291771,0.004824407139860591,
0.012319201995012468,-0.0032464581161073995,
0.012369077306733168,-0.009544998880108053,
0.012418952618453865,-0.017581641663474527,
0.012468827930174564,-0.030215078944194868,
0.012518703241895262,-0.041380893461336214,
0.01256857855361596,0.01649850510527522,
0.012618453865336658,0.018140237625741407,
0.012668329177057357,-0.021774381014631278,
0.012718204488778055,-0.013822443664516994,
0.012768079800498754,-0.024150447440167,
0.012817955112219451,0.008660784301761554,
0.012867830423940149,-0.0055308372160550075,
0.012917705735660848,0.01964674523215094,
0.012967581047381545,-0.008385561239406477,
0.013017456359102245,0.005545598819163573,
0.013067331670822942,-0.020536652470319983,
0.013117206982543641,-0.021216052221607468,
0.013167082294264339,0.01758144072885904,
0.013216957605985038,-0.04126497278614745,
0.013266832917705735,-0.0011593822689300256,
0.013316708229426434,-0.007299571433368953,
0.013366583541147132,0.00932347484922788,
0.013416458852867831,-0.003989706083223337,
0.013466334164588529,0.016197453838553897,
0.013516209476309228,0.026196593938101677,
0.013566084788029925,-0.011732871515161235,
0.013615960099750624,-0.017816266000533636,
0.013665835411471322,-0.003993341403493984,
0.01371571072319202,0.02815651198719629,
0.013765586034912718,-0.020462951309937683,
0.013815461346633416,-0.025924579220470673,
0.013865336658354115,0.012374696861608834,
0.013915211970074812,0.026206804496432916,
0.013965087281795512,-0.0005002609844201979,
0.014014962593516209,-0.011379053141219307,
0.014064837905236908,0.00880219403055601,
0.014114713216957606,0.027141497949533272,
0.014164588528678305,0.023303851247980407,
0.014214463840399002,0.0140869555949291,
0.014264339152119701,0.0005811057950629228,
0.014314214463840399,-0.021212362875898033,
0.014364089775561098,0.005298074173243591,
0.014413965087281795,-0.007013177253482213,
0.014463840399002495,0.016386371885932845,
0.014513715710723192,0.006876134701184342,
0.01456359102244389,0.020434444819978234,
0.014613466334164589,0.008007767666783865,
0.014663341645885286,0.028118691408223453,
0.014713216957605985,0.019131174190493788,
0.014763092269326683,0.009918005696150544,
0.014812967581047382,0.00724836337922965,
0.01486284289276808,0.005488427411079455,
0.014912718204488778,0.024865260029703986,
0.014962593516209476,0.008780008232712173,
0.015012468827930175,0.017494619067035463,
0.015062344139650873,0.018730605643844364,
0.015112219451371572,0.02922081114816418,
0.01516209476309227,0.011957480957247378,
0.015211970074812968,0.003591394317218181,
0.015261845386533666,0.010978107358526085,
0.015311720698254365,-0.010869542902993398,
0.015361596009975062,0.006003701122183909,
0.01541147132169576,-0.011551783874954908,
0.015461346633416459,0.029401781359381565,
0.015511221945137156,0.029292697691836893,
0.015561097256857856,-0.00798338076087,
0.015610972568578553,0.0315456596037281,
0.015660847880299252,0.020864962542456844,
0.01571072319201995,0.03326310253649173,
0.015760598503740647,-0.01424313172314964,
0.015810473815461346,-0.005191902180314664,
0.015860349127182045,-0.001911513426908715,
0.015910224438902745,0.03849061862563137,
0.01596009975062344,0.011037001334211363,
0.01600997506234414,0.022477750466351806,
0.01605985037406484,0.04441705876410917,
0.016109725685785538,0.012668140848787889,
0.016159600997506234,0.01740029680402249,
0.016209476309226933,0.022488957017874844,
0.016259351620947632,0.009130943936210202,
0.016309226932668328,0.05007396064804727,
0.016359102244389027,0.004465912218804699,
0.016408977556109726,0.010810651458880658,
0.016458852867830425,-0.016925519923210258,
0.01650872817955112,-0.0030229092558718765,
0.01655860349127182,0.003616363775626961,
0.01660847880299252,0.01659101725429784,
0.01665835411471322,0.040549641031615485,
0.016708229426433914,0.000471217449112684,
0.016758104738154613,0.0003396643596999989,
0.016807980049875312,0.008927031487522545,
0.01685785536159601,0.012743941220915388,
0.016907730673316707,0.033815090948551924,
0.016957605985037406,0.015802105230502458,
0.017007481296758106,0.031533201893465604,
0.0170573566084788,0.01574101498955515,
0.0171072319201995,0.010009744901297574,
0.0171571072319202,0.023894643477003773,
0.0172069825436409,0.03529248712595472,
0.017256857855361595,0.0011794947242580005,
0.017306733167082294,-0.0038996109985796196,
0.017356608478802993,-0.012121634445887236,
0.017406483790523692,0.022983673933275016,
0.017456359102244388,0.01760429275337508,
0.017506234413965087,0.00815013915358655,
0.017556109725685786,0.004822749951919064,
0.017605985037406485,0.013440227390363437,
0.01765586034912718,0.023775840972651,
0.01770573566084788,0.03339883696686705,
0.01775561097256858,0.028883258715926067,
0.01780548628428928,0.02909226408240094,
0.017855361596009974,0.027891236609334492,
0.017905236907730673,0.030954742163037948,
0.017955112219451373,0.015324696974085335,
0.018004987531172068,0.011999293168980128,
0.018054862842892767,0.01530598996883518,
0.018104738154613467,0.043381421916496465,
0.018154613466334166,0.016141422883401393,
0.01820448877805486,0.004858606138369269,
0.01825436408977556,-0.018650455584145634,
0.01830423940149626,0.01649528107353299,
0.01835411471321696,0.017685757092470604,
0.018403990024937655,-0.005537388801736962,
0.018453865336658354,-0.009527723590270282,
0.018503740648379053,0.03269826956632124,
0.018553615960099752,0.025641263407943482,
0.018603491271820448,0.04764417420312346,
0.018653366583541147,0.017547641512101694,
0.018703241895261846,0.012189269371992422,
0.018753117206982542,0.024890946621732267,
0.01880299251870324,0.031003620639808507,
0.01885286783042394,0.024358035799042107,
0.01890274314214464,0.01860162995302324,
0.018952618453865335,0.040321790902338873,
0.019002493765586034,0.055919682435286,
0.019052369077306733,0.027032445871404947,
0.019102244389027433,-0.008269490520035089,
0.01915211970074813,0.039344808693143676,
0.019201995012468828,0.0224381854029514,
0.019251870324189527,0.017292492702672635,
0.019301745635910226,-0.0008240564965496106,
0.01935162094763092,0.014478403898659469,
0.01940149625935162,0.029993653716723294,
0.01945137157107232,0.02117829988649851,
0.01950124688279302,0.029635678917022776,
0.019551122194513715,0.009756064139719982,
0.019600997506234414,0.026530303054242345,
0.019650872817955113,0.00441380946833796,
0.01970074812967581,0.018767666555490337,
0.019750623441396508,-0.007813073201814104,
0.019800498753117207,0.019120227204722902,
0.019850374064837906,0.012667112251061291,
0.019900249376558602,0.003177796912708492,
0.0199501246882793,0.014139929900615637,
0.02,0.018601736294091054,
0.0200498753117207,0.009422619424701647,
0.020099750623441395,0.012899418608428161,
0.020149625935162094,0.037608048742646075,
0.020199501246882794,0.025359408065854277,
0.020249376558603493,0.03294262266994164,
0.02029925187032419,0.01800127980616032,
0.020349127182044888,0.04492313163193079,
0.020399002493765587,0.023830956039358944,
0.020448877805486283,-0.0008175525178226659,
0.02049875311720698,0.032607722196782055,
0.02054862842892768,0.012702430021075226,
0.02059850374064838,0.013391446073421184,
0.020648379052369076,-0.002022278354535074,
0.020698254364089775,0.028884680586106624,
0.020748129675810474,0.02066108212615373,
0.020798004987531173,-0.008457562388005012,
0.02084788029925187,0.0013409063718125454,
0.020897755610972568,0.03469801965092441,
0.020947630922693267,0.02991261009733543,
0.020997506234413967,0.04020334737677886,
0.021047381546134662,0.0063472785389197504,
0.02109725685785536,0.041906806790720834,
0.02114713216957606,0.011758650289401599,
0.02119700748129676,0.04188414553224532,
0.021246882793017455,0.028401365005420863,
0.021296758104738155,0.027235968104127366,
0.021346633416458854,0.026686405000173507,
0.02139650872817955,0.04091589525977299,
0.02144638403990025,0.030067221457974067,
0.021496259351620948,0.02885498007215523,
0.021546134663341647,0.018263139333647205,
0.021596009975062343,0.017619922434763197,
0.021645885286783042,0.021500958931745685,
0.02169576059850374,0.010672445537294474,
0.02174563591022444,0.017767935470426863,
0.021795511221945136,0.03924995744614124,
0.021845386533665835,0.005760371118062199,
0.021895261845386534,0.003419208832986057,
0.021945137157107233,0.032281265931276934,
0.02199501246882793,0.021970742903413516,
0.02204488778054863,0.01146525663019555,
0.022094763092269327,0.026432868961636945,
0.022144638403990027,0.01460840877256427,
0.022194513715710722,0.03199827396616189,
0.02224438902743142,0.024844048940817813,
0.02229426433915212,0.029785697743069686,
0.022344139650872816,-0.0037832494353085243,
0.022394014962593516,0.010158109424226711,
0.022443890274314215,0.0038807516291088093,
0.022493765586034914,0.026386982423712582,
0.02254364089775561,-0.01862117187635974,
0.02259351620947631,0.006167715355257836,
0.022643391521197008,0.013871269876237984,
0.022693266832917707,0.021763190844052056,
0.022743142144638403,-0.003323392776073268,
0.022793017456359102,-0.008202164182769393,
0.0228428927680798,0.019643007601156472,
0.0228927680798005,0.014802761716629403,
0.022942643391521196,0.002645488289330194,
0.022992518703241895,0.004662647717067571,
0.023042394014962594,0.013857091677014845,
0.02309226932668329,0.010058192253233747,
0.02314214463840399,0.007754024670259107,
0.02319201995012469,-0.0046658035592228005,
0.023241895261845388,-0.012705920201809072,
0.023291770573566083,0.02944264594664692,
0.023341645885286783,-0.006322358605108777,
0.02339152119700748,0.04700832918060098,
0.02344139650872818,0.017382404409828474,
0.023491271820448877,0.023357416833370993,
0.023541147132169576,0.018747142417791886,
0.023591022443890275,0.02129049478936673,
0.023640897755610974,0.010809359680176288,
0.02369077306733167,-0.0018726529864551093,
0.02374064837905237,-0.01855211394710647,
0.023790523690773068,0.0170449692555962,
0.023840399002493767,-0.0020658931859921206,
0.023890274314214463,0.0003394786622184093,
0.023940149625935162,0.010508367208572025,
0.02399002493765586,0.002421526400383722,
0.024039900249376557,0.006645172129421519,
0.024089775561097256,-0.01742769731209514,
0.024139650872817955,-0.005738123874699009,
0.024189526184538655,0.004462579714355283,
0.02423940149625935,0.0028062531544336437,
0.02428927680798005,0.0017576881661833877,
0.02433915211970075,-0.01975099869166475,
0.024389027431421448,-0.0066001860726118775,
0.024438902743142144,1.803769578714756e-05,
0.024488778054862843,0.0180427429619775,
0.024538653366583542,0.0019375687676718603,
0.02458852867830424,0.009234867482374433,
0.024638403990024937,0.00474582911368157,
0.024688279301745636,-0.012547647803939441,
0.024738154613466335,-0.025555461228989072,
0.02478802992518703,-0.014966272711336083,
0.02483790523690773,-0.0024195507359749935,
0.02488778054862843,-0.023729638553114538,
0.02493765586034913,-0.010104196599073571,
0.024987531172069824,-0.009435661683838276,
0.025037406483790523,-0.006277454023014814,
0.025087281795511222,-0.028148934709865958,
0.02513715710723192,-0.03180623862508776,
0.025187032418952617,-0.023257544434943038,
0.025236907730673316,-0.008080349094436667,
0.025286783042394016,0.00536500032292349,
0.025336658354114715,0.01575700830577234,
0.02538653366583541,0.0011946680354202148,
0.02543640897755611,-0.01294310300613162,
0.02548628428927681,0.020913126888598203,
0.025536159600997508,-0.0027355169611187535,
0.025586034912718204,0.01444167527621385,
0.025635910224438903,-0.013076084010324066,
0.025685785536159602,0.00710147224616893,
0.025735660847880298,-0.0265146795068554,
0.025785536159600997,-0.016872530588353207,
0.025835411471321696,-0.0004634379406392806,
0.025885286783042395,-0.024130448528891724,
0.02593516209476309,-6.708462049820167e-05,
0.02598503740648379,-0.020079564909496195,
0.02603491271820449,-0.03435384259996925,
0.02608478802992519,-0.002208391034850073,
0.026134663341645884,-0.014882214503505317,
0.026184538653366583,-0.03336557745593269,
0.026234413965087282,-0.006385770118140559,
0.02628428927680798,-0.0014724980550212975,
0.026334164588528677,-0.03716734305112387,
0.026384039900249377,-0.013353814429767373,
0.026433915211970076,0.005820656301454575,
0.02648379052369077,-0.026646745633947408,
0.02653366583541147,-0.02027053167268445,
0.02658354114713217,-0.0077691732632973,
0.02663341645885287,-0.00478672010137225,
0.026683291770573565,-0.021418508664362873,
0.026733167082294264,0.003829205872342001,
0.026783042394014963,-0.016735501938199754,
0.026832917705735662,-0.00830712598035376,
0.026882793017456358,-0.028188419398868986,
0.026932668329177057,-0.011332387086105837,
0.026982543640897756,0.004101789399636069,
0.027032418952618455,-0.001338837366467489,
0.02708229426433915,0.007226640057939677,
0.02713216957605985,-0.020661710347868952,
0.02718204488778055,-0.012923544348850902,
0.02723192019950125,-0.039943452965923595,
0.027281795511221944,-0.01698777691605743,
0.027331670822942643,-0.02512330449075255,
0.027381546134663343,-0.009501337926694822,
0.02743142144638404,-0.051939717943814544,
0.027481296758104738,-0.019192646860788663,
0.027531172069825437,-0.021059778372845672,
0.027581047381546136,0.008282838659892319,
0.02763092269326683,-0.0011171633988470969,
0.02768079800498753,-0.00677888857605027,
0.02773067331670823,-0.018465458675607678,
0.02778054862842893,-0.006435662083642589,
0.027830423940149625,-0.033978889350676764,
0.027880299251870324,-0.023199376879220693,
0.027930174563591023,-0.01269382764044941,
0.027980049875311722,-0.021533786851454156,
0.028029925187032418,-0.028379505020315082,
0.028079800498753117,-0.028856876254057157,
0.028129675810473816,-0.011993803256088743,
0.028179551122194512,-0.020063146833880056,
0.02822942643391521,-0.007226008673025143,
0.02827930174563591,-0.0006010683742844088,
0.02832917705735661,-0.02367919798493876,
0.028379052369077305,-0.010518668931410697,
0.028428927680798004,-0.01038277326307236,
0.028478802992518704,-0.0017944081249922014,
0.028528678304239403,0.012131515637016765,
0.0285785536159601,-0.011294699416668011,
0.028628428927680798,0.014581915306160518,
0.028678304239401497,-0.031692215138399295,
0.028728179551122196,-0.033550441306541515,
0.02877805486284289,-0.017995436937813736,
0.02882793017456359,-0.012701708660960868,
0.02887780548628429,-0.01615498634965099,
0.02892768079800499,-0.016238026482746325,
0.028977556109725685,-0.04159650424234452,
0.029027431421446384,-0.025064010952731173,
0.029077306733167083,-0.001335078638525146,
0.02912718204488778,-0.014810828978371281,
0.029177057356608478,-0.0015264704304017163,
0.029226932668329177,0.0007475609485012441,
0.029276807980049877,-0.010261955137177533,
0.029326683291770572,-0.02595068692393858,
0.02937655860349127,-0.006948442734826843,
0.02942643391521197,-0.03612202673111727,
0.02947630922693267,0.009850485547162436,
0.029526184538653365,-0.018553603831491343,
0.029576059850374065,-0.026287608686796873,
0.029625935162094764,-0.02247035861008612,
0.029675810473815463,-0.01063257138543507,
0.02972568578553616,-0.009059658565590174,
0.029775561097256858,-0.026457181097561733,
0.029825436408977557,-0.0015883341709936813,
0.029875311720698253,-0.00816112958454433,
0.029925187032418952,0.0013234372351641592,
0.02997506234413965,-0.012898040745074434,
0.03002493765586035,-0.023631290990594266,
0.030074812967581046,-0.02583376167020721,
0.030124688279301745,-0.0022037830416368857,
0.030174563591022444,-0.012528907635615242,
0.030224438902743143,-0.026020702705046063,
0.03027431421446384,-0.010704038348898222,
0.03032418952618454,-0.012568015688842272,
0.030374064837905237,-0.0005442937258417352,
0.030423940149625937,0.007813051643581478,
0.030473815461346632,-0.03729943408480836,
0.03052369077306733,-0.00521646539256871,
0.03057356608478803,-0.012579724649164573,
0.03062344139650873,-0.016870396389400036,
0.030673316708229426,-0.022707972694913037,
0.030723192019950125,-0.026505003783698453,
0.030773067331670824,-0.0002974451330546111,
0.03082294264339152,-0.010137286817237622,
0.03087281795511222,-0.0032891557792892236,
0.030922693266832918,-0.008943863991424095,
0.030972568578553617,-0.033135152780226225,
0.031022443890274313,-0.01779591150661549,
0.031072319201995012,-0.0077678862519990725,
0.03112219451371571,0.007037567340962097,
0.03117206982543641,-0.02697780234889989,
0.031221945137157106,-0.022391002130506515,
0.03127182044887781,-0.016580352918701084,
0.031321695760598504,-0.012374108811319716,
0.0313715710723192,-0.02953153071340868,
0.0314214463840399,-0.008342327472064079,
0.0314713216957606,0.002911273361109818,
0.031521197007481294,-0.03508306026455933,
0.031571072319202,-0.021142022180985404,
0.03162094763092269,-0.04115214276106379,
0.03167082294264339,-0.01703239708321782,
0.03172069825436409,0.003918205850621652,
0.03177057356608479,-0.02523237929356737,
0.03182044887780549,-0.00841132418017677,
0.031870324189526185,-0.0248556905765862,
0.03192019950124688,-0.020317480799775536,
0.03197007481296758,0.005087510382352875,
0.03201995012468828,-0.016577706264797043,
0.032069825436408975,-0.0070289714068565694,
0.03211970074812968,-0.010226304234871007,
0.03216957605985037,0.0040949627470591166,
0.032219451371571076,-0.014458822100579735,
0.03226932668329177,0.008395553696059724,
0.03231920199501247,0.006503628415396629,
0.03236907730673317,0.005569413195564044,
0.032418952618453865,0.016696700222821832,
0.03246882793017456,0.010189828590360772,
0.032518703241895264,-0.03890739594892281,
0.03256857855361596,-0.017156620203833465,
0.032618453865336655,-0.0006501972022534596,
0.03266832917705736,0.004177831901135538,
0.032718204488778053,0.025184252043909425,
0.032768079800498756,-0.007648679155349957,
0.03281795511221945,-0.0007835972465778818,
0.03286783042394015,-0.013954300764964142,
0.03291770573566085,-0.025762631406432902,
0.032967581047381546,0.004289139575152642,
0.03301745635910224,-0.011797622727897732,
0.033067331670822944,0.01563181251924212,
0.03311720698254364,-0.003695880762360793,
0.03316708229426434,-0.0002775068883175231,
0.03321695760598504,0.030233634814220457,
0.033266832917705734,-0.0038230163514311392,
0.03331670822942644,0.018959396480739833,
0.03336658354114713,-0.028990922261065352,
0.03341645885286783,0.03454811224655586,
0.03346633416458853,-0.009247392313230515,
0.033516209476309226,-0.012258109624884266,
0.03356608478802992,0.009277630034616794,
0.033615960099750625,-0.01071956098935819,
0.03366583541147132,0.008505666537491472,
0.03371571072319202,-0.00010468658489134531,
0.03376558603491272,0.010110858508411784,
0.033815461346633414,-0.008395546184055318,
0.03386533665835412,-0.016951579767120757,
0.03391521197007481,-0.002730553512104047,
0.03396508728179551,0.008218115675738855,
0.03401496259351621,0.0006086795405521716,
0.03406483790523691,-0.012053056613713593,
0.0341147132169576,-0.022542033261593063,
0.034164588528678305,-0.011539664161186097,
0.034214463840399,-0.001459755368851707,
0.034264339152119704,0.012618763573673992,
0.0343142144638404,-0.0018395421933973437,
0.034364089775561095,0.0023852131492084444,
0.0344139650872818,-0.0039613369462056305,
0.03446384039900249,0.00363801409746702,
0.03451371571072319,0.004458312451108263,
0.03456359102244389,0.03015279629697922,
0.03461346633416459,-0.0032615563312719687,
0.03466334164588529,0.018480797727915003,
0.034713216957605986,0.017771339017203538,
0.03476309226932668,-0.01907780085303295,
0.034812967581047384,0.010782057374076207,
0.03486284289276808,0.02650164352680286,
0.034912718204488775,0.003476990380244781,
0.03496259351620948,0.028517899783517677,
0.035012468827930174,0.005257103055225832,
0.03506234413965087,0.029424590510025876,
0.03511221945137157,0.023780515617852674,
0.03516209476309227,0.02424560055218762,
0.03521197007481297,0.008361372232686804,
0.035261845386533666,0.006618811607256507,
0.03531172069825436,0.02175217349824901,
0.035361596009975065,-0.0149751550854639,
0.03541147132169576,0.013972154827095469,
0.035461346633416456,-0.011226243089114896,
0.03551122194513716,-0.0010170670856617346,
0.035561097256857854,-0.0041347548261316,
0.03561097256857856,-0.01220338159116413,
0.03566084788029925,0.008056769757813624,
0.03571072319201995,0.015964699593544858,
0.03576059850374065,0.003999977778454693,
0.03581047381546135,0.004872454602503131,
0.03586034912718204,0.027796391447935123,
0.035910224438902745,0.030966836301199563,
0.03596009975062344,0.014722656686920504,
0.036009975062344136,-0.02182496449379392,
0.03605985037406484,0.013096920670362487,
0.036109725685785535,-0.0027683172478108354,
0.03615960099750624,0.0348919099296217,
0.03620947630922693,0.023757471648570408,
0.03625935162094763,0.004312416822162957,
0.03630922693266833,0.020881561560595285,
0.03635910224438903,0.02549164972606715,
0.03640897755610972,0.02630623441685012,
0.036458852867830426,0.013529416512670494,
0.03650872817955112,0.01780772677664013,
0.036558603491271824,0.04577231659063383,
0.03660847880299252,0.014047541844805828,
0.036658354114713215,0.022110346912652033,
0.03670822942643392,0.009450769850624506,
0.036758104738154614,0.022497073482379924,
0.03680798004987531,-0.005029972830620094,
0.03685785536159601,0.014014344449488833,
0.03690773067331671,0.0009398207837470474,
0.0369576059850374,0.019381993913356307,
0.037007481296758106,0.015880635875163033,
0.0370573566084788,0.032644339542399446,
0.037107231920199504,0.02796286710228845,
0.0371571072319202,0.007222032275905437,
0.037206982543640896,0.018165857278419087,
0.0372568578553616,0.008418762717920377,
0.037306733167082294,0.0114737518277339,
0.03735660847880299,-0.0005827825685587804,
0.03740648379052369,0.040611131851552046,
0.03745635910224439,0.011847050827985208,
0.037506234413965084,0.05395215247757665,
0.037556109725685786,0.03801750946271225,
0.03760598503740648,0.034353921907708064,
0.037655860349127185,0.028051425611684357,
0.03770573566084788,0.018432433746993614,
0.037755610972568576,0.020544542141422036,
0.03780548628428928,0.005109730176224955,
0.037855361596009975,0.05381776370139503,
0.03790523690773067,0.03260145407136336,
0.03795511221945137,0.016724461891726685,
0.03800498753117207,0.014165614315917365,
0.03805486284289277,0.02879059131256163,
0.03810473815461347,0.013847686511618025,
0.03815461346633416,0.006604392618434561,
0.038204488778054865,0.01828669815270076,
0.03825436408977556,0.002736293849084432,
0.03830423940149626,0.03278956092324816,
0.03835411471321696,0.02678471425313336,
0.038403990024937655,0.02097945320550935,
0.03845386533665835,0.024434333892877094,
0.03850374064837905,0.05908514174143524,
0.03855361596009975,0.021643202415023422,
0.03860349127182045,0.001222556682365164,
0.03865336658354115,0.0281369888260962,
0.03870324189526184,0.014833742901531647,
0.038753117206982546,0.003638961367865099,
0.03880299251870324,0.0407820572271287,
0.03885286783042394,0.005612310816642416,
0.03890274314214464,0.014938297404428083,
0.038952618453865336,0.02547849866941216,
0.03900249376558604,0.033923913705080036,
0.039052369077306734,0.03532784698738611,
0.03910224438902743,0.004609258778130773,
0.03915211970074813,0.03811741886034371,
0.03920199501246883,0.01095598401266368,
0.039251870324189524,0.0172574099077714,
0.039301745635910226,0.04443869539840056,
0.03935162094763092,0.01681080328865595,
0.03940149625935162,0.042569239694080364,
0.03945137157107232,0.01818823796496091,
0.039501246882793016,0.04091916829629168,
0.03955112219451372,0.015161054323014903,
0.039600997506234414,0.02929729753596815,
0.03965087281795511,-0.010761041704866928,
0.03970074812967581,0.02372457543518425,
0.03975062344139651,0.04466199848288536,
0.039800498753117204,0.047877913859238536,
0.03985037406483791,0.030903462879059124,
0.0399002493765586,0.040491939933623516,
0.039950124688279305,0.0046146911670945055,
0.04,0.02666359831510018,
0.0400498753117207,0.020184627894907492,
0.0400997506234414,0.009860825909497495,
0.040149625935162095,0.016455604866948453,
0.04019950124688279,0.026450185985667028,
0.04024937655860349,0.03903121248873326,
0.04029925187032419,0.006357838529530781,
0.040349127182044885,0.05721224864629104,
0.04039900249376559,0.017059479235655477,
0.04044887780548628,0.012621125833566409,
0.040498753117206986,0.02793809403747496,
0.04054862842892768,0.02269841095983298,
0.04059850374064838,0.014976363800009695,
0.04064837905236908,0.027102765147046813,
0.040698254364089775,0.010356597182319932,
0.04074812967581047,-0.011349135766795942,
0.040798004987531174,-0.0017286279733525096,
0.04084788029925187,0.03244483950268959,
0.040897755610972565,0.022938050925394984,
0.04094763092269327,0.0009203161296668511,
0.04099750623441396,-0.020311321460434288,
0.041047381546134666,0.017256431925518536,
0.04109725685785536,0.03827166791310603,
0.04114713216957606,0.014537581633398428,
0.04119700748129676,0.0076838130525800855,
0.041246882793017456,0.0034600335570302253,
0.04129675810473815,0.005051114516547125,
0.041346633416458854,0.014624104128819421,
0.04139650872817955,0.05160816020453244,
0.04144638403990025,0.014373895181967264,
0.04149625935162095,0.010060348208365178,
0.041546134663341644,0.028456475023505977,
0.04159600997506235,0.024760437327242167,
0.04164588528678304,0.010653233570505512,
0.04169576059850374,0.026451293810280403,
0.04174563591022444,0.03127389513132525,
0.041795511221945136,0.006659564484587793,
0.04184538653366583,-0.0020422725292140106,
0.041895261845386535,0.018238895428150145,
0.04194513715710723,0.0034467744151993156,
0.04199501246882793,0.03090540046910801,
0.04204488778054863,0.011593793067089006,
0.042094763092269324,0.0021537616422839852,
0.04214463840399003,0.029685233851293437,
0.04219451371571072,0.015553086310135467,
0.04224438902743142,0.03132148024300706,
0.04229426433915212,0.0015656050628448694,
0.04234413965087282,0.015246947165163215,
0.04239401496259352,0.0021691216499879484,
0.042443890274314215,-0.0020497220942919375,
0.04249376558603491,-0.0007846466907470515,
0.042543640897755614,-0.002828600357582634,
0.04259351620947631,-0.01777354203366773,
0.042643391521197005,0.013761620578281902,
0.04269326683291771,-0.014969561263892105,
0.0427431421446384,0.0014641492256123722,
0.0427930174563591,0.04324174063599844,
0.0428428927680798,0.023008289831688643,
0.0428927680798005,0.026292092789591416,
0.0429426433915212,0.005891960820031159,
0.042992518703241896,0.022473963380185428,
0.04304239401496259,0.01934134202504418,
0.043092269326683294,0.008662809473335285,
0.04314214463840399,0.0027744475636633254,
0.043192019950124685,0.024687806466938578,
0.04324189526184539,-0.011125189757914595,
0.043291770573566084,-0.005438954608944169,
0.043341645885286786,-0.00614541211505191,
0.04339152119700748,0.032716343664055125,
0.04344139650872818,0.004574407798676664,
0.04349127182044888,0.009351239504416131,
0.043541147132169576,-0.0016250615434680211,
0.04359102244389027,0.01818385533039773,
0.043640897755610975,0.013842172919027795,
0.04369077306733167,0.01112929677293546,
0.043740648379052366,0.002081505433786423,
0.04379052369077307,0.0030173717861091244,
0.043840399002493764,-0.0008428982568595253,
0.04389027431421447,0.005896990708479835,
0.04394014962593516,-0.015499584614693588,
0.04399002493765586,0.0020253902501461106,
0.04403990024937656,-0.0020251184372566374,
0.04408977556109726,0.002896438516232761,
0.04413965087281795,0.030906041148627883,
0.044189526184538655,0.01536244982827288,
0.04423940149625935,-0.0022726669625336574,
0.04428927680798005,-0.031925786931951805,
0.04433915211970075,-0.018278251306488205,
0.044389027431421445,-0.004901916879703119,
0.04443890274314215,-0.00017197538413059866,
0.04448877805486284,-0.007235236351277487,
0.04453865336658354,0.007468119075788834,
0.04458852867830424,0.004482279305614039,
0.04463840399002494,-0.0013891792793674393,
0.04468827930174563,-0.01672040766106115,
0.044738154613466335,0.006060983145141789,
0.04478802992518703,0.003561068240802278,
0.044837905236907734,0.028172132802222,
0.04488778054862843,-0.009140845364531832,
0.044937655860349125,-0.013480077837971328,
0.04498753117206983,0.0018602404308940366,
0.045037406483790524,0.0002162539463950227,
0.04508728179551122,-0.01286847185942165,
0.04513715710723192,-0.0030905565583969107,
0.04518703241895262,-0.004933251204700224,
0.04523690773067331,-0.015457583269790175,
0.045286783042394016,-0.004780864974510196,
0.04533665835411471,-0.0072206272651149685,
0.045386533665835414,-0.0020834784222293853,
0.04543640897755611,0.013828492563870042,
0.045486284289276806,0.009249429173546583,
0.04553615960099751,-0.03115312343681139,
0.045586034912718204,0.010860656759186982,
0.0456359102244389,-0.0010923691195499942,
0.0456857855361596,0.002221336091965875,
0.0457356608478803,2.4496572784277193e-06,
0.045785536159601,-0.01739297866541965,
0.045835411471321696,0.006739140382454451,
0.04588528678304239,-0.015205553318972366,
0.045935162094763095,-0.010564994722386376,
0.04598503740648379,-0.02728097038669362,
0.046034912718204486,-0.02870229816956456,
0.04608478802992519,0.016773012444210603,
0.046134663341645885,0.000742860814700012,
0.04618453865336658,-0.004118579785389133,
0.04623441396508728,-0.045471460152683565,
0.04628428927680798,0.019580715000881224,
0.04633416458852868,-0.005409855134183795,
0.04638403990024938,-0.01930984214373871,
0.04643391521197007,-0.029809550111753826,
0.046483790523690775,-0.02865240488544848,
0.04653366583541147,-0.002883288636138827,
0.04658354114713217,-0.02241307540872681,
0.04663341645885287,-0.02237051310766551,
0.046683291770573565,0.003717486412759678,
0.04673316708229427,-0.032111908828510796,
0.04678304239401496,-0.011934912141992701,
0.04683291770573566,0.003763833119366365,
0.04688279301745636,-0.02068973492312313,
0.04693266832917706,-0.010941433240641289,
0.04698254364089775,-0.0260769126435303,
0.047032418952618456,-0.039571994175690926,
0.04708229426433915,-0.0004086313840676297,
0.04713216957605985,-0.04771945085581963,
0.04718204488778055,0.005145902093942242,
0.047231920199501246,-0.004465663125856724,
0.04728179551122195,-0.008881666748149893,
0.047331670822942644,-0.014151808196549103,
0.04738154613466334,-0.020505333877040482,
0.04743142144638404,-0.012675057412865199,
0.04748129675810474,-0.01986089828948786,
0.047531172069825434,-0.018132490796311414,
0.047581047381546136,-0.012275847754758097,
0.04763092269326683,-0.013272049361229625,
0.047680798004987535,-0.01249467158882241,
0.04773067331670823,0.009072224671575427,
0.047780548628428926,-0.0017617719540124286,
0.04783042394014963,-0.010129559736523935,
0.047880299251870324,-0.015141830346862046,
0.04793017456359102,-0.02156006400011212,
0.04798004987531172,-0.004559583143811033,
0.04802992518703242,-0.0036536059584739555,
0.048079800498753114,-0.03506960276444708,
0.04812967581047382,-0.023830771094122988,
0.04817955112219451,-0.009701767004736104,
0.048229426433915215,-0.024847851071907165,
0.04827930174563591,-0.010722309879695191,
0.048329177057356607,-0.011962758690315444,
0.04837905236907731,-0.012848174735987492,
0.048428927680798005,-0.01587787342453617,
0.0484788029925187,-0.04949059433066136,
0.0485286783042394,-0.00860975222659905,
0.0485785536159601,-0.0005403988122460006,
0.048628428927680795,-0.03143882227158519,
0.0486783042394015,-0.002135489688262729,
0.04872817955112219,-0.015362916798545723,
0.048778054862842896,-0.01824366093872296,
0.04882793017456359,-0.017757162433094893,
0.04887780548628429,-0.0291816573126439,
0.04892768079800499,0.007259811361513883,
0.048977556109725685,-0.0048918283202005475,
0.04902743142144638,-0.025710628355445693,
0.049077306733167084,-0.042547775624442626,
0.04912718204488778,0.0034769113814887634,
0.04917705735660848,-0.04880849390775778,
0.04922693266832918,-0.0004332017581563617,
0.04927680798004987,-0.0010697426489889583,
0.049326683291770576,-0.007938390504755437,
0.04937655860349127,0.003720584068390497,
0.04942643391521197,0.00127543343580961,
0.04947630922693267,-0.042395867988989915,
0.049526184538653366,-0.025193471020465794,
0.04957605985037406,0.015077723780962868,
0.049625935162094764,-0.0003250520573305389,
0.04967581047381546,-0.027346159878007793,
0.04972568578553616,-2.02740155036997e-05,
0.04977556109725686,-0.02543282121874091,
0.049825436408977554,-0.0303653944884971,
0.04987531172069826,-0.029266646473789015,
0.04992518703241895,-0.015666421426162466,
0.04997506234413965,-0.01468356715333917,
0.05002493765586035,-0.016237201514651585,
0.050074812967581046,-0.014503795068050213,
0.05012468827930175,-0.010464775836203687,
0.050174563591022445,0.002581533088979595,
0.05022443890274314,0.028912501099112878,
0.05027431421446384,0.007874048105467915,
0.05032418952618454,0.0009416595248145851,
0.050374064837905234,-0.014702611216550926,
0.05042394014962594,0.0003005676081096042,
0.05047381546134663,-0.019842315627707607,
0.05052369077306733,-0.01573666839002088,
0.05057356608478803,0.0054516267712501395,
0.05062344139650873,-0.03682022915669061,
0.05067331670822943,0.012268325733580705,
0.050723192019950125,-0.03182698028585887,
0.05077306733167082,0.005330776768606049,
0.050822942643391524,-0.026241161375394124,
0.05087281795511222,-0.012637951618132163,
0.050922693266832915,-0.0012760671079774539,
0.05097256857855362,-0.002820208501808235,
0.05102244389027431,-0.01968062437553304,
0.051072319201995016,-0.023710855679282654,
0.05112219451371571,-0.03891291440864846,
0.05117206982543641,-0.016738982635646736,
0.05122194513715711,-0.010383385146291106,
0.051271820448877806,0.0087498734423568,
0.0513216957605985,-0.005677779663507619,
0.051371571072319204,-0.02518758376489745,
0.0514214463840399,-0.021265375290222453,
0.051471321695760595,-0.0018166218388766617,
0.0515211970074813,-0.010138095142894958,
0.051571072319201994,0.000510398441264175,
0.051620947630922696,-0.009071391591279869,
0.05167082294264339,-0.011665458079414564,
0.05172069825436409,-0.00047190190252036773,
0.05177057356608479,0.015440475896322081,
0.051820448877805486,0.003858373637400783,
0.05187032418952618,0.015923523984309025,
0.051920199501246884,-0.014199368133142348,
0.05197007481296758,-0.000500868776650793,
0.052019950124688276,-0.010483986795623734,
0.05206982543640898,-0.02217373280885364,
0.052119700748129674,0.002730030178033991,
0.05216957605985038,-0.010899545563610658,
0.05221945137157107,0.004202106275948456,
0.05226932668329177,-0.006716390755474238,
0.05231920199501247,0.009363394555381835,
0.05236907730673317,0.0004160681384029431,
0.05241895261845386,-0.011672440177609848,
0.052468827930174565,0.004706372309102719,
0.05251870324189526,-0.00402497960524866,
0.05256857855361596,0.007142208468626984,
0.05261845386533666,-0.033969157567532174,
0.052668329177057355,-0.0006300977549399483,
0.05271820448877806,-0.013086187456555761,
0.05276807980049875,0.020057406657582925,
0.05281795511221945,0.007887225337997138,
0.05286783042394015,0.02059098736613022,
0.05291770573566085,-0.007011916946058869,
0.05296758104738154,0.0053912078206077305,
0.053017456359102245,-0.0073861964916694485,
0.05306733167082294,0.029646592204191143,
0.053117206982543644,-0.008610072929394023,
0.05316708229426434,-0.01976947318686787,
0.053216957605985035,0.00721672361758637,
0.05326683291770574,-0.00848790030769941,
0.053316708229426434,0.0028369347060781995,
0.05336658354114713,0.022243715939431377,
0.05341645885286783,0.031187486595153902,
0.05346633416458853,0.01064141983647514,
0.05351620947630923,0.01479669091192647,
0.053566084788029926,0.019124679259035944,
0.05361596009975062,-0.0017922116902620603,
0.053665835411471324,0.012836680538614241,
0.05371571072319202,0.03317797672222336,
0.053765586034912716,0.0028584828429908922,
0.05381546134663342,0.003217994703937341,
0.053865336658354114,0.009082078366496181,
0.05391521197007481,-0.0072366815512253145,
0.05396508728179551,0.013113553510860063,
0.05401496259351621,0.011371224130811906,
0.05406483790523691,-0.007933402634449735,
0.054114713216957606,0.01592294303125507,
0.0541645885286783,0.0193924078471076,
0.054214463840399005,0.0065486110966551814,
0.0542643391521197,-0.0138571227394741,
0.054314214463840396,-0.007213627426090684,
0.0543640897755611,-0.017189627608990815,
0.054413965087281795,-0.012974420817866511,
0.0544638403990025,0.027814351949388413,
0.05451371571072319,-0.02466435782058016,
0.05456359102244389,0.012012116195302706,
0.05461346633416459,-0.002824430025739547,
0.05466334164588529,-0.004311693460558378,
0.05471321695760598,0.024016344791164435,
0.054763092269326685,0.008372369861751397,
0.05481296758104738,0.006536206034745131,
0.05486284289276808,0.028673948715565535,
0.05491271820448878,-0.0009733921869285057,
0.054962593516209475,-0.004542680722225835,
0.05501246882793018,0.011358500627351675,
0.05506234413965087,0.002708965183611191,
0.05511221945137157,0.013195150881915429,
0.05516209476309227,0.024378222340817518,
0.05521197007481297,0.012079341532301937,
0.05526184538653366,-0.0019710948901069496,
0.055311720698254366,0.020944956435604276,
0.05536159600997506,0.037036176090187015,
0.05541147132169576,0.026056853820591343,
0.05546134663341646,-0.010951170588863482,
0.055511221945137156,0.04069749780254722,
0.05556109725685786,0.02565302782203468,
0.055610972568578554,0.040648217858093486,
0.05566084788029925,0.01949521049861124,
0.05571072319201995,-0.0031058037418085754,
0.05576059850374065,0.005920871970551297,
0.055810473815461344,0.03210073209734489,
0.055860349127182046,0.005732911015040837,
0.05591022443890274,0.021067411779147057,
0.055960099750623445,-0.006584269123836528,
0.05600997506234414,0.008555478563119988,
0.056059850374064836,0.02975573248574087,
0.05610972568578554,0.0014121227843755038,
0.056159600997506234,-0.008554471343444604,
0.05620947630922693,0.02571114417815859,
0.05625935162094763,0.019203143663545384,
0.05630922693266833,0.03954153619472065,
0.056359102244389024,0.025023429232678723,
0.05640897755610973,0.01528055750498815,
0.05645885286783042,0.024144916865317823,
0.056508728179551125,0.021738853367653587,
0.05655860349127182,0.029855538405111633,
0.056608478802992516,0.015283142412441948,
0.05665835411471322,0.03977271832888209,
0.056708229426433915,0.0003146228607026312,
0.05675810473815461,0.01372801838146129,
0.05680798004987531,0.023581851992273053,
0.05685785536159601,0.03184124490349773,
0.05690773067331671,0.03308648687154417,
0.05695760598503741,0.043799806157299184,
0.0570074812967581,0.012740195494046994,
0.057057356608478806,0.017596032581226245,
0.0571072319201995,0.0019009523287971675,
0.0571571072319202,0.015696180043108528,
0.0572069825436409,0.01984588528832749,
0.057256857855361595,0.02511724338384153,
0.05730673316708229,0.013847827009010964,
0.057356608478802994,0.050186006969241886,
0.05740648379052369,0.00959120772122685,
0.05745635910224439,0.007796188222369377,
0.05750623441396509,0.0018421281370816951,
0.05755610972568578,0.03007491922448602,
0.057605985037406486,0.009772536446227165,
0.05765586034912718,0.019814560493643118,
0.05770573566084788,0.049263088034132124,
0.05775561097256858,9.799089015131643e-05,
0.057805486284289276,0.023678755171151682,
0.05785536159600998,0.02847976832956087,
0.057905236907730674,-0.010435544992340205,
0.05795511221945137,0.045598708454238204,
0.05800498753117207,-0.0034644149317713292,
0.05805486284289277,0.039799377019363744,
0.058104738154613464,0.023079243447341212,
0.05815461346633417,0.05273546795708174,
0.05820448877805486,0.02335912671087272,
0.05825436408977556,0.0293269210978548,
0.05830423940149626,0.0330878940564323,
0.058354114713216956,0.041743590880999534,
0.05840399002493766,0.018353233567863107,
0.058453865336658355,0.027826715207555495,
0.05850374064837905,0.0634331653905601,
0.05855361596009975,0.015994006763519145,
0.05860349127182045,-0.013673298109696762,
0.058653366583541144,0.03876011575465897,
0.05870324189526185,0.016577285861491143,
0.05875311720698254,0.03765665123097505,
0.05880299251870324,0.014351440841474628,
0.05885286783042394,0.027035386363481077,
0.05890274314214464,0.04304472590536819,
0.05895261845386534,0.03907666364275863,
0.059002493765586035,0.018665528125203466,
0.05905236907730673,0.019420421737696408,
0.059102244389027433,0.02833738269058003,
0.05915211970074813,0.036005763053428876,
0.059201995012468825,0.050902827494916744,
0.05925187032418953,0.04646204497089843,
0.05930174563591022,0.035841947010389966,
0.059351620947630926,0.017228276328247652,
0.05940149625935162,0.020486464404103823,
0.05945137157107232,0.027614305505385742,
0.05950124688279302,0.036592445456303205,
0.059551122194513716,0.027061544899890877,
0.05960099750623441,0.0433157012355844,
0.059650872817955114,0.018303117393611908,
0.05970074812967581,0.027566641037072064,
0.059750623441396505,0.022743992823531775,
0.05980049875311721,0.004379286693059054,
0.059850374064837904,0.011583699207049665,
0.059900249376558606,0.0038516746948867656,
0.0599501246882793,0.022363401475884656,
0.06,0.0317087794562398,
0.0600498753117207,0.034026865578684416,
0.060099750623441396,0.02626352979512662,
0.06014962593516209,0.027689462639559608,
0.060199501246882794,0.03424094209930645,
0.06024937655860349,0.01794319301117423,
0.06029925187032419,0.04082843957297361,
0.06034912718204489,0.034732650046527175,
0.060399002493765584,0.030946854164328644,
0.06044887780548629,0.0338546691767224,
0.06049875311720698,0.029612757715919966,
0.06054862842892768,-0.00047980666730221624,
0.06059850374064838,0.022592771066862045,
0.06064837905236908,0.04077437782065094,
0.06069825436408977,0.02227765854961604,
0.060748129675810475,0.021638388507680337,
0.06079800498753117,-0.0029266075384244312,
0.06084788029925187,-0.0018159013277521917,
0.06089775561097257,-0.003476794646709455,
0.060947630922693265,-0.0008208943546115094,
0.06099750623441397,-0.007715381460026868,
0.06104738154613466,0.042232797822045455,
0.06109725685785536,0.019635912329950763,
0.06114713216957606,0.024602423022209823,
0.06119700748129676,0.024796480511617848,
0.06124688279301746,0.022631117401797907,
0.061296758104738155,0.023284277602290418,
0.06134663341645885,0.01893296746542643,
0.061396508728179554,-0.01117809699216359,
0.06144638403990025,0.0037927893404677455,
0.061496259351620945,-0.0015893808142935471,
0.06154613466334165,0.04447944018116709,
0.061596009975062344,0.01678708862263296,
0.06164588528678304,0.04470880754080894,
0.06169576059850374,-0.00688080300543711,
0.06174563591022444,-0.0008094471218228136,
0.06179551122194514,0.009708683276028612,
0.061845386533665836,-0.0001798823365406002,
0.06189526184538653,0.01463260581786535,
0.061945137157107234,0.022401101790574966,
0.06199501246882793,0.018735520735046286,
0.062044887780548626,0.032328665798998506,
0.06209476309226933,0.02341464406215413,
0.062144638403990024,0.025884906996233074,
0.06219451371571072,0.006397533449078676,
0.06224438902743142,0.019518879093485486,
0.06229426433915212,0.03307698368239461,
0.06234413965087282,0.014882670003274997,
0.062394014962593516,0.007475243966553979,
0.06244389027431421,0.0029559332467348053,
0.062493765586034915,0.02082742255904869,
0.06254364089775562,0.03453519879403093,
0.06259351620947631,0.008360904712132123,
0.06264339152119701,-0.0004067154543714955,
0.0626932668329177,0.007767250769076018,
0.0627431421446384,0.02523732617880283,
0.0627930174563591,0.01411884584611918,
0.0628428927680798,0.02017688307931405,
0.0628927680798005,0.01471134762648853,
0.0629426433915212,-0.014133459419360589,
0.06299251870324189,-0.003694991171151305,
0.06304239401496259,0.00883227271674538,
0.0630922693266833,0.011362986905883036,
0.063142144638404,0.022074324685503414,
0.06319201995012469,-0.006409460337118504,
0.06324189526184539,0.004069083709717426,
0.06329177057356608,0.0047509496013663005,
0.06334164588528678,0.009082048202147704,
0.06339152119700749,-0.02236863603647007,
0.06344139650872818,0.013272290935769916,
0.06349127182044888,-0.02199543921399471,
0.06354114713216957,0.018770207504800317,
0.06359102244389027,0.07726902914134605,
0.06364089775561098,0.01483730368395993,
0.06369077306733167,-0.004229818261151806,
0.06374064837905237,-0.009103710053821008,
0.06379052369077307,0.0034787099654915343,
0.06384039900249376,0.010541401596088464,
0.06389027431421446,-0.008076278951764139,
0.06394014962593517,-0.0012462676108019642,
0.06399002493765586,0.01097805871866447,
0.06403990024937656,-0.008096714748972823,
0.06408977556109725,0.030066225659504196,
0.06413965087281795,0.0022742907295976496,
0.06418952618453866,-0.0031560816233725275,
0.06423940149625935,4.259393861439937e-06,
0.06428927680798005,0.023675697412836733,
0.06433915211970075,-0.015774723362014208,
0.06438902743142144,0.01812398084065035,
0.06443890274314215,0.02943837703233184,
0.06448877805486285,-0.02441922719485977,
0.06453865336658354,-0.01919474519507293,
0.06458852867830424,-0.0015327537047714807,
0.06463840399002493,-0.009860919268501526,
0.06468827930174563,0.010839943063301393,
0.06473815461346634,0.008762260777811748,
0.06478802992518704,-0.013769896434960445,
0.06483790523690773,0.01556579725554521,
0.06488778054862843,0.013993925363314164,
0.06493765586034912,0.007104239960814912,
0.06498753117206983,0.017870746086820585,
0.06503740648379053,0.0070613162205018015,
0.06508728179551122,-0.0059646588394506265,
0.06513715710723192,0.017500125270112264,
0.06518703241895261,0.016691389752272124,
0.06523690773067331,0.020793391130953034,
0.06528678304239402,0.0015278691766738954,
0.06533665835411472,0.010400786774743596,
0.06538653366583541,0.011433510967306704,
0.06543640897755611,-0.0050315337021920375,
0.0654862842892768,-0.025736056002942088,
0.06553615960099751,-0.017505198972749457,
0.06558603491271821,-0.007931221490538461,
0.0656359102244389,0.009013013189349819,
0.0656857855361596,-0.008007251512478516,
0.0657356608478803,0.00021905047665484335,
0.06578553615960099,-0.031699217115969756,
0.0658354114713217,5.585025965097832e-05,
0.0658852867830424,0.0027316021010825864,
0.06593516209476309,-0.016470755606631415,
0.06598503740648379,0.0046109369970528755,
0.06603491271820448,-0.02736398057836603,
0.06608478802992519,0.016539201784833313,
0.06613466334164589,-0.02887939835348116,
0.06618453865336658,-0.003903499090367262,
0.06623441396508728,0.009024756126534047,
0.06628428927680798,-0.011768306665760075,
0.06633416458852869,-0.02298201231204708,
0.06638403990024938,-0.01602612174904288,
0.06643391521197008,-0.012877687630882042,
0.06648379052369077,-0.024598779339557217,
0.06653366583541147,-0.01506764337340132,
0.06658354114713216,-0.006701467765705179,
0.06663341645885287,0.0015512854702602191,
0.06668329177057357,-0.020569798809328778,
0.06673316708229426,-0.005416684094155449,
0.06678304239401496,0.005281603300029369,
0.06683291770573566,-0.004609357438243945,
0.06688279301745637,0.0001479971458391901,
0.06693266832917706,-0.03770040517725794,
0.06698254364089776,-0.035999294293436686,
0.06703241895261845,-0.013765550354223124,
0.06708229426433915,-0.03655125354754231,
0.06713216957605984,-0.00637159065184007,
0.06718204488778055,-0.00020961989800921503,
0.06723192019950125,-0.04690279201969652,
0.06728179551122195,-0.01088961128588039,
0.06733167082294264,-0.010061401467438632,
0.06738154613466334,-0.031422969220104555,
0.06743142144638405,-0.0105004509886825,
0.06748129675810474,-0.02533735976479183,
0.06753117206982544,-0.013857067732538652,
0.06758104738154613,0.012140707956447202,
0.06763092269326683,-0.027979907134049745,
0.06768079800498752,0.015229120965429074,
0.06773067331670823,-0.03261678332393748,
0.06778054862842893,-0.008321580219835182,
0.06783042394014963,-0.015003113089293293,
0.06788029925187032,-0.019453593430089865,
0.06793017456359102,-0.004535955973106732,
0.06798004987531173,-0.0010164208259300905,
0.06802992518703242,-0.009176044091778282,
0.06807980049875312,-0.03042767476033549,
0.06812967581047381,-0.021089224963763056,
0.06817955112219451,0.005022583153422442,
0.0682294264339152,-0.017465886693192687,
0.06827930174563591,-0.02503852523121112,
0.06832917705735661,-0.01648257727316594,
0.0683790523690773,-0.03787826994783621,
0.068428927680798,-0.015729448380347386,
0.0684788029925187,-0.013482088829028025,
0.06852867830423941,-0.00021314871452074793,
0.0685785536159601,-0.025709496149851713,
0.0686284289276808,-0.005256072716631012,
0.0686783042394015,-0.007864865707407069,
0.06872817955112219,-0.023256959409047123,
0.0687780548628429,-0.007153240150197774,
0.0688279301745636,-0.021176995162763113,
0.06887780548628429,-0.015678077116472632,
0.06892768079800499,-0.01645604549586553,
0.06897755610972568,-0.012276730481286163,
0.06902743142144638,0.012098605206428099,
0.06907730673316709,-0.026482517156427,
0.06912718204488778,-0.020504338456756144,
0.06917705735660848,-0.03597652965844275,
0.06922693266832917,-0.03058537341138573,
0.06927680798004987,-0.023050033264357905,
0.06932668329177058,-0.002273456290248088,
0.06937655860349128,-0.0053132445671984965,
0.06942643391521197,-0.013559973455322206,
0.06947630922693267,-0.051478249491866204,
0.06952618453865336,-0.029326489119850578,
0.06957605985037406,0.020705319765668376,
0.06962593516209477,-0.008399164145512167,
0.06967581047381546,-0.015803227507561617,
0.06972568578553616,-0.01610244895497092,
0.06977556109725686,-0.015780240974353345,
0.06982543640897755,-0.03885391372080584,
0.06987531172069826,-0.018593131470696772,
0.06992518703241896,-0.027117684953886383,
0.06997506234413965,-0.0480670465630601,
0.07002493765586035,-0.016139096390501498,
0.07007481296758104,-0.029996678057094363,
0.07012468827930174,0.007927841744625129,
0.07017456359102245,0.008115773078875208,
0.07022443890274314,-0.015036621262497938,
0.07027431421446384,-0.02295913707113207,
0.07032418952618454,-0.02694135969742347,
0.07037406483790523,-0.014959436668083187,
0.07042394014962594,-0.017858162766961137,
0.07047381546134664,-0.021112323304219235,
0.07052369077306733,0.00033839887501689765,
0.07057356608478803,-0.043522656427722836,
0.07062344139650872,-0.024316303706785544,
0.07067331670822943,-0.026702368393259505,
0.07072319201995013,-0.03412132120461921,
0.07077306733167082,-0.017274687908758746,
0.07082294264339152,-0.0055030861319950684,
0.07087281795511222,-0.01695013553989822,
0.07092269326683291,-0.007376229300700596,
0.07097256857855362,-0.01723570118026767,
0.07102244389027432,-0.012980815889395207,
0.07107231920199501,-0.027841274283179847,
0.07112219451371571,-0.029437256885223115,
0.0711720698254364,-0.03838604689953709,
0.07122194513715711,-0.010033912033760852,
0.07127182044887781,-0.021267936023645358,
0.0713216957605985,-0.0038408101966382023,
0.0713715710723192,0.0037507091907202604,
0.0714214463840399,-0.003770544830514048,
0.07147132169576059,-0.0039037914374437195,
0.0715211970074813,-0.02429119211286183,
0.071571072319202,-0.018537800678434822,
0.0716209476309227,-0.018441340105078828,
0.07167082294264339,-0.032549862017748114,
0.07172069825436408,-0.006063920245695694,
0.0717705735660848,0.0015940193261006798,
0.07182044887780549,-0.041302129050425546,
0.07187032418952619,-0.024246643192876456,
0.07192019950124688,-0.0027747458200260474,
0.07197007481296758,-0.007409095231826646,
0.07201995012468827,-0.003119441528192472,
0.07206982543640898,0.005739106036092361,
0.07211970074812968,-0.036286489586522516,
0.07216957605985037,0.030186098953149318,
0.07221945137157107,-0.006014674870000955,
0.07226932668329177,0.008216155426438412,
0.07231920199501247,-0.01716206482660074,
0.07236907730673317,0.009733095757112972,
0.07241895261845387,-0.015816339641296952,
0.07246882793017456,-0.0019751632510428417,
0.07251870324189526,-0.008536828929300699,
0.07256857855361595,-0.0007838720937931266,
0.07261845386533666,-0.005127541069863327,
0.07266832917705736,-0.01871577258118195,
0.07271820448877805,-0.0057807489112190105,
0.07276807980049875,0.00021445707307105478,
0.07281795511221945,-0.02950266667862313,
0.07286783042394016,0.007089904495726235,
0.07291770573566085,-0.005213097600749948,
0.07296758104738155,-0.0016837558714608639,
0.07301745635910224,-0.0018464616418998876,
0.07306733167082294,-0.0015669541516563587,
0.07311720698254365,-0.01631964827787173,
0.07316708229426434,0.004261458283391468,
0.07321695760598504,0.019846814806765693,
0.07326683291770573,0.02238437055449771,
0.07331670822942643,-0.005418698467723866,
0.07336658354114713,0.024608964051942427,
0.07341645885286784,0.0143895865967056,
0.07346633416458853,0.00011647847058803657,
0.07351620947630923,0.004219501451394787,
0.07356608478802992,0.011823844536490827,
0.07361596009975062,0.014234491564149354,
0.07366583541147133,0.026065148704210235,
0.07371571072319202,-0.008335183499023117,
0.07376558603491272,-0.004807437031990453,
0.07381546134663342,0.022012445291377532,
0.07386533665835411,0.0015797223891634766,
0.0739152119700748,0.0007724438901282717,
0.07396508728179552,0.0036196408223437048,
0.07401496259351621,0.00712819836269453,
0.07406483790523691,-0.002853716011085009,
0.0741147132169576,0.026609521480390787,
0.0741645885286783,0.001020293730002111,
0.07421446384039901,0.004496080296587603,
0.0742643391521197,-0.018473639472518077,
0.0743142144638404,-0.00776311839697299,
0.0743640897755611,0.01393744699552094,
0.07441396508728179,0.002053354656953178,
0.07446384039900249,0.011481665867079558,
0.0745137157107232,0.040354197593702165,
0.07456359102244389,0.012227420556477148,
0.07461346633416459,0.009911676170416325,
0.07466334164588528,-0.01078510460898666,
0.07471321695760598,0.027681407141149066,
0.07476309226932669,0.018520214852271642,
0.07481296758104738,0.017826615512542845,
0.07486284289276808,0.004325517446810479,
0.07491271820448878,0.0302301665636673,
0.07496259351620947,0.006393431289271135,
0.07501246882793017,0.012745505195925053,
0.07506234413965088,0.020524957436412163,
0.07511221945137157,0.019075338415225004,
0.07516209476309227,0.014375823745429395,
0.07521197007481296,0.006656571929478246,
0.07526184538653366,0.04092986016136517,
0.07531172069825437,0.021586330485630266,
0.07536159600997507,0.016970327824975703,
0.07541147132169576,-0.0006477708721553573,
0.07546134663341646,-0.0006616155634657193,
0.07551122194513715,0.004812802622716241,
0.07556109725685786,0.014307803611394623,
0.07561097256857856,0.013578149479999364,
0.07566084788029925,0.039625922134462074,
0.07571072319201995,0.03604451159028579,
0.07576059850374064,0.022327569879020938,
0.07581047381546134,0.007466811994287264,
0.07586034912718205,0.029919946870446204,
0.07591022443890275,0.03739949808843067,
0.07596009975062344,0.014838224725803244,
0.07600997506234414,0.030563188918996932,
0.07605985037406483,0.012083514841177229,
0.07610972568578554,0.03078780122609482,
0.07615960099750624,0.018963654798162723,
0.07620947630922693,0.02117932251557218,
0.07625935162094763,0.029253868201659504,
0.07630922693266833,0.021379014396140976,
0.07635910224438902,-0.009058882256495124,
0.07640897755610973,0.00629981139598341,
0.07645885286783043,0.017409075063773302,
0.07650872817955112,-0.013098867887923853,
0.07655860349127182,0.02237768508739843,
0.07660847880299251,0.04379088454382597,
0.07665835411471322,0.0024242773124587454,
0.07670822942643392,0.025444061006448748,
0.07675810473815461,0.037232803893625245,
0.07680798004987531,0.02193966107872059,
0.076857855361596,0.03256485705591042,
0.0769077306733167,0.017067975959915747,
0.07695760598503741,0.051075229105509205,
0.0770074812967581,0.023340274530285955,
0.0770573566084788,0.007468111137724682,
0.0771072319201995,0.03271458008076197,
0.0771571072319202,0.04113762504338591,
0.0772069825436409,0.008251617965952121,
0.0772568578553616,0.022740477591357115,
0.0773067331670823,0.005346911059766354,
0.07735660847880299,0.040197993233412194,
0.07740648379052369,0.033553510419182184,
0.0774563591022444,0.02681231243662891,
0.07750623441396509,0.0026164902255879537,
0.07755610972568579,0.04786964125706536,
0.07760598503740648,0.03529086690482769,
0.07765586034912718,0.03925351383754773,
0.07770573566084787,0.05906619540025548,
0.07775561097256858,0.03934913897766394,
0.07780548628428928,0.023567364338697574,
0.07785536159600998,0.02786444329282075,
0.07790523690773067,0.01621650780055598,
0.07795511221945137,0.03293630287918004,
0.07800498753117208,0.010451878414833624,
0.07805486284289277,0.017525694455646744,
0.07810473815461347,0.045345367605393205,
0.07815461346633416,0.04785391108997943,
0.07820448877805486,0.04082256013831243,
0.07825436408977555,0.040238907421023616,
0.07830423940149626,0.009828632946316841,
0.07835411471321696,0.01802842255670209,
0.07840399002493766,0.02255789620128152,
0.07845386533665835,0.026523711798638022,
0.07850374064837905,0.0015976329063357858,
0.07855361596009976,0.013613237275605126,
0.07860349127182045,0.0253684334745924,
0.07865336658354115,0.021366194376255768,
0.07870324189526184,0.026585923814276838,
0.07875311720698254,0.05332648455473872,
0.07880299251870324,0.04987423985705516,
0.07885286783042394,0.02533663030213285,
0.07890274314214464,0.03985978192471783,
0.07895261845386534,0.026319360240062737,
0.07900249376558603,0.02301952556056762,
0.07905236907730673,0.008707194768388347,
0.07910224438902744,0.022297292019262623,
0.07915211970074813,0.020981895516074715,
0.07920199501246883,0.04032925399863112,
0.07925187032418952,0.023883016819089553,
0.07930174563591022,0.0349209508241393,
0.07935162094763092,0.03917208396935021,
0.07940149625935163,-0.018772762507307705,
0.07945137157107232,0.009296163190795754,
0.07950124688279302,0.02522781984403828,
0.07955112219451371,0.025534451691720327,
0.07960099750623441,0.004030436086065032,
0.07965087281795512,0.002501752996087188,
0.07970074812967581,0.03446923395722557,
0.07975062344139651,0.04732874461939254,
0.0798004987531172,0.03904685598521572,
0.0798503740648379,-0.008924208377342282,
0.07990024937655861,0.02176937877903076,
0.0799501246882793,0.018869219097860837,
0.08,0.00653573919769964,
0.0800498753117207,0.025406622070409945,
0.0800997506234414,0.030259692613771687,
0.08014962593516209,0.06017102779451952,
0.0801995012468828,0.03323166267066425,
0.0802493765586035,0.01963823425408348,
0.08029925187032419,-0.0032932709901957666,
0.08034912718204489,0.028090379699547627,
0.08039900249376558,0.004064753069780214,
0.08044887780548629,0.038231323137943016,
0.08049875311720699,0.03985308214737651,
0.08054862842892768,-0.0022005320862779273,
0.08059850374064838,0.03454949892377819,
0.08064837905236907,-0.0013743471158304335,
0.08069825436408977,0.023594660860761906,
0.08074812967581048,0.03701428358259921,
0.08079800498753117,0.012355297160737518,
0.08084788029925187,0.028195140706052415,
0.08089775561097257,0.014238747086919211,
0.08094763092269326,0.012837976647658287,
0.08099750623441397,0.01495099715397168,
0.08104738154613467,0.007562199239375116,
0.08109725685785536,0.011073451469786165,
0.08114713216957606,0.03393769889741277,
0.08119700748129675,0.03828779146753946,
0.08124688279301745,-0.00018158621920538048,
0.08129675810473816,0.0048885875447798495,
0.08134663341645886,-0.006719560431078617,
0.08139650872817955,0.018713150451981093,
0.08144638403990025,0.009367719062054077,
0.08149625935162094,0.00016932196983440728,
0.08154613466334165,0.0031489441951539146,
0.08159600997506235,0.03513470382641931,
0.08164588528678304,-0.0008784870772729492,
0.08169576059850374,0.016502018831394145,
0.08174563591022443,-0.01981670951429253,
0.08179551122194513,0.015533615281325372,
0.08184538653366584,0.019630347768753116,
0.08189526184538654,0.026679849228652384,
0.08194513715710723,0.025587162055128825,
0.08199501246882793,0.026284528786851176,
0.08204488778054862,0.016476621270175826,
0.08209476309226933,0.01621079858245718,
0.08214463840399003,0.03036395773359455,
0.08219451371571072,-0.001999451632877784,
0.08224438902743142,-0.014055252374838102,
0.08229426433915212,0.0070443610163355135,
0.08234413965087282,0.0022705117617357867,
0.08239401496259352,0.007716024422950961,
0.08244389027431422,0.002093114319303589,
0.08249376558603491,-0.006378081894547569,
0.08254364089775561,0.017078445857470963,
0.0825935162094763,0.021172927216487884,
0.08264339152119701,0.027570069931471174,
0.08269326683291771,0.014888041812012875,
0.0827431421446384,0.03294467806112155,
0.0827930174563591,0.018432422850046204,
0.0828428927680798,0.0012895933725038684,
0.0828927680798005,0.021752136009788405,
0.0829426433915212,0.011370029626680213,
0.0829925187032419,0.016181842589835203,
0.08304239401496259,0.014070082161658877,
0.08309226932668329,0.020941308090863097,
0.08314214463840398,0.009136238756568375,
0.0831920199501247,0.015827538814491178,
0.08324189526184539,0.00810338026041416,
0.08329177057356608,0.022928898653973483,
0.08334164588528678,0.04716249439262224,
0.08339152119700748,-0.022665597755088522,
0.08344139650872819,0.0041725584340009956,
0.08349127182044888,-0.008428367452123362,
0.08354114713216958,0.014355454230954516,
0.08359102244389027,0.018311048995183758,
0.08364089775561097,-0.0035060431135539426,
0.08369077306733166,-0.03246056572328134,
0.08374064837905237,-0.005625313322793405,
0.08379052369077307,0.007305304807339433,
0.08384039900249377,-0.011196361272592683,
0.08389027431421446,0.026782375906421456,
0.08394014962593516,0.0015730236178825895,
0.08399002493765587,-0.010297358786402956,
0.08403990024937656,-0.012288998139965705,
0.08408977556109726,-0.019795681835706774,
0.08413965087281795,0.03809705650118921,
0.08418952618453865,0.008991404626593986,
0.08423940149625936,-0.0028207764242656353,
0.08428927680798005,0.0074054852155796685,
0.08433915211970075,-0.018106814292220327,
0.08438902743142145,-0.004050092777161836,
0.08443890274314214,0.016389444465547832,
0.08448877805486284,0.002731265207179769,
0.08453865336658355,0.018504000375506424,
0.08458852867830424,0.009679167455104358,
0.08463840399002494,-0.011704892461167755,
0.08468827930174563,-0.011489657871177731,
0.08473815461346633,0.00034000101007240237,
0.08478802992518704,-0.031892364184877654,
0.08483790523690773,-0.01404254905201488,
0.08488778054862843,-0.021742947151040526,
0.08493765586034913,0.016109250466333776,
0.08498753117206982,-0.0007172727308781689,
0.08503740648379052,-0.01333389146750745,
0.08508728179551123,0.00024735499169619194,
0.08513715710723192,-0.01004424199854771,
0.08518703241895262,-0.008832620432526389,
0.08523690773067331,0.012308715438697982,
0.08528678304239401,0.00039350451011022514,
0.08533665835411472,0.03566474173997295,
0.08538653366583542,-0.019132551225089722,
0.08543640897755611,-0.028031779527542915,
0.0854862842892768,0.02650322481465346,
0.0855361596009975,0.014964525748176027,
0.0855860349127182,-0.02575053626708563,
0.08563591022443891,-0.004881326020855339,
0.0856857855361596,-0.0015719540287003164,
0.0857356608478803,0.0022611983900106504,
0.085785536159601,-0.014306555116126378,
0.08583541147132169,0.015531549214038935,
0.0858852867830424,-0.02787787992940968,
0.0859351620947631,-0.009067916910982153,
0.08598503740648379,-0.0069486452112938035,
0.08603491271820449,-0.002167930347993566,
0.08608478802992518,0.03935492744655,
0.08613466334164588,-0.0073971155586928065,
0.08618453865336659,0.0006168858427672164,
0.08623441396508728,0.0020420334457611315,
0.08628428927680798,0.005848853372931057,
0.08633416458852868,0.003835364639938943,
0.08638403990024937,0.0055596313905251615,
0.08643391521197008,-0.03607600699921446,
0.08648379052369078,0.006373446674692038,
0.08653366583541147,-0.019582132207364034,
0.08658354114713217,-0.030099868986359142,
0.08663341645885286,-7.826202910405158e-05,
0.08668329177057357,0.01077677898409116,
0.08673316708229427,0.0002738455441244382,
0.08678304239401496,-0.021746257717915867,
0.08683291770573566,0.0033717457197712172,
0.08688279301745636,0.0028057126032260075,
0.08693266832917705,0.0062375121442308085,
0.08698254364089776,0.0011196002284523734,
0.08703241895261846,-0.013632886873854319,
0.08708229426433915,-0.0027144539640195815,
0.08713216957605985,0.0051199914250746326,
0.08718204488778054,-0.015931386707442066,
0.08723192019950125,-0.017727546510856132,
0.08728179551122195,-0.006000537468228556,
0.08733167082294264,-0.00881663137736948,
0.08738154613466334,-0.03474814573898533,
0.08743142144638404,0.004542408236144867,
0.08748129675810473,-0.0004791962174607884,
0.08753117206982544,-0.03255280192961379,
0.08758104738154614,-0.010413002537527923,
0.08763092269326683,-0.023510889268639937,
0.08768079800498753,0.007211911989751893,
0.08773067331670822,-0.02213107547026187,
0.08778054862842893,-0.014595103728929009,
0.08783042394014963,-0.013806345704320936,
0.08788029925187033,-0.03356734309205589,
0.08793017456359102,-0.0040192426472663335,
0.08798004987531172,-0.03524344009282596,
0.08802992518703241,0.010560062692930949,
0.08807980049875312,0.012959205793859407,
0.08812967581047382,-0.02197802265837121,
0.08817955112219451,0.01557206434222377,
0.08822942643391521,-0.000897277883246915,
0.0882793017456359,-0.009992106007262459,
0.08832917705735661,-0.019554017140160238,
0.08837905236907731,-0.01869551853912619,
0.088428927680798,0.003869533183987894,
0.0884788029925187,-0.003170791161057831,
0.0885286783042394,-0.042372909261122235,
0.0885785536159601,0.006433130277862631,
0.0886284289276808,-0.029084551289303567,
0.0886783042394015,-0.012531349112856775,
0.0887281795511222,-0.005457458069832206,
0.08877805486284289,-0.021179604907411633,
0.08882793017456359,-0.01608007675512657,
0.0888778054862843,-0.03143194054671728,
0.08892768079800499,-0.0035842017177101036,
0.08897755610972569,-0.04315926438977187,
0.08902743142144638,0.011196496145274471,
0.08907730673316708,-0.0007699262171989192,
0.08912718204488779,-0.019430886037533564,
0.08917705735660848,0.005758181097990804,
0.08922693266832918,-0.012459312625318476,
0.08927680798004987,-0.04343698107804221,
0.08932668329177057,0.0008561837864223786,
0.08937655860349127,-0.020380192687963383,
0.08942643391521198,-0.002872276866720931,
0.08947630922693267,-0.025972828396512448,
0.08952618453865337,-0.017233774886721343,
0.08957605985037406,-0.026109480800823794,
0.08962593516209476,-0.02166185528450891,
0.08967581047381547,-0.006944380696772576,
0.08972568578553616,0.010564537028130122,
0.08977556109725686,-0.02342102040895508,
0.08982543640897755,-0.024262510231087102,
0.08987531172069825,-0.008228818273752195,
0.08992518703241895,-0.022466046066845484,
0.08997506234413966,-0.030052286702034026,
0.09002493765586035,-0.04461189163878352,
0.09007481296758105,-0.01722719126574386,
0.09012468827930174,-0.008249565613332406,
0.09017456359102244,-0.032362606694976315,
0.09022443890274315,-0.01783953523852134,
0.09027431421446384,-0.013597048706737438,
0.09032418952618454,-0.028750237847669377,
0.09037406483790524,-0.03314443560671093,
0.09042394014962593,-0.004949490196221811,
0.09047381546134663,0.0040834931828456315,
0.09052369077306734,0.007245536816120422,
0.09057356608478803,-0.00918632804906951,
0.09062344139650873,-0.040064903317481915,
0.09067331670822942,0.000686853848726434,
0.09072319201995012,-0.025234137720775558,
0.09077306733167083,-0.022905919835823886,
0.09082294264339152,0.003448205546335799,
0.09087281795511222,-0.017168240647468625,
0.09092269326683292,0.010874709745990346,
0.09097256857855361,-0.0064301777407198835,
0.09102244389027432,-0.002270224242639312,
0.09107231920199502,-0.004993838809627134,
0.09112219451371571,0.01477649235472882,
0.09117206982543641,-0.009398929025150307,
0.0912219451371571,0.006710830887274779,
0.0912718204488778,-0.006897847949962519,
0.09132169576059851,-0.02438497519809021,
0.0913715710723192,0.01237341050922062,
0.0914214463840399,-0.02581157042926079,
0.0914713216957606,-0.005147237178932343,
0.09152119700748129,0.0006357044575654135,
0.091571072319202,-0.0018547961717982064,
0.0916209476309227,-0.0417027642681933,
0.09167082294264339,-0.021981012146257795,
0.09172069825436409,-0.012950429700979073,
0.09177057356608478,0.01612253563189431,
0.09182044887780548,-0.011041489672058053,
0.09187032418952619,0.022481727664764462,
0.09192019950124689,-0.014930049705550025,
0.09197007481296758,0.002552404464248684,
0.09201995012468828,-0.013745419531854552,
0.09206982543640897,0.0051758689572701,
0.09211970074812968,0.0007895067107164463,
0.09216957605985038,0.010828874904332408,
0.09221945137157107,0.006536036702397888,
0.09226932668329177,-0.01036289685239588,
0.09231920199501246,-0.010993198351867958,
0.09236907730673316,0.021421055950389893,
0.09241895261845387,-0.024761450030007903,
0.09246882793017457,0.0033920568252994287,
0.09251870324189526,-0.010848514503202983,
0.09256857855361596,-0.00606567264634298,
0.09261845386533665,0.011562328880298296,
0.09266832917705736,0.023202560037469563,
0.09271820448877806,-0.0027432215675797936,
0.09276807980049875,-0.017418163481897148,
0.09281795511221945,0.012680677333730746,
0.09286783042394015,-0.01271311405261077,
0.09291770573566084,0.027446090503935237,
0.09296758104738155,-0.0008656650952945186,
0.09301745635910225,-0.03080132887387506,
0.09306733167082294,0.024898731738954467,
0.09311720698254364,-0.006982209280061658,
0.09316708229426433,0.000763781640416504,
0.09321695760598504,0.022608900262177045,
0.09326683291770574,-0.012900153208515508,
0.09331670822942643,-0.0013827665609349752,
0.09336658354114713,-0.00973262195583431,
0.09341645885286783,0.015837320232089266,
0.09346633416458854,0.014356237431873822,
0.09351620947630923,0.055439426688165566,
0.09356608478802993,-0.00031263968841368714,
0.09361596009975062,0.016874006238338825,
0.09366583541147132,-0.003555164229127634,
0.09371571072319201,-0.0043088035321649475,
0.09376558603491272,0.030056884078244292,
0.09381546134663342,0.010180284002408196,
0.09386533665835411,-0.004045616577859485,
0.09391521197007481,0.010810442925399791,
0.0939650872817955,0.010333010311275436,
0.09401496259351622,-0.020833109760257904,
0.09406483790523691,0.01515043383571291,
0.09411471321695761,0.0016270938778566984,
0.0941645885286783,0.0035221379753785087,
0.094214463840399,0.016761592060687273,
0.0942643391521197,0.0264766357508941,
0.0943142144638404,0.008957231727447694,
0.0943640897755611,-0.0015897641076494193,
0.0944139650872818,0.0073005198950623525,
0.09446384039900249,0.00044580496530613294,
0.09451371571072319,-0.021838946116617595,
0.0945635910224439,0.01489979430898035,
0.09461346633416459,0.019775113638057305,
0.09466334164588529,0.020231190178228338,
0.09471321695760598,0.01597534906813014,
0.09476309226932668,0.029391898399255767,
0.09481296758104737,0.010211689176980171,
0.09486284289276808,0.044121991399601955,
0.09491271820448878,0.0321218499239513,
0.09496259351620948,0.02380169154458193,
0.09501246882793017,0.025183847173532434,
0.09506234413965087,0.017779988154283485,
0.09511221945137158,0.014511499964750393,
0.09516209476309227,0.002323940585657389,
0.09521197007481297,0.0020618080433320723,
0.09526184538653366,0.040553154651292035,
0.09531172069825436,-0.023847570048593284,
0.09536159600997507,0.026043875615375738,
0.09541147132169576,0.0166576840033177,
0.09546134663341646,0.002297114511358514,
0.09551122194513716,0.012222543468033528,
0.09556109725685785,0.020501802543003923,
0.09561097256857855,0.028530364107739514,
0.09566084788029926,0.02769838435411496,
0.09571072319201995,0.01804924305483899,
0.09576059850374065,0.0077435875043199934,
0.09581047381546134,0.03809185884974123,
0.09586034912718204,0.02114823004247555,
0.09591022443890275,-0.0003294090581083785,
0.09596009975062345,-0.000360011947116972,
0.09600997506234414,0.002098696419134804,
0.09605985037406484,0.003540560879471185,
0.09610972568578553,0.010798386413201898,
0.09615960099750623,0.023545514375559143,
0.09620947630922694,0.028990879487823418,
0.09625935162094763,0.012163472274257993,
0.09630922693266833,0.015700023951445857,
0.09635910224438902,0.010633451859880322,
0.09640897755610972,0.004696087810297005,
0.09645885286783043,0.011006037809832758,
0.09650872817955113,0.046274160226511485,
0.09655860349127182,0.026793590150399487,
0.09660847880299252,0.015191910140664705,
0.09665835411471321,0.043920044909533364,
0.09670822942643391,0.027585477113793277,
0.09675810473815462,0.009881800036264606,
0.09680798004987531,0.0007629650229347903,
0.09685785536159601,0.022403115476122993,
0.0969077306733167,0.0167898550997818,
0.0969576059850374,0.00816806143584495,
0.09700748129675811,0.02294301956647715,
0.0970573566084788,0.00373893143235908,
0.0971072319201995,0.025911229735072122,
0.0971571072319202,0.01841207241560709,
0.0972069825436409,0.029967809989244247,
0.09725685785536159,0.00700781710381243,
0.0973067331670823,0.04403990063930238,
0.097356608478803,0.015150369547975245,
0.09740648379052369,0.026423152615185196,
0.09745635910224439,0.03499829002088262,
0.09750623441396508,0.028057945927968838,
0.09755610972568579,0.010049580003482378,
0.09760598503740649,0.032466656474703585,
0.09765586034912718,0.007155046747183057,
0.09770573566084788,0.048931607570153544,
0.09775561097256857,0.04837989492064747,
0.09780548628428928,-0.004002461777208838,
0.09785536159600998,0.04742686429278398,
0.09790523690773068,0.03457314338333528,
0.09795511221945137,0.04499588670017734,
0.09800498753117207,0.047054702627124655,
0.09805486284289276,0.03248664155325632,
0.09810473815461347,0.04084362401565134,
0.09815461346633417,0.048985140877978464,
0.09820448877805486,0.046980646552667926,
0.09825436408977556,0.037906584624896884,
0.09830423940149625,0.037530127933313784,
0.09835411471321696,0.007594579322164178,
0.09840399002493766,0.03597149351215653,
0.09845386533665836,0.002933379008795818,
0.09850374064837905,0.02165931809938832,
0.09855361596009975,0.019380061351111835,
0.09860349127182044,0.017792384211000982,
0.09865336658354115,0.027629556366336683,
0.09870324189526185,-0.00039561595295347154,
0.09875311720698254,0.03435026304952462,
0.09880299251870324,0.036550808801346944,
0.09885286783042393,0.05303473171307699,
0.09890274314214464,0.03589594646836559,
0.09895261845386534,0.03154159691600024,
0.09900249376558604,0.032099510304169146,
0.09905236907730673,0.04497361711758774,
0.09910224438902743,-0.000992775868050997,
0.09915211970074812,0.03899594434799236,
0.09920199501246883,0.009719587988889035,
0.09925187032418953,0.033064660668965115,
0.09930174563591022,0.051226144043986316,
0.09935162094763092,0.03834614679914833,
0.09940149625935162,0.042979986272278996,
0.09945137157107233,0.013698345885614869,
0.09950124688279302,0.02885427542669339,
0.09955112219451372,0.006114362017111092,
0.09960099750623441,0.01252602861424908,
0.09965087281795511,0.03836820076709632,
0.0997007481296758,0.0012424351806008226,
0.09975062344139651,0.024143934726439848,
0.09980049875311721,0.04045761201050247,
0.0998503740648379,0.045136914784147886,
0.0999002493765586,0.02545230891831524,
0.0999501246882793,0.03075200367152401,
0.1,0.024543538868002077,
0.1000498753117207,0.010187473109282585,
0.1000997506234414,0.045389813281679986,
0.10014962593516209,0.009878693355182322,
0.10019950124688279,0.03419898981040305,
0.1002493765586035,0.02630223658534197,
0.1002992518703242,0.034230633978260525,
0.10034912718204489,0.039249291622200116,
0.10039900249376559,0.04839059038025649,
0.10044887780548628,0.01720244323972736,
0.10049875311720698,0.026509475490043063,
0.10054862842892769,0.02011447827837238,
0.10059850374064838,0.038059682918606536,
0.10064837905236908,0.015490842892475945,
0.10069825436408977,0.0437568695917023,
0.10074812967581047,0.009247074600194983,
0.10079800498753118,0.005300363670012659,
0.10084788029925187,0.03258380406698356,
0.10089775561097257,0.029641473303303866,
0.10094763092269327,0.03453166282718957,
0.10099750623441396,0.033278268017387425,
0.10104738154613466,0.030288436907451373,
0.10109725685785537,0.036286349433075515,
0.10114713216957606,0.0047891025716973006,
0.10119700748129676,0.04303713412134855,
0.10124688279301745,0.015876121058689595,
0.10129675810473815,-0.00019058153261279978,
0.10134663341645886,0.007255152339194116,
0.10139650872817955,0.005985651347979851,
0.10144638403990025,0.04571016620200487,
0.10149625935162095,-0.008423837598332162,
0.10154613466334164,0.008785218215299697,
0.10159600997506234,0.004122283056529313,
0.10164588528678305,0.05926187934599627,
0.10169576059850374,0.04158181140376288,
0.10174563591022444,0.0258160796841208,
0.10179551122194513,0.017884542517777165,
0.10184538653366583,0.030822872558266087,
0.10189526184538654,0.007724307441942791,
0.10194513715710724,-0.008767113866885837,
0.10199501246882793,0.020811022351857326,
0.10204488778054863,0.025081346025536917,
0.10209476309226932,0.001503866481301231,
0.10214463840399003,0.02140741112163375,
0.10219451371571073,0.047548681565441814,
0.10224438902743142,0.041822087606861576,
0.10229426433915212,0.010067813786656471,
0.10234413965087281,0.01032172849112242,
0.10239401496259351,0.0034328619805455464,
0.10244389027431422,0.044490311589834755,
0.10249376558603492,0.029724465240116814,
0.10254364089775561,0.022771319704661196,
0.10259351620947631,0.032097695251040635,
0.102643391521197,0.05907211337896694,
0.10269326683291771,-0.004995636257015693,
0.10274314214463841,0.03328705581751129,
0.1027930174563591,0.024534091994071763,
0.1028428927680798,0.01954069020878557,
0.1028927680798005,0.01298971488877231,
0.10294264339152119,0.03416882938723022,
0.1029925187032419,0.032784332552995225,
0.1030423940149626,0.021336297527698906,
0.10309226932668329,0.027038420842258312,
0.10314214463840399,-0.013758539686850021,
0.10319201995012468,0.01545207275353306,
0.10324189526184539,0.02718324218211536,
0.10329177057356609,-0.011246920771128797,
0.10334164588528678,-0.01583298269251003,
0.10339152119700748,-0.006859914172669469,
0.10344139650872818,-0.00921299669358792,
0.10349127182044887,0.012786135287907643,
0.10354114713216958,-0.009739334892417758,
0.10359102244389028,0.022930429607991624,
0.10364089775561097,0.010590801340215571,
0.10369077306733167,-0.0032398770797254627,
0.10374064837905236,-0.002465844340409076,
0.10379052369077307,0.03168770127110533,
0.10384039900249377,0.030115009995257368,
0.10389027431421446,0.02281354076012093,
0.10394014962593516,0.03135352484630817,
0.10399002493765586,0.023307915908763695,
0.10403990024937655,0.02435677135618823,
0.10408977556109726,0.007371976938230927,
0.10413965087281796,0.013364365913805024,
0.10418952618453865,0.015208687464768642,
0.10423940149625935,0.009222710641656025,
0.10428927680798004,-0.002729109784661436,
0.10433915211970075,-0.0029370172218610314,
0.10438902743142145,0.03022738069756071,
0.10443890274314215,0.013274108180571214,
0.10448877805486284,0.009688318736235699,
0.10453865336658354,0.006315894883648967,
0.10458852867830425,-0.0004317151685217296,
0.10463840399002494,-0.013162634113372134,
0.10468827930174564,-0.010042480494622183,
0.10473815461346633,-0.0061855237728290395,
0.10478802992518703,-0.013455801716200765,
0.10483790523690772,-0.014216788180534403,
0.10488778054862843,-0.0028219127416792287,
0.10493765586034913,-0.024354187871121563,
0.10498753117206983,-0.017335180433780316,
0.10503740648379052,0.004018116307601436,
0.10508728179551122,-0.008492439027392185,
0.10513715710723193,0.002128435352692618,
0.10518703241895262,-0.0023242822202622867,
0.10523690773067332,0.015896041465116813,
0.10528678304239401,-0.021258257905778948,
0.10533665835411471,-0.01931831589182743,
0.1053865336658354,-0.029725277096634663,
0.10543640897755611,0.0004213521663058808,
0.10548628428927681,0.0037699676239473043,
0.1055361596009975,-0.029308781330266653,
0.1055860349127182,0.00422734870141158,
0.1056359102244389,-0.01346281400177709,
0.10568578553615961,-0.009323886256699877,
0.1057356608478803,-0.008056102179037274,
0.105785536159601,-0.03753542565175741,
0.1058354114713217,-0.031155392254030436,
0.10588528678304239,-0.005177855793826541,
0.10593516209476309,-0.0009088266082944861,
0.1059850374064838,-0.014598124373673148,
0.10603491271820449,-0.03742811814767748,
0.10608478802992519,-0.0060068416154496805,
0.10613466334164588,-0.024666066949741043,
0.10618453865336658,-0.0003786400244497378,
0.10623441396508729,-0.00023103990585860747,
0.10628428927680798,-0.019040580786600855,
0.10633416458852868,0.0016825517201336558,
0.10638403990024937,0.024752124529090157,
0.10643391521197007,-0.028593588397068104,
0.10648379052369077,-0.00940000065703869,
0.10653366583541148,-0.017904229321623895,
0.10658354114713217,-0.0032792495006791753,
0.10663341645885287,0.006918167512722466,
0.10668329177057356,-0.014518248288489105,
0.10673316708229426,-0.025539103353638064,
0.10678304239401497,-0.027929862479583695,
0.10683291770573566,-0.01681563946497845,
0.10688279301745636,-0.013666559681831055,
0.10693266832917706,-0.0068536196344475015,
0.10698254364089775,-0.021859575562459193,
0.10703241895261846,-0.004476657720977115,
0.10708229426433916,-0.021306277171687035,
0.10713216957605985,-0.007748641614588674,
0.10718204488778055,-0.008631715065682095,
0.10723192019950124,0.007610981487887997,
0.10728179551122194,-0.015370544960881718,
0.10733167082294265,0.022601435570180108,
0.10738154613466334,0.007528817993635166,
0.10743142144638404,0.00781888106017713,
0.10748129675810474,-0.0028146645265200287,
0.10753117206982543,0.0178449946271396,
0.10758104738154614,0.009139333674499938,
0.10763092269326684,0.018151503783054888,
0.10768079800498753,0.007185449733945049,
0.10773067331670823,0.021261944438495127,
0.10778054862842892,0.006382051685973965,
0.10783042394014962,-0.010222202364822198,
0.10788029925187033,0.009102544868192251,
0.10793017456359102,-0.027311811861508693,
0.10798004987531172,0.025758739600834937,
0.10802992518703242,-0.021224877579837695,
0.10807980049875311,-0.0030605790171509065,
0.10812967581047382,-0.024515903980679717,
0.10817955112219452,-0.01266540894652118,
0.10822942643391521,-0.01590323237320397,
0.10827930174563591,0.01014392011842941,
0.1083291770573566,-0.03783030849714089,
0.1083790523690773,-0.021853704321994127,
0.10842892768079801,-0.05348207479123346,
0.1084788029925187,-0.01911779195952456,
0.1085286783042394,-0.006058061238514142,
0.1085785536159601,-0.01984471547755757,
0.10862842892768079,-0.00792862643636413,
0.1086783042394015,-0.003890911325919703,
0.1087281795511222,-0.010368916645027915,
0.1087780548628429,-0.011905779371699149,
0.10882793017456359,0.0027400296165008744,
0.10887780548628428,-0.0068783285125991475,
0.108927680798005,-0.009840064388440473,
0.10897755610972569,-0.0026218369040270154,
0.10902743142144639,-0.020913918641926064,
0.10907730673316708,-0.01252013340299038,
0.10912718204488778,-0.006190030937113583,
0.10917705735660847,-0.00873648820928644,
0.10922693266832918,-0.02882295406538142,
0.10927680798004988,-0.009884705569183302,
0.10932668329177057,0.021654200146656526,
0.10937655860349127,-0.00446705569420655,
0.10942643391521197,-0.010482107241039646,
0.10947630922693267,-0.008382030521530604,
0.10952618453865337,0.004092488818121232,
0.10957605985037407,0.004577887358826763,
0.10962593516209476,-0.009797991387976376,
0.10967581047381546,-0.011440685969578944,
0.10972568578553615,-0.0020759124367471203,
0.10977556109725686,-0.030698189988050555,
0.10982543640897756,-0.010608280728904164,
0.10987531172069825,0.019260683118036772,
0.10992518703241895,-0.01628384331819822,
0.10997506234413965,-0.00561589045552092,
0.11002493765586036,-0.008983453433934033,
0.11007481296758105,-0.012572094690360277,
0.11012468827930175,-0.015058691987146277,
0.11017456359102244,-0.00794383371809886,
0.11022443890274314,-0.007868989718818647,
0.11027431421446383,-0.024733976725347162,
0.11032418952618454,-0.013668219345888211,
0.11037406483790524,0.011079290951248464,
0.11042394014962593,-0.017513385359918657,
0.11047381546134663,-0.014709845137582627,
0.11052369077306733,-0.033312297930033714,
0.11057356608478804,0.004836252277712205,
0.11062344139650873,0.010335995600558187,
0.11067331670822943,-0.007409447158877447,
0.11072319201995012,-0.0075677363201079855,
0.11077306733167082,-0.018789002647120433,
0.11082294264339151,-0.007824083127803408,
0.11087281795511222,-0.021024448154128177,
0.11092269326683292,0.028113325267472133,
0.11097256857855362,-0.024265195808857144,
0.11102244389027431,0.023420288811626052,
0.111072319201995,-0.017853775568719987,
0.11112219451371572,-0.0077304748490664215,
0.11117206982543641,-0.028840829877447214,
0.11122194513715711,-0.0007928260223599628,
0.1112718204488778,-0.02859141637103272,
0.1113216957605985,-0.029279432180499068,
0.11137157107231921,0.01782867488135901,
0.1114214463840399,0.007285216095189921,
0.1114713216957606,0.005220304514111778,
0.1115211970074813,0.006726416362095507,
0.11157107231920199,-0.022186107034955445,
0.11162094763092269,-0.028347724305029215,
0.1116708229426434,0.010624724437692027,
0.11172069825436409,-0.0012882473325669342,
0.11177057356608479,-0.008586040237197508,
0.11182044887780548,-0.008390731571853688,
0.11187032418952618,0.018963558900313957,
0.11192019950124689,-0.007511278169291398,
0.11197007481296758,0.0216670553797781,
0.11201995012468828,-0.006332433511346705,
0.11206982543640898,0.006841665375431448,
0.11211970074812967,-0.0023230398993381845,
0.11216957605985037,0.00783795567143186,
0.11221945137157108,-0.00730974863231502,
0.11226932668329177,4.0506849960874735e-05,
0.11231920199501247,-0.0054747155480279275,
0.11236907730673316,-0.004941830810348535,
0.11241895261845386,-0.024263826803796032,
0.11246882793017457,-0.003692104767711693,
0.11251870324189527,-0.01904508067119791,
0.11256857855361596,-0.01258289988164205,
0.11261845386533666,0.00146982346708374,
0.11266832917705735,-0.002693992419839899,
0.11271820448877805,0.0014224675042569773,
0.11276807980049876,0.0019947102564455456,
0.11281795511221945,0.004575327201705545,
0.11286783042394015,-0.008519005593552412,
0.11291770573566084,-0.03149943859643896,
0.11296758104738154,0.005337067427327096,
0.11301745635910225,-0.011446520525762515,
0.11306733167082295,0.025971328527075087,
0.11311720698254364,4.9167744088401705e-05,
0.11316708229426434,-0.00404294952687087,
0.11321695760598503,-0.012763415337917854,
0.11326683291770574,0.018786028456725345,
0.11331670822942644,-0.008744489008171773,
0.11336658354114713,0.016599633643376806,
0.11341645885286783,0.026867931878061583,
0.11346633416458853,0.02033518676128406,
0.11351620947630922,-0.00954302970609529,
0.11356608478802993,0.01400881626750666,
0.11361596009975063,0.02003819254365147,
0.11366583541147132,0.01921628443020567,
0.11371571072319202,-0.008362392181067647,
0.11376558603491271,0.0015985046250060917,
0.11381546134663342,0.004638548610177483,
0.11386533665835412,0.031187530088962318,
0.11391521197007481,0.04078685972289921,
0.11396508728179551,0.027521181647169518,
0.1140149625935162,-0.02082724293692417,
0.1140648379052369,9.678651538636875e-05,
0.11411471321695761,-0.005073890291330532,
0.1141645885286783,0.010520824605125177,
0.114214463840399,-0.004424109218741219,
0.1142643391521197,0.025914910636139335,
0.1143142144638404,0.017350678986900597,
0.1143640897755611,0.0122019384584929,
0.1144139650872818,-0.021326511884135514,
0.1144638403990025,0.024699109569362172,
0.11451371571072319,0.009166932013278284,
0.11456359102244389,0.014282914319811208,
0.11461346633416458,0.004482612481279286,
0.11466334164588529,0.0013685940813936825,
0.11471321695760599,-0.009678804567686695,
0.11476309226932668,0.01031398007945531,
0.11481296758104738,0.015902284196182146,
0.11486284289276807,-0.015703959848048076,
0.11491271820448878,0.00506159734202862,
0.11496259351620948,0.01774470948395274,
0.11501246882793018,0.023259664912743807,
0.11506234413965087,0.008325620453657574,
0.11511221945137157,0.0031949236483813717,
0.11516209476309226,0.024378539560982057,
0.11521197007481297,0.033701160108857126,
0.11526184538653367,0.01735089165192806,
0.11531172069825436,0.013315431006459917,
0.11536159600997506,0.0048525109839476395,
0.11541147132169575,0.017532962090535134,
0.11546134663341646,0.006519212949589416,
0.11551122194513716,0.00025653674561697953,
0.11556109725685786,0.01953124923142386,
0.11561097256857855,-0.004014255834790311,
0.11566084788029925,0.027662685070871943,
0.11571072319201996,0.02055687266525102,
0.11576059850374065,0.01581745783539623,
0.11581047381546135,0.0059260746236426895,
0.11586034912718204,0.03823660120638782,
0.11591022443890274,0.028140535290853377,
0.11596009975062344,0.00401195886661479,
0.11600997506234415,-0.011268290907823258,
0.11605985037406484,0.019223996897059586,
0.11610972568578554,0.02905280742497684,
0.11615960099750623,0.02174788997604017,
0.11620947630922693,0.01889425155856312,
0.11625935162094764,0.015895039865721963,
0.11630922693266833,0.0346306640554442,
0.11635910224438903,0.01660586225734196,
0.11640897755610972,0.016143903397690132,
0.11645885286783042,-0.013703220947104904,
0.11650872817955112,0.00762772679008859,
0.11655860349127183,0.04560518365216751,
0.11660847880299252,0.022686343003273796,
0.11665835411471322,-0.005973811327183699,
0.11670822942643391,0.02214780996266663,
0.11675810473815461,0.02877116679226771,
0.11680798004987532,0.010572349417313573,
0.11685785536159601,0.05497744182640471,
0.11690773067331671,0.01374952846687298,
0.1169576059850374,0.009190713658611412,
0.1170074812967581,0.03842138312405047,
0.1170573566084788,0.03182612550863294,
0.1171072319201995,0.03367965779009976,
0.1171571072319202,0.04650097404065687,
0.1172069825436409,0.02133906404355775,
0.1172568578553616,0.03831472242337992,
0.11730673316708229,0.02107984014334182,
0.117356608478803,0.008732397331212418,
0.1174064837905237,0.04075747935974653,
0.11745635910224439,0.018158360343152664,
0.11750623441396509,0.036246365703186095,
0.11755610972568578,0.04055293511019398,
0.11760598503740648,0.04009676976618026,
0.11765586034912719,0.04162048287282135,
0.11770573566084788,0.017304492689738514,
0.11775561097256858,0.056608883261217074,
0.11780548628428927,-0.003213224933728477,
0.11785536159600997,0.0058914381592036075,
0.11790523690773068,0.016833889730521412,
0.11795511221945137,0.016628197159290245,
0.11800498753117207,0.021706459513454936,
0.11805486284289277,0.04643174596793359,
0.11810473815461346,0.017798089653333786,
0.11815461346633417,0.026110984287147736,
0.11820448877805487,0.051680983663407495,
0.11825436408977556,0.012337607212999827,
0.11830423940149626,0.016466985331837675,
0.11835411471321695,0.03327292854404884,
0.11840399002493765,0.030733131285029615,
0.11845386533665836,0.0224471434200645,
0.11850374064837906,0.05044014068879056,
0.11855361596009975,0.036916165730642624,
0.11860349127182045,0.05537739392990549,
0.11865336658354114,0.06589056867921284,
0.11870324189526185,0.03396130305202809,
0.11875311720698255,0.04912708072158822,
0.11880299251870324,0.0017185067997766007,
0.11885286783042394,0.02764956347066294,
0.11890274314214463,0.029436485396085253,
0.11895261845386533,0.024974641745423777,
0.11900249376558604,0.03103551342150632,
0.11905236907730674,0.02764578075469784,
0.11910224438902743,0.0070085537862150035,
0.11915211970074813,0.027281185314843963,
0.11920199501246882,0.00647310880316165,
0.11925187032418953,-0.003003837441947689,
0.11930174563591023,0.020574488251934114,
0.11935162094763092,0.04113199532784618,
0.11940149625935162,0.0058601745455974345,
0.11945137157107232,0.01658786891444592,
0.11950124688279301,0.017244339023666306,
0.11955112219451372,0.014584283941859516,
0.11960099750623442,0.03205998586348408,
0.11965087281795511,0.0431557542419957,
0.11970074812967581,0.02151299360240161,
0.1197506234413965,0.040098944592386235,
0.11980049875311721,0.04668527176923698,
0.11985037406483791,0.03434621157789006,
0.1199002493765586,0.003721370207725956,
0.1199501246882793,0.024308319323880438,
0.12,0.02295444574314174,
0.1200498753117207,0.04449073126700235,
0.1200997506234414,0.006383336766690836,
0.1201496259351621,0.01155717040780544,
0.12019950124688279,0.038919869169436794,
0.12024937655860349,0.022323016896754946,
0.12029925187032418,0.04301110576747298,
0.1203491271820449,0.02839677951908587,
0.12039900249376559,0.03893911783134032,
0.12044887780548628,0.0386807693276218,
0.12049875311720698,0.013776141014175153,
0.12054862842892768,0.011241655445578,
0.12059850374064839,0.0192587649332127,
0.12064837905236908,0.022401039893684797,
0.12069825436408978,0.00394055018697706,
0.12074812967581047,0.037074075698702066,
0.12079800498753117,0.025101416459950517,
0.12084788029925186,0.018214617952781224,
0.12089775561097257,-0.004022413216904219,
0.12094763092269327,0.04177873868974044,
0.12099750623441397,0.006547449131140044,
0.12104738154613466,0.013843840822056495,
0.12109725685785536,0.025491462976484008,
0.12114713216957607,0.024942887131264455,
0.12119700748129676,0.007076363360610034,
0.12124688279301746,0.0208273122098434,
0.12129675810473815,0.012279790194206126,
0.12134663341645885,0.033229942311207614,
0.12139650872817954,0.006025201362281799,
0.12144638403990025,0.014073052463572844,
0.12149625935162095,0.0277341607580343,
0.12154613466334165,0.0338018504626673,
0.12159600997506234,0.007946445169689384,
0.12164588528678304,0.03460849039374866,
0.12169576059850375,0.005703701217713138,
0.12174563591022444,0.019273772907777775,
0.12179551122194514,0.048569500121696196,
0.12184538653366583,0.018822386738118587,
0.12189526184538653,0.02730882781295639,
0.12194513715710723,0.01580012474620931,
0.12199501246882793,0.027442118705608216,
0.12204488778054863,0.013742812612623223,
0.12209476309226933,0.026708877473118654,
0.12214463840399002,0.016002524257414944,
0.12219451371571072,0.008017271342588813,
0.12224438902743143,0.011917921041696335,
0.12229426433915212,0.02727754233724389,
0.12234413965087282,0.01828997011810556,
0.12239401496259351,0.03529199798965685,
0.12244389027431421,0.004401086566336081,
0.12249376558603492,0.038853420540271376,
0.12254364089775562,0.01575610278461475,
0.12259351620947631,0.028769339199307957,
0.122643391521197,0.008764630730072904,
0.1226932668329177,0.0337873131926892,
0.1227431421446384,0.04466985721259238,
0.12279301745635911,0.02194609662502079,
0.1228428927680798,0.019092137451947634,
0.1228927680798005,0.004657117035512522,
0.1229426433915212,0.01317860519683051,
0.12299251870324189,0.021813440708329624,
0.1230423940149626,-0.008548899982907242,
0.1230922693266833,0.002532889513507759,
0.12314214463840399,0.02816017627395171,
0.12319201995012469,0.03922227641675333,
0.12324189526184538,0.019923685455694187,
0.12329177057356608,-0.012448638587843567,
0.12334164588528679,-0.00018381260702424532,
0.12339152119700748,0.03292127056784438,
0.12344139650872818,0.016369689668735997,
0.12349127182044888,0.0008625522818065737,
0.12354114713216957,-0.0010560102021325325,
0.12359102244389028,0.0003925753564908551,
0.12364089775561098,0.00042176495552266775,
0.12369077306733167,0.001923200685804434,
0.12374064837905237,-0.03042946731129804,
0.12379052369077306,0.001589064419163063,
0.12384039900249376,0.012607088174478151,
0.12389027431421447,0.002225528559701531,
0.12394014962593516,0.015482850553097224,
0.12399002493765586,0.014689146125242799,
0.12403990024937656,0.024014196358560766,
0.12408977556109725,-0.01544032104790458,
0.12413965087281796,-0.004337849628850069,
0.12418952618453866,0.004648325881614927,
0.12423940149625935,-0.004575244142037823,
0.12428927680798005,0.01633015632727216,
0.12433915211970074,0.00957462831668475,
0.12438902743142144,-0.010340910204112697,
0.12443890274314215,0.02338653568624367,
0.12448877805486284,0.01057885075719487,
0.12453865336658354,-0.005002406806342412,
0.12458852867830424,-0.01991466158000496,
0.12463840399002493,-0.012373284365255529,
0.12468827930174564,0.0009452680887399485,
0.12473815461346634,0.019741637076854494,
0.12478802992518703,-0.017787983906267027,
0.12483790523690773,-0.002988746033220099,
0.12488778054862842,-0.003890468049610518,
0.12493765586034913,-0.00860683752452664,
0.12498753117206983,0.011931529583253511,
0.12503740648379053,-0.018307758939852866,
0.12508728179551123,0.025059279103747847,
0.12513715710723192,0.027440192302932973,
0.12518703241895263,-0.029124701007789,
0.1252369077306733,0.0009870556099537996,
0.12528678304239402,0.01858597277923444,
0.1253366583541147,0.007065124885953519,
0.1253865336658354,0.018097078017321615,
0.12543640897755612,-0.011398450554233802,
0.1254862842892768,-0.0031667448985888604,
0.1255361596009975,-0.002846370345951429,
0.1255860349127182,0.008430797752690743,
0.1256359102244389,-0.010234571325242496,
0.1256857855361596,-0.0321919142868379,
0.1257356608478803,0.0023583201510069245,
0.125785536159601,0.01415536634392175,
0.12583541147132168,-0.009424405961560559,
0.1258852867830424,-0.005089641092988321,
0.1259351620947631,0.006949050566074212,
0.12598503740648379,-0.02366165519125977,
0.1260349127182045,-0.018912031658474337,
0.12608478802992518,0.014090606370865988,
0.1261346633416459,-0.0008255870469363043,
0.1261845386533666,0.015311194928127657,
0.12623441396508728,0.009277925549688782,
0.126284289276808,-0.015224949850673058,
0.12633416458852867,-0.028230039087427702,
0.12638403990024938,-0.02102312793275321,
0.1264339152119701,-0.001078484679334954,
0.12648379052369077,-0.00670261913256563,
0.12653366583541148,0.013712612383362445,
0.12658354114713216,-0.003377663782039808,
0.12663341645885287,-0.013308230625255074,
0.12668329177057355,-0.011549470868831825,
0.12673316708229426,0.015127374837725312,
0.12678304239401497,-0.0005386273686487815,
0.12683291770573565,-0.02518073585509544,
0.12688279301745636,0.0009383506475955511,
0.12693266832917705,-0.01873320921708071,
0.12698254364089775,0.0019210538629389502,
0.12703241895261846,0.01824496369060381,
0.12708229426433915,-0.005662183122475769,
0.12713216957605986,0.03265486633879834,
0.12718204488778054,-0.0010744143220741886,
0.12723192019950125,-0.003075744941864211,
0.12728179551122196,-0.00910668399776658,
0.12733167082294264,-0.021146021902863195,
0.12738154613466335,-0.029076298218204396,
0.12743142144638403,-0.02521057225806961,
0.12748129675810474,-0.02367879114768988,
0.12753117206982545,-0.006922638056832575,
0.12758104738154613,-0.012683835245359753,
0.12763092269326684,0.002567949918544291,
0.12768079800498752,-0.0027674829508913066,
0.12773067331670823,-0.01431780027084572,
0.1277805486284289,0.01407085738649231,
0.12783042394014962,-0.003318611716045309,
0.12788029925187033,-0.02498446454838359,
0.12793017456359101,-0.031141928673275865,
0.12798004987531172,-0.016507893347208508,
0.1280299251870324,-0.017281857258498998,
0.12807980049875312,0.0072419903837777026,
0.12812967581047383,0.004098961149329236,
0.1281795511221945,-0.014685988167947448,
0.12822942643391522,-0.012812278861151188,
0.1282793017456359,-0.003435811909747957,
0.1283291770573566,-0.0038406562036983876,
0.12837905236907732,0.0017473253028698135,
0.128428927680798,-0.025701853650232812,
0.1284788029925187,-0.02721438618343343,
0.1285286783042394,-0.017750261406072793,
0.1285785536159601,0.0010856608933577285,
0.1286284289276808,-0.04461874019323984,
0.1286783042394015,-0.004348834799027368,
0.1287281795511222,-0.018969804969699237,
0.12877805486284288,-0.0021647862748390544,
0.1288279301745636,-0.029835538139632353,
0.1288778054862843,-0.008823645521267425,
0.12892768079800498,0.002296126287872539,
0.1289775561097257,-0.012055533673038282,
0.12902743142144638,-0.009741303998770474,
0.12907730673316709,-0.006827586540022577,
0.12912718204488777,-0.000484808088473147,
0.12917705735660848,-0.004064501920999991,
0.1292269326683292,-0.007236843238690905,
0.12927680798004987,0.0030853654291824392,
0.12932668329177058,-0.0177340438135779,
0.12937655860349126,-0.013328737690077648,
0.12942643391521197,-0.007584500481778567,
0.12947630922693268,-0.00380564074058404,
0.12952618453865336,-0.0038172354039465953,
0.12957605985037407,-0.03690591970695051,
0.12962593516209475,-0.019161367173114705,
0.12967581047381546,-0.00636787630257938,
0.12972568578553617,-0.011478510445646496,
0.12977556109725685,-0.002595143550860786,
0.12982543640897756,0.0022415147900033804,
0.12987531172069824,-0.00028817748066554266,
0.12992518703241895,-0.011126225349040503,
0.12997506234413966,0.013672039329140366,
0.13002493765586035,-0.0376762292107166,
0.13007481296758105,-0.008773732722845587,
0.13012468827930174,0.007179059313397329,
0.13017456359102245,-0.012662157674812506,
0.13022443890274316,-0.011900098163419665,
0.13027431421446384,-0.017176958641361432,
0.13032418952618455,-0.0016714694752122125,
0.13037406483790523,-0.0024481767210832103,
0.13042394014962594,0.008133733131522193,
0.13047381546134662,-0.026644296833571952,
0.13052369077306733,-0.008899908172726949,
0.13057356608478804,-0.03122926045572464,
0.13062344139650872,-0.005657438884239997,
0.13067331670822943,0.004192154506444758,
0.1307231920199501,-0.0062648801306664,
0.13077306733167082,-0.01028638323742506,
0.13082294264339153,0.0044759644412119305,
0.13087281795511221,-0.029997898180152516,
0.13092269326683292,0.019534584172030772,
0.1309725685785536,-0.026052854331510285,
0.13102244389027431,0.008325479889154469,
0.13107231920199502,-0.003517638724153783,
0.1311221945137157,-0.04385429507822259,
0.13117206982543642,-0.012236255609017236,
0.1312219451371571,-0.01916517933000062,
0.1312718204488778,-0.04394338365229215,
0.13132169576059852,-0.013992409431491448,
0.1313715710723192,-0.0023021306565522695,
0.1314214463840399,-0.004326550024668074,
0.1314713216957606,0.011933829723817343,
0.1315211970074813,-0.003114088337872411,
0.13157107231920198,-0.010093820438638738,
0.1316209476309227,0.0020590687727620616,
0.1316708229426434,-0.008815316910369648,
0.13172069825436408,-0.0066736658389510255,
0.1317705735660848,-0.009330095512308914,
0.13182044887780547,-0.013669303949893699,
0.13187032418952618,0.023455366891918676,
0.1319201995012469,-0.011185154099598815,
0.13197007481296757,-0.0036879352937299976,
0.13201995012468828,-0.020091747759669112,
0.13206982543640897,-0.005015356184359625,
0.13211970074812968,-0.006761775536032012,
0.13216957605985039,-0.029825221790492774,
0.13221945137157107,-0.025411101473824912,
0.13226932668329178,0.004189842433096355,
0.13231920199501246,-0.03338427454558072,
0.13236907730673317,-0.013089746374868915,
0.13241895261845388,0.020528583277061998,
0.13246882793017456,-0.004183063425717031,
0.13251870324189527,0.022690941203743004,
0.13256857855361595,-0.034380694594444476,
0.13261845386533666,0.0058053798264125454,
0.13266832917705737,-0.02840271245952578,
0.13271820448877805,0.01712872355835196,
0.13276807980049876,0.029518729689309603,
0.13281795511221944,-0.011574106017131939,
0.13286783042394015,-0.0227905369404812,
0.13291770573566083,-0.000685835326957162,
0.13296758104738154,-0.004986021572113427,
0.13301745635910225,0.006474683471717068,
0.13306733167082294,0.0053373872532938875,
0.13311720698254365,0.001506137792953115,
0.13316708229426433,0.0162971898414043,
0.13321695760598504,0.02165667877822357,
0.13326683291770575,-0.00161937658675279,
0.13331670822942643,0.01751363928194619,
0.13336658354114714,0.0060183798142996086,
0.13341645885286782,-0.01189750910549182,
0.13346633416458853,-0.003199338269549366,
0.13351620947630924,-0.0008507934854533614,
0.13356608478802992,-0.013518163143951921,
0.13361596009975063,0.030109367174147295,
0.1336658354114713,0.028139691236122664,
0.13371571072319202,0.0165750421967098,
0.13376558603491273,0.04504880248311871,
0.1338154613466334,0.008356944623606142,
0.13386533665835412,0.0037495948518816184,
0.1339152119700748,-0.018503722786232073,
0.13396508728179551,0.011902767553612522,
0.1340149625935162,0.006845869007182124,
0.1340648379052369,0.026030544876825268,
0.13411471321695762,0.023851512247147984,
0.1341645885286783,0.0256071134949485,
0.134214463840399,0.005190380099076427,
0.1342643391521197,-0.009070835868757912,
0.1343142144638404,0.00879186383628021,
0.1343640897755611,0.023301185586393318,
0.1344139650872818,0.013052646980803325,
0.1344638403990025,0.02133157960909252,
0.13451371571072318,0.041509313515102654,
0.1345635910224439,0.008886255571013283,
0.1346134663341646,0.04972877639287879,
0.13466334164588528,-3.584820592534947e-05,
0.134713216957606,0.022531713484618063,
0.13476309226932667,0.004951521169893877,
0.13481296758104738,0.012500272231929982,
0.1348628428927681,0.041286414920033654,
0.13491271820448877,-0.012513915903733842,
0.13496259351620948,0.015850290681734283,
0.13501246882793017,0.01973014857954241,
0.13506234413965088,-0.010385522840646463,
0.13511221945137158,0.018222594844686343,
0.13516209476309227,0.05095393967042915,
0.13521197007481298,0.023769156292738253,
0.13526184538653366,0.037050722206586936,
0.13531172069825437,0.0034546317012784586,
0.13536159600997505,0.017557926096573934,
0.13541147132169576,0.017461661494979994,
0.13546134663341647,0.01792555220561148,
0.13551122194513715,0.020235994011755094,
0.13556109725685786,0.013962796845746769,
0.13561097256857854,-0.004440920206306265,
0.13566084788029925,0.0357076189550128,
0.13571072319201996,0.03354890869204044,
0.13576059850374064,0.017606569016363992,
0.13581047381546135,0.03124843809040271,
0.13586034912718203,0.009902288134641477,
0.13591022443890274,0.05076879074961707,
0.13596009975062345,0.02393548568861229,
0.13600997506234414,0.034153087783148385,
0.13605985037406484,0.008824527373583196,
0.13610972568578553,0.028242604748688525,
0.13615960099750624,0.02155021118710137,
0.13620947630922695,0.03130335682630888,
0.13625935162094763,0.03798286277191194,
0.13630922693266834,0.04824209741248182,
0.13635910224438902,0.039193057118065054,
0.13640897755610973,0.044786609509935967,
0.1364588528678304,0.018802002345776024,
0.13650872817955112,0.016498030049643175,
0.13655860349127183,0.02884624316086701,
0.1366084788029925,0.06504658329703646,
0.13665835411471322,0.023822683836774192,
0.1367082294264339,0.018525510364937214,
0.1367581047381546,0.013078670739195112,
0.13680798004987532,0.017809073040167586,
0.136857855361596,0.01690885765425596,
0.1369077306733167,0.037084241019829496,
0.1369576059850374,0.024678900284733428,
0.1370074812967581,0.003232113641104272,
0.13705735660847881,0.04319897110731183,
0.1371072319201995,0.02260712709612097,
0.1371571072319202,0.003834014216332473,
0.1372069825436409,0.047221340403357806,
0.1372568578553616,0.028547435928572684,
0.1373067331670823,0.03656026518775431,
0.137356608478803,0.02319255499395821,
0.1374064837905237,0.017334938397028314,
0.13745635910224438,0.02884496827136744,
0.1375062344139651,0.012999871255755982,
0.1375561097256858,0.010690766489983194,
0.13760598503740648,0.054629035001983337,
0.1376558603491272,0.03556924205139625,
0.13770573566084787,0.0473601646295546,
0.13775561097256858,0.042324371722614454,
0.13780548628428926,0.02942075003411757,
0.13785536159600997,0.03144804225852311,
0.13790523690773068,0.04411312295030212,
0.13795511221945136,0.04640231030653759,
0.13800498753117207,-0.0008864630961529507,
0.13805486284289276,0.047320360750418455,
0.13810473815461347,0.017679274626880973,
0.13815461346633418,0.011862849391912351,
0.13820448877805486,0.015945860119143822,
0.13825436408977557,0.00742096145259,
0.13830423940149625,0.04453382327820128,
0.13835411471321696,0.025396195730228267,
0.13840399002493767,0.02769326413632599,
0.13845386533665835,0.02696292058457053,
0.13850374064837906,0.022609968157442723,
0.13855361596009974,0.05253533410646677,
0.13860349127182045,0.05048755916336203,
0.13865336658354116,-0.008820923631232516,
0.13870324189526184,0.04737000291231371,
0.13875311720698255,0.05822184721074204,
0.13880299251870323,0.03693190543579958,
0.13885286783042394,0.02950188131423109,
0.13890274314214462,0.025526092784474708,
0.13895261845386533,0.034404206375095725,
0.13900249376558604,0.04487448724404026,
0.13905236907730673,0.010980838049442294,
0.13910224438902744,0.030671094438414905,
0.13915211970074812,0.024183011805389742,
0.13920199501246883,0.02970616405745995,
0.13925187032418954,0.0464171549381321,
0.13930174563591022,0.030593558686492023,
0.13935162094763093,0.015907615310452164,
0.1394014962593516,0.057254903686169756,
0.13945137157107232,0.02684847988400637,
0.13950124688279303,0.03332030383193114,
0.1395511221945137,0.03196024453629733,
0.13960099750623442,0.05320937717177083,
0.1396508728179551,0.04404849184306909,
0.1397007481296758,0.014119351002651506,
0.13975062344139652,0.02561016070554438,
0.1398004987531172,0.0524029915642423,
0.1398503740648379,0.02121388079201876,
0.1399002493765586,0.019666070393536107,
0.1399501246882793,0.044712132118404815,
0.14,0.04889908752017122,
0.1400498753117207,0.03512630551518007,
0.1400997506234414,0.009885775581406648,
0.1401496259351621,0.008582072977679042,
0.1401995012468828,0.007664066438680565,
0.14024937655860348,0.0374276669589127,
0.1402992518703242,0.018077524881801817,
0.1403491271820449,0.01880411411413707,
0.14039900249376558,0.04814541080263479,
0.1404488778054863,0.01885990746714894,
0.14049875311720697,0.032946914174095274,
0.14054862842892768,0.029293136977687376,
0.1405985037406484,0.05780530516639462,
0.14064837905236907,0.02552236695904142,
0.14069825436408978,0.027618255129614327,
0.14074812967581046,0.01617050580177498,
0.14079800498753117,-0.006047510125557751,
0.14084788029925188,0.03140133252581081,
0.14089775561097256,0.02470438211989143,
0.14094763092269327,0.051597451134623384,
0.14099750623441396,0.005206659696249408,
0.14104738154613466,-0.0035473232541800223,
0.14109725685785537,0.019244227234630252,
0.14114713216957606,0.01405012895572992,
0.14119700748129677,0.0445435107295981,
0.14124688279301745,0.022230221193064965,
0.14129675810473816,0.03055069591203578,
