time,amplitude,label
0.0,0.0026485026565703333,
4.987531172069826e-05,-0.022564143396000706,
9.975062344139652e-05,-0.028959866101960406,
0.00014962593516209475,-0.020403910564052625,
0.00019950124688279303,-0.022467780043570265,
0.00024937655860349125,-0.0282250121584443,
0.0002992518703241895,-0.051446849566101016,
0.00034912718204488776,0.002823714002705025,
0.00039900249376558606,-0.002080826438398157,
0.0004488778054862843,-0.010472513626229085,
0.0004987531172069825,-0.0003037718421694813,
0.0005486284289276808,-0.008213870730879631,
0.000598503740648379,-0.01323533414830088,
0.0006483790523690773,-0.010057513770960713,
0.0006982543640897755,-0.024208597284889395,
0.0007481296758104738,-0.010180223826943079,
0.0007980049875311721,-0.016269974731801105,
0.0008478802992518703,0.0073007193977314665,
0.0008977556109725686,-0.018257055497080395,
0.0009476309226932668,-0.0060020456443134005,
0.000997506234413965,0.01545072970595351,
0.0010473815461346633,-0.012897410542514772,
0.0010972568578553616,-0.03563796892920167,
0.00114713216957606,-0.0160801662915877,
0.001197007481296758,0.0028495183598897696,
0.0012468827930174563,-0.010832328155770838,
0.0012967581047381546,-0.03357964430773955,
0.001346633416458853,-0.04889329845876364,
0.001396508728179551,-0.003649020187196131,
0.0014463840399002493,-0.010705319860573105,
0.0014962593516209476,-0.009345132381020298,
0.001546134663341646,-0.0016789340612659211,
0.0015960099750623442,-0.01852193915986375,
0.0016458852867830423,-0.003904051893857309,
0.0016957605985037406,-0.008160164505241577,
0.001745635910224439,-0.0018288212823403417,
0.0017955112219451373,-0.005014676772679144,
0.0018453865336658353,-0.020911427799056026,
0.0018952618453865336,-0.023158467107374375,
0.001945137157107232,-0.004803173226721748,
0.00199501246882793,-0.025725015214639557,
0.0020448877805486283,-0.022945215736644008,
0.0020947630922693266,-0.011449263034659513,
0.002144638403990025,-0.005368408161339176,
0.0021945137157107233,-0.017977029418929147,
0.0022443890274314216,-0.015445439209315848,
0.00229426433915212,0.010350983973118101,
0.0023441396508728177,0.009731638171354848,
0.002394014962593516,0.0024243315539259893,
0.0024438902743142144,-0.008201431362479653,
0.0024937655860349127,-0.010118458974768919,
0.002543640897755611,0.008824750778984113,
0.0025935162094763093,-0.006868809421065292,
0.0026433915211970076,-0.025068398060376095,
0.002693266832917706,-0.011531371025140041,
0.002743142144638404,-0.010468373522326246,
0.002793017456359102,-0.03488594825259055,
0.0028428927680798004,-0.04036130898751415,
0.0028927680798004987,0.009295791200729016,
0.002942643391521197,0.005259369031340517,
0.0029925187032418953,-0.022299872337268233,
0.0030423940149625936,0.010696349967406517,
0.003092269326683292,-0.010831921450404697,
0.00314214463840399,-0.005036918216418732,
0.0031920199501246885,-0.0055105100965596385,
0.0032418952618453864,0.0018273149773598758,
0.0032917705735660847,-0.00547028780304245,
0.003341645885286783,-0.001415748481936319,
0.0033915211970074813,0.01684343548574475,
0.0034413965087281796,-0.01605091166784105,
0.003491271820448878,0.005008747138836941,
0.003541147132169576,-0.017317394151727436,
0.0035910224438902745,0.024130236510221625,
0.0036408977556109724,-0.0005997039172723317,
0.0036907730673316707,0.0035851228239691946,
0.003740648379052369,0.010027177747789646,
0.0037905236907730673,0.02075526657813685,
0.0038403990024937656,-0.00840536390553042,
0.003890274314214464,0.012654690242115539,
0.003940149625935162,0.024293666263409598,
0.00399002493765586,0.02857620734785705,
0.004039900249376558,-0.021607819508805515,
0.004089775561097257,0.024804071316752677,
0.004139650872817955,-0.0028923110406326316,
0.004189526184538653,0.013687587644677222,
0.004239401496259352,-0.007885927871386478,
0.00428927680798005,0.0030934494551239297,
0.004339152119700748,0.008930478462015211,
0.0043890274314214465,-0.00794700995767811,
0.004438902743142145,0.055914697573291844,
0.004488778054862843,0.015201979206290253,
0.004538653366583541,0.020305532563149053,
0.00458852867830424,-0.00355301969314307,
0.004638403990024938,0.02983254227433812,
0.0046882793017456355,0.007824474601727978,
0.004738154613466334,-0.0002329988367148865,
0.004788029925187032,-0.0030156229009519874,
0.00483790523690773,0.053699674547662044,
0.004887780548628429,0.01045967620106955,
0.004937655860349127,0.010155390740682285,
0.004987531172069825,0.015521564135831108,
0.005037406483790524,-0.003944050507800551,
0.005087281795511222,0.01512567508864806,
0.00513715710723192,-0.03256808556593431,
0.0051870324189526185,0.01486908700747893,
0.005236907730673317,0.0008801717114597617,
0.005286783042394015,0.015393728292986181,
0.0053366583541147134,0.013922784637518396,
0.005386533665835412,0.012916734439785449,
0.00543640897755611,0.03703414111210397,
0.005486284289276808,0.047527815329197226,
0.005536159600997507,0.022745217964577277,
0.005586034912718204,-0.006566294569438195,
0.005635910224438902,0.03013428795161327,
0.005685785536159601,0.015755271463903042,
0.005735660847880299,0.005521436557077361,
0.005785536159600997,0.034943863665579986,
0.005835411471321696,-0.008177027918114971,
0.005885286783042394,0.00749068354209616,
0.005935162094763092,-3.6296917485684546e-05,
0.0059850374064837905,0.018199893925614302,
0.006034912718204489,0.01783311502475171,
0.006084788029925187,0.036610049445277265,
0.0061346633416458855,0.026840581875410156,
0.006184538653366584,0.012661569134253611,
0.006234413965087282,0.018198724690895618,
0.00628428927680798,0.0382913417038338,
0.006334164588528679,-0.00407823174194491,
0.006384039900249377,0.016337727916109695,
0.006433915211970074,0.026069719367793717,
0.006483790523690773,0.024621195738834332,
0.006533665835411471,0.021840255524121097,
0.006583541147132169,0.021760554228193882,
0.006633416458852868,0.02293587854198724,
0.006683291770573566,0.01909525802565509,
0.006733167082294264,0.006032736583052133,
0.0067830423940149626,0.0207274036023774,
0.006832917705735661,0.004242674229752651,
0.006882793017456359,0.0074865655565205975,
0.0069326683291770575,0.0026949849330264904,
0.006982543640897756,0.025609146231440876,
0.007032418952618454,0.022744278403349454,
0.007082294264339152,0.016134808763611518,
0.007132169576059851,0.04678406544832055,
0.007182044887780549,0.02064168997556977,
0.007231920199501247,-0.003776636510377445,
0.007281795511221945,0.01883764666635594,
0.007331670822942643,0.030177648136259394,
0.007381546134663341,0.02986415943794831,
0.00743142144638404,0.04099900646639444,
0.007481296758104738,0.021653842819375275,
0.007531172069825436,0.03140552542184534,
0.007581047381546135,0.028910942105019346,
0.007630922693266833,0.037775579099707454,
0.007680798004987531,0.013551084648228143,
0.0077306733167082295,0.009853168396920485,
0.007780548628428928,0.012790552306459767,
0.007830423940149626,0.03576186305928729,
0.007880299251870324,0.029395610635292176,
0.007930174563591023,0.008811440927016799,
0.00798004987531172,0.039527630030626044,
0.00802992518703242,0.024253387979451833,
0.008079800498753117,0.010001341797203097,
0.008129675810473816,0.020606780185197793,
0.008179551122194513,-0.006912729906726037,
0.008229426433915213,0.0204873026021862,
0.00827930174563591,0.03109025865952858,
0.00832917705735661,0.02111956133835656,
0.008379052369077307,-0.008139899519132847,
0.008428927680798006,-0.005692903070440746,
0.008478802992518703,0.005636263545950157,
0.0085286783042394,0.023229431950982926,
0.0085785536159601,0.02910575290319535,
0.008628428927680797,-0.0001510479660664782,
0.008678304239401496,0.0226035506977901,
0.008728179551122194,0.013098856665277204,
0.008778054862842893,0.009198644222618846,
0.00882793017456359,0.05211234554106134,
0.00887780548628429,0.005610775193204602,
0.008927680798004987,0.03748520559543998,
0.008977556109725686,-0.009279954207131392,
0.009027431421446384,0.011711545840578546,
0.009077306733167083,-0.0073299739165519975,
0.00912718204488778,-0.012896171454614726,
0.00917705735660848,0.03338693957691061,
0.009226932668329177,0.024380872781780437,
0.009276807980049876,0.030778537917092764,
0.009326683291770574,0.021775631286622656,
0.009376558603491271,0.004981565590015131,
0.00942643391521197,0.019525040124981144,
0.009476309226932668,0.014203490179928946,
0.009526184538653367,0.0551748556526509,
0.009576059850374064,0.018226374599070908,
0.009625935162094763,0.00829488854412437,
0.00967581047381546,0.0449356699969542,
0.00972568578553616,0.02624731960692652,
0.009775561097256857,0.03343675156687258,
0.009825436408977557,0.020575209085780165,
0.009875311720698254,0.031479390359389535,
0.009925187032418953,-0.0025310113581832293,
0.00997506234413965,0.014932798119216833,
0.01002493765586035,0.033189162624838016,
0.010074812967581047,0.029193624075601447,
0.010124688279301746,-0.0012511941893616173,
0.010174563591022444,-0.00037272628115057535,
0.010224438902743141,-0.009413934643500342,
0.01027431421446384,0.01598198431970658,
0.010324189526184538,0.001438249319026301,
0.010374064837905237,0.02637157520562628,
0.010423940149625935,-0.005817716434539388,
0.010473815461346634,0.018527111580603942,
0.010523690773067331,0.02367726461746228,
0.01057356608478803,0.0016154198056823003,
0.010623441396508728,0.01721114752115318,
0.010673316708229427,0.017231495312526525,
0.010723192019950124,0.008659418024930964,
0.010773067331670824,0.01669327389759617,
0.010822942643391521,-0.007720034967027297,
0.01087281795511222,0.02366512021663992,
0.010922693266832918,0.011380592896318865,
0.010972568578553617,0.04005756144930472,
0.011022443890274314,0.02224692768948027,
0.011072319201995013,0.017495385673869247,
0.01112219451371571,0.006853114040795599,
0.011172069825436408,0.008939500632813284,
0.011221945137157107,0.029088267356443633,
0.011271820448877805,0.03399917101228883,
0.011321695760598504,0.02982392090410517,
0.011371571072319201,0.01694038297584535,
0.0114214463840399,0.038226924646399305,
0.011471321695760598,0.0016492504915245187,
0.011521197007481297,-0.0031363937582661195,
0.011571072319201995,0.021812781079917673,
0.011620947630922694,-0.006739042212811193,
0.011670822942643391,0.01286424922225265,
0.01172069825436409,0.02627009255832812,
0.011770573566084788,0.032992279376580246,
0.011820448877805487,0.017530098654136107,
0.011870324189526184,-0.0011817599934021948,
0.011920199501246884,0.03413704285924622,
0.011970074812967581,0.007942963970445516,
0.012019950124688279,0.020556779975475913,
0.012069825436408978,0.009568002031007156,
0.012119700748129675,0.014035085031691975,
0.012169576059850374,-0.0006735803613026788,
0.012219451371571072,-0.00044682586127453745,
0.012269326683291771,0.02076360746784882,
0.012319201995012468,-0.0064179853996619764,
0.012369077306733168,0.006747319479597115,
0.012418952618453865,0.003213807728891024,
0.012468827930174564,0.005319266269480923,
0.012518703241895262,0.010016436500106477,
0.01256857855361596,0.004510337130595673,
0.012618453865336658,0.001231612570417877,
0.012668329177057357,-0.0209908362941887,
0.012718204488778055,0.005901830061868814,
0.012768079800498754,-0.01212479328212214,
0.012817955112219451,0.020410209775527023,
0.012867830423940149,0.01268214791903502,
0.012917705735660848,0.010205221214774466,
0.012967581047381545,-0.005427861162920459,
0.013017456359102245,0.0036274315339921447,
0.013067331670822942,-0.017914538968004892,
0.013117206982543641,0.013590484895615713,
0.013167082294264339,-0.011305986581083713,
0.013216957605985038,-0.021809287142230238,
0.013266832917705735,6.450022423921606e-05,
0.013316708229426434,0.010127103891258926,
0.013366583541147132,-0.017196036018369183,
0.013416458852867831,-0.015472240296250009,
0.013466334164588529,0.016676730157297582,
0.013516209476309228,0.015134751222651758,
0.013566084788029925,-0.014442213299817548,
0.013615960099750624,-0.008914888920777228,
0.013665835411471322,-0.009355958335685755,
0.01371571072319202,0.022482336403298567,
0.013765586034912718,0.030715246819146055,
0.013815461346633416,0.012740156704113548,
0.013865336658354115,-0.010888533475936551,
0.013915211970074812,-0.0010388116869401594,
0.013965087281795512,-0.022980573951298388,
0.014014962593516209,-0.007318053884833722,
0.014064837905236908,0.008158835046515246,
0.014114713216957606,0.007292043071784533,
0.014164588528678305,0.019874598431043958,
0.014214463840399002,0.006950096414912179,
0.014264339152119701,0.012149477369053183,
0.014314214463840399,-0.018578541552260866,
0.014364089775561098,0.009706540404968472,
0.014413965087281795,-0.0021344545938941336,
0.014463840399002495,-0.018500259023861113,
0.014513715710723192,-0.0147622704769693,
0.01456359102244389,0.017123831271908828,
0.014613466334164589,-0.01280616505747012,
0.014663341645885286,0.016270089068316125,
0.014713216957605985,-0.025912651187281675,
0.014763092269326683,-0.028530057961152686,
0.014812967581047382,0.007838158389363989,
0.01486284289276808,0.015773665507920226,
0.014912718204488778,0.005885704276339102,
0.014962593516209476,0.007535376667414537,
0.015012468827930175,-0.020057964631048184,
0.015062344139650873,-0.017960587072349737,
0.015112219451371572,0.014986975647561039,
0.01516209476309227,-0.01658930369471653,
0.015211970074812968,-0.01594209819915399,
0.015261845386533666,-0.027604209454252095,
0.015311720698254365,-0.03363913939162312,
0.015361596009975062,-9.351765654794057e-05,
0.01541147132169576,-0.00791563557828365,
0.015461346633416459,-0.01843462626421595,
0.015511221945137156,-0.016578889354875323,
0.015561097256857856,-0.03172664324515469,
0.015610972568578553,-0.02610304231831019,
0.015660847880299252,-0.014448677964448115,
0.01571072319201995,-0.03545730159563306,
0.015760598503740647,0.00876297950246168,
0.015810473815461346,0.012040073546306537,
0.015860349127182045,0.0028999337077954563,
0.015910224438902745,0.017849742530841397,
0.01596009975062344,-0.030904404245591995,
0.01600997506234414,0.009666694336677469,
0.01605985037406484,-0.015124409300480306,
0.016109725685785538,-0.0324533802490549,
0.016159600997506234,-0.05197506022944,
0.016209476309226933,-0.0032995257823547758,
0.016259351620947632,-0.04274830389340539,
0.016309226932668328,0.0032794227337028664,
0.016359102244389027,-0.02631501215301489,
0.016408977556109726,-0.020917634763567804,
0.016458852867830425,-0.05291197749830308,
0.01650872817955112,-0.000980574350795656,
0.01655860349127182,-0.01812522762199747,
0.01660847880299252,-0.017664221328241827,
0.01665835411471322,-0.004780385230448594,
0.016708229426433914,-0.019087035683106504,
0.016758104738154613,-0.010025977227539598,
0.016807980049875312,-0.004820423574371352,
0.01685785536159601,-0.025309271962274067,
0.016907730673316707,-0.005250147704811806,
0.016957605985037406,-0.0021947492396495686,
0.017007481296758106,-0.03828016220251352,
0.0170573566084788,-0.028917302320740093,
0.0171072319201995,-0.01756193772122895,
0.0171571072319202,0.0078555458363487,
0.0172069825436409,-0.039537187782190744,
0.017256857855361595,-0.022924796356750095,
0.017306733167082294,-0.031109695342345096,
0.017356608478802993,-0.0090028573645538,
0.017406483790523692,-0.02846865234239663,
0.017456359102244388,-0.035728628975145754,
0.017506234413965087,0.0002912966853129764,
0.017556109725685786,-0.03884193645439756,
0.017605985037406485,-0.006376432167451889,
0.01765586034912718,-0.021453668534056003,
0.01770573566084788,-0.012707905485794776,
0.01775561097256858,-0.028416568182468318,
0.01780548628428928,-0.02068862849728807,
0.017855361596009974,-0.035250539821507186,
0.017905236907730673,-0.012150118588785817,
0.017955112219451373,-0.0026517586988947656,
0.018004987531172068,-0.03776966492640313,
0.018054862842892767,-0.027034025285841423,
0.018104738154613467,-0.037920135964851755,
0.018154613466334166,-0.044649980436693375,
0.01820448877805486,-0.011584326333571569,
0.01825436408977556,-0.017704534012422748,
0.01830423940149626,-0.01386016146722998,
0.01835411471321696,-0.0025912090437123295,
0.018403990024937655,-0.012602623457164498,
0.018453865336658354,-0.02370771550543235,
0.018503740648379053,-0.012197579973653673,
0.018553615960099752,-0.022047906435227964,
0.018603491271820448,-0.004919844662997492,
0.018653366583541147,-0.033802127221838514,
0.018703241895261846,-0.005996271423298515,
0.018753117206982542,-0.0282210229265314,
0.01880299251870324,-0.020087165961807693,
0.01885286783042394,-0.03767461997384759,
0.01890274314214464,-0.05441804811618128,
0.018952618453865335,-0.018825008421394004,
0.019002493765586034,-0.021128560681438962,
0.019052369077306733,-0.03059591821272062,
0.019102244389027433,0.004844652154639022,
0.01915211970074813,-0.0344777584688715,
0.019201995012468828,-0.024348709619262485,
0.019251870324189527,-0.0015135494228907358,
0.019301745635910226,-0.02123143749979138,
0.01935162094763092,-0.01909853594260724,
0.01940149625935162,-0.01748396199568337,
0.01945137157107232,-0.017269702499012232,
0.01950124688279302,-0.05047765015764747,
0.019551122194513715,-0.01298810588359824,
0.019600997506234414,-0.016305074628325995,
0.019650872817955113,-0.01985495834429386,
0.01970074812967581,-0.010828274478357835,
0.019750623441396508,-0.044273000182694214,
0.019800498753117207,-0.014861366063947352,
0.019850374064837906,-0.015046418002168655,
0.019900249376558602,-0.004263906759065626,
0.0199501246882793,0.004762200850579875,
0.02,-0.024849698895637953,
0.0200498753117207,-0.010747153927920416,
0.020099750623441395,-0.01700184922930906,
0.020149625935162094,-0.025707076379792602,
0.020199501246882794,-0.03189163624837768,
0.020249376558603493,0.0044371402419389385,
0.02029925187032419,-0.02759612100728869,
0.020349127182044888,-0.007303121988987701,
0.020399002493765587,-0.0005791717669417946,
0.020448877805486283,0.009462836832713149,
0.02049875311720698,0.006280146623933077,
0.02054862842892768,0.005487127476354228,
0.02059850374064838,0.01664703170590005,
0.020648379052369076,0.008226286907595854,
0.020698254364089775,-0.0019790001642052343,
0.020748129675810474,0.0031565526709046287,
0.020798004987531173,-0.005958662161273979,
0.02084788029925187,-0.02236216639610223,
0.020897755610972568,-0.027217616821291597,
0.020947630922693267,-0.028718439607036517,
0.020997506234413967,-0.00563036574471453,
0.021047381546134662,0.002626312740184234,
0.02109725685785536,-0.003959572878481005,
0.02114713216957606,-0.03652744992740588,
0.02119700748129676,-0.018734110991302504,
0.021246882793017455,-0.031360268896988286,
0.021296758104738155,-0.0066192390463045885,
0.021346633416458854,-0.011061436197980943,
0.02139650872817955,-0.009354932201270738,
0.02144638403990025,-0.018491105817936,
0.021496259351620948,-0.019804364801657627,
0.021546134663341647,0.01827663632801218,
0.021596009975062343,-0.03324893085656241,
0.021645885286783042,-0.012408140816210972,
0.02169576059850374,0.007487536769874632,
0.02174563591022444,-0.010935424474149219,
0.021795511221945136,-0.03329856816813363,
0.021845386533665835,-0.018560423633975524,
0.021895261845386534,-0.023867239637774894,
0.021945137157107233,0.002806451939174323,
0.02199501246882793,-0.03093894689971029,
0.02204488778054863,-0.01727767768552105,
0.022094763092269327,0.01577365984294211,
0.022144638403990027,0.0007178666807957359,
0.022194513715710722,-0.0324491549185698,
0.02224438902743142,-0.012305143456716084,
0.02229426433915212,-0.022058529508892817,
0.022344139650872816,-0.04451599035579865,
0.022394014962593516,-0.008596107906753313,
0.022443890274314215,0.006144913424014077,
0.022493765586034914,-0.02498859260592595,
0.02254364089775561,-0.020241451377608376,
0.02259351620947631,0.012627548357760119,
0.022643391521197008,0.01781444887572709,
0.022693266832917707,-0.013543273513438727,
0.022743142144638403,-0.013470898647820966,
0.022793017456359102,0.004496904775010478,
0.0228428927680798,-0.008366886241285626,
0.0228927680798005,0.003246636245729903,
0.022942643391521196,0.004512242210713497,
0.022992518703241895,-0.007321753925057585,
0.023042394014962594,-0.009097185250211316,
0.02309226932668329,0.014854524098613237,
0.02314214463840399,-0.006848582155281427,
0.02319201995012469,-0.01294587188137724,
0.023241895261845388,0.001701395660773007,
0.023291770573566083,0.0008692980439768835,
0.023341645885286783,-0.014623768415594245,
0.02339152119700748,-0.03643766942935924,
0.02344139650872818,0.006083544557219821,
0.023491271820448877,-0.01765211440613945,
0.023541147132169576,-0.031100275966606142,
0.023591022443890275,0.003065310191723625,
0.023640897755610974,0.002577010878840859,
0.02369077306733167,-0.0024414603493104186,
0.02374064837905237,-0.008857242135726808,
0.023790523690773068,0.0011751448473756635,
0.023840399002493767,0.00474407673413884,
0.023890274314214463,0.0069617994657876995,
0.023940149625935162,-0.010606818662044895,
0.02399002493765586,0.005650921943603303,
0.024039900249376557,0.00038058163580571413,
0.024089775561097256,0.011947232816369814,
0.024139650872817955,-0.009044688194503733,
0.024189526184538655,0.009466352031151147,
0.02423940149625935,0.029156921487509688,
0.02428927680798005,0.028640267725160408,
0.02433915211970075,-0.0069824065981059485,
0.024389027431421448,0.008506120996066253,
0.024438902743142144,0.005517824217240397,
0.024488778054862843,0.030861501842725243,
0.024538653366583542,-0.009943160993508594,
0.02458852867830424,0.021892229825865996,
0.024638403990024937,0.01607410338312952,
0.024688279301745636,0.011468274946290095,
0.024738154613466335,0.0017728541124697392,
0.02478802992518703,0.009567036859658503,
0.02483790523690773,-0.0037935477174287514,
0.02488778054862843,0.01683218698401444,
0.02493765586034913,-0.02592712994258213,
0.024987531172069824,0.03920176436662233,
0.025037406483790523,0.02258299981960852,
0.025087281795511222,0.004745998989362595,
0.02513715710723192,0.0032018738696246475,
0.025187032418952617,0.03035446833221511,
0.025236907730673316,-0.0030199428402104735,
0.025286783042394016,0.0047029550947536684,
0.025336658354114715,-0.008005623227259182,
0.02538653366583541,0.02922696356658927,
0.02543640897755611,0.019680290390338064,
0.02548628428927681,-0.01155628573681622,
0.025536159600997508,0.008197193104457993,
0.025586034912718204,0.01536678983848515,
0.025635910224438903,0.016350349915906358,
0.025685785536159602,0.009945766034569434,
0.025735660847880298,0.025999716563013316,
0.025785536159600997,0.0007753325664359659,
0.025835411471321696,0.003975847254149418,
0.025885286783042395,0.02335030350878311,
0.02593516209476309,0.027561240397192936,
0.02598503740648379,-0.005200892080124024,
0.02603491271820449,0.0261694129002097,
0.02608478802992519,0.020698458817175046,
0.026134663341645884,0.00880769814329561,
0.026184538653366583,0.04093524038469791,
0.026234413965087282,0.03105895394499607,
0.02628428927680798,0.012373015223326043,
0.026334164588528677,0.04393966019376487,
0.026384039900249377,0.032872138910877036,
0.026433915211970076,0.01011773365100897,
0.02648379052369077,0.019134421686185923,
0.02653366583541147,0.004375944590900606,
0.02658354114713217,-0.004003273027462638,
0.02663341645885287,0.022823866630592497,
0.026683291770573565,0.03402988475231097,
0.026733167082294264,0.050668774969069366,
0.026783042394014963,0.021523271819773697,
0.026832917705735662,0.009794232725308884,
0.026882793017456358,0.015065068961025833,
0.026932668329177057,-5.284179490840091e-05,
0.026982543640897756,-0.0008895887528035037,
0.027032418952618455,0.01746234829156324,
0.02708229426433915,0.014837902480505899,
0.02713216957605985,0.017023976291222376,
0.02718204488778055,0.017934674335605937,
0.02723192019950125,0.04191242632431143,
0.027281795511221944,0.02054169624954435,
0.027331670822942643,0.02535653749577073,
0.027381546134663343,0.007193776836270255,
0.02743142144638404,0.014163656438930663,
0.027481296758104738,0.0304235354427453,
0.027531172069825437,0.027347705964574726,
0.027581047381546136,0.013654632288872662,
0.02763092269326683,0.0080334120547983,
0.02768079800498753,0.018296793595779064,
0.02773067331670823,0.02606093059807523,
0.02778054862842893,0.03774395788725238,
0.027830423940149625,0.02061156150282969,
0.027880299251870324,0.013721320872793718,
0.027930174563591023,0.01327588672022311,
0.027980049875311722,0.026182386084340762,
0.028029925187032418,0.02428221193502534,
0.028079800498753117,0.030541644580876808,
0.028129675810473816,0.030302061250738668,
0.028179551122194512,0.05125940329660774,
0.02822942643391521,0.03105822535468663,
0.02827930174563591,0.01964094794759191,
0.02832917705735661,0.03200401970340247,
0.028379052369077305,0.01912857379479292,
0.028428927680798004,0.014027241766326061,
0.028478802992518704,0.01505939888788738,
0.028528678304239403,0.018955921114790157,
0.0285785536159601,0.012070114546393408,
0.028628428927680798,0.049322600864175004,
0.028678304239401497,0.010735384899403894,
0.028728179551122196,0.013148425612219341,
0.02877805486284289,0.014757527120024396,
0.02882793017456359,0.03493030831477842,
0.02887780548628429,0.04195950251124577,
0.02892768079800499,0.034851685851275224,
0.028977556109725685,0.03759044521284133,
0.029027431421446384,0.0010133147063363136,
0.029077306733167083,0.02499637708933731,
0.02912718204488778,-0.00148557043772252,
0.029177057356608478,0.021359337362037174,
0.029226932668329177,0.01086167589321208,
0.029276807980049877,0.0026232192430460204,
0.029326683291770572,0.026319307949608243,
0.02937655860349127,0.04030000430463722,
0.02942643391521197,0.013405251296151164,
0.02947630922693267,0.012973167374724832,
0.029526184538653365,0.021434503270070033,
0.029576059850374065,0.023353611125823195,
0.029625935162094764,0.02387967447556803,
0.029675810473815463,-0.0009570447294323763,
0.02972568578553616,0.049612843222792524,
0.029775561097256858,-0.015389699089951268,
0.029825436408977557,0.029472238408202074,
0.029875311720698253,0.03374940417473975,
0.029925187032418952,0.029678045177838886,
0.02997506234413965,0.019790732623992915,
0.03002493765586035,0.033975651741797855,
0.030074812967581046,0.01866725619810521,
0.030124688279301745,-0.007095652569814131,
0.030174563591022444,0.011281301759376658,
0.030224438902743143,0.01970901526350663,
0.03027431421446384,0.017448405626878254,
0.03032418952618454,-0.019509219112488763,
0.030374064837905237,0.028363721967301865,
0.030423940149625937,0.00030231688300843065,
0.030473815461346632,0.009631764002872679,
0.03052369077306733,0.039521952515323,
0.03057356608478803,0.04538166819933291,
0.03062344139650873,0.029472681265604386,
0.030673316708229426,0.028727123086776104,
0.030723192019950125,0.006173647493192843,
0.030773067331670824,0.0219372545182126,
0.03082294264339152,0.031156023092471893,
0.03087281795511222,0.02791655489259404,
0.030922693266832918,0.015149187660633813,
0.030972568578553617,0.0015498842615456546,
0.031022443890274313,0.022254922804301934,
0.031072319201995012,-0.004021614527850919,
0.03112219451371571,0.02136346558503424,
0.03117206982543641,0.022002279996742643,
0.031221945137157106,0.021422165275949378,
0.03127182044887781,0.019792107263790812,
0.031321695760598504,-0.0003123543066353776,
0.0313715710723192,0.022055299211841108,
0.0314214463840399,0.005543283523348194,
0.0314713216957606,0.016469434537348313,
0.031521197007481294,0.006817086375959917,
0.031571072319202,0.01787038326949842,
0.03162094763092269,0.013011263629510774,
0.03167082294264339,0.04642355225568322,
0.03172069825436409,0.0037708779966839807,
0.03177057356608479,0.01098173933503337,
0.03182044887780549,0.017428811347613128,
0.031870324189526185,0.00545341657822259,
0.03192019950124688,0.03039762463634228,
0.03197007481296758,0.004441126655004488,
0.03201995012468828,0.011726569209840268,
0.032069825436408975,0.014831278781733544,
0.03211970074812968,0.016114517948057495,
0.03216957605985037,0.0006210767719695056,
0.032219451371571076,0.008626378116110228,
0.03226932668329177,-0.005566947025025968,
0.03231920199501247,0.02106061428104159,
0.03236907730673317,0.01621641371224525,
0.032418952618453865,-0.0004916567534186782,
0.03246882793017456,0.02184977885897891,
0.032518703241895264,-0.005728514861698609,
0.03256857855361596,0.01404996382143893,
0.032618453865336655,-0.004931691940917401,
0.03266832917705736,0.025816211990560545,
0.032718204488778053,0.00979284635202353,
0.032768079800498756,0.014836477222966535,
0.03281795511221945,0.024319543068957148,
0.03286783042394015,0.012903283240383291,
0.03291770573566085,0.0164089200038601,
0.032967581047381546,0.005000379538349057,
0.03301745635910224,-0.000277797467122122,
0.033067331670822944,0.034072210419848314,
0.03311720698254364,-0.0053086638093059225,
0.03316708229426434,-0.02915040697169122,
0.03321695760598504,0.010043089884263357,
0.033266832917705734,-0.014644774457659018,
0.03331670822942644,0.01794052171872465,
0.03336658354114713,0.011326844901992065,
0.03341645885286783,0.012426327134226717,
0.03346633416458853,0.019907952889864168,
0.033516209476309226,-0.020808849365309075,
0.03356608478802992,-0.021496850463755563,
0.033615960099750625,-0.014338104115992647,
0.03366583541147132,0.020426451062513267,
0.03371571072319202,-0.00039144060429899155,
0.03376558603491272,-0.008503864986899232,
0.033815461346633414,-0.015773406215542837,
0.03386533665835412,-0.02933503762506611,
0.03391521197007481,-0.0009676568803499533,
0.03396508728179551,-0.009715608939049769,
0.03401496259351621,-0.006488082248769249,
0.03406483790523691,-0.016943714688246743,
0.0341147132169576,0.015418594958068629,
0.034164588528678305,-0.017758450543124096,
0.034214463840399,-0.0018099566647283884,
0.034264339152119704,-0.014912750088603512,
0.0343142144638404,-0.02177998343330635,
0.034364089775561095,-0.02917428371980348,
0.0344139650872818,-0.041366751630816906,
0.03446384039900249,0.005714829225001009,
0.03451371571072319,0.010970856490727071,
0.03456359102244389,-0.0020053028428328764,
0.03461346633416459,0.004160960595693614,
0.03466334164588529,-0.012333270224427562,
0.034713216957605986,-0.012825568227263637,
0.03476309226932668,-0.01481375330418172,
0.034812967581047384,0.008798406440863603,
0.03486284289276808,-0.0016151623867050966,
0.034912718204488775,-0.01210774616291112,
0.03496259351620948,-0.0023147581725395027,
0.035012468827930174,0.006592659716241705,
0.03506234413965087,-0.03744027706331403,
0.03511221945137157,-0.028594136582779137,
0.03516209476309227,-0.023801904792806316,
0.03521197007481297,0.030827416467971627,
0.035261845386533666,-0.012315196237204017,
0.03531172069825436,0.00918608190216873,
0.035361596009975065,-0.013253871052328735,
0.03541147132169576,-0.014456701462942256,
0.035461346633416456,-0.01768613315281114,
0.03551122194513716,0.007834585857969133,
0.035561097256857854,-0.0016016604390104005,
0.03561097256857856,-0.016357739436625197,
0.03566084788029925,-0.008809875572980517,
0.03571072319201995,0.002027705221414244,
0.03576059850374065,-0.004419137641964071,
0.03581047381546135,0.019535322410377833,
0.03586034912718204,-0.030096438178840185,
0.035910224438902745,-0.04149968811435177,
0.03596009975062344,-0.036753202750742536,
0.036009975062344136,-0.03628906980303898,
0.03605985037406484,-0.02861440792199428,
0.036109725685785535,-0.03165699940385537,
0.03615960099750624,-0.01729326155937197,
0.03620947630922693,0.013166034753181158,
0.03625935162094763,-0.011182662476742277,
0.03630922693266833,0.009714271373679601,
0.03635910224438903,-0.009529057579708483,
0.03640897755610972,-0.0057862910024402865,
0.036458852867830426,-0.01553404592302634,
0.03650872817955112,-0.01217616817604049,
0.036558603491271824,-0.014822454730748702,
0.03660847880299252,-0.01373433152280641,
0.036658354114713215,-0.0289466233799539,
0.03670822942643392,-0.03066311442277201,
0.036758104738154614,-0.04457387780824475,
0.03680798004987531,-0.03245303448311278,
0.03685785536159601,0.007158159440844053,
0.03690773067331671,-0.011743010659501276,
0.0369576059850374,-0.022951653845079092,
0.037007481296758106,-0.011480019813777912,
0.0370573566084788,-0.018307906481127862,
0.037107231920199504,-0.0031804905939213143,
0.0371571072319202,-0.03375496945766154,
0.037206982543640896,-0.04108106334627876,
0.0372568578553616,-0.030623031181735375,
0.037306733167082294,-0.010131479580921612,
0.03735660847880299,0.02941856906054732,
0.03740648379052369,-0.017932904960516353,
0.03745635910224439,-0.0252061268427499,
0.037506234413965084,-0.021009734441305574,
0.037556109725685786,-0.02545764240614442,
0.03760598503740648,-0.03355465593998238,
0.037655860349127185,-0.00880256347090894,
0.03770573566084788,-0.009934539467894438,
0.037755610972568576,-0.011613174950950541,
0.03780548628428928,-0.024149581194978988,
0.037855361596009975,-0.03548858496140485,
0.03790523690773067,-0.008159111546061776,
0.03795511221945137,-0.0040993172860899485,
0.03800498753117207,-0.02738320543592518,
0.03805486284289277,-0.020448065473803883,
0.03810473815461347,-0.014470410579926126,
0.03815461346633416,-0.007796640651422807,
0.038204488778054865,-0.03140640909280927,
0.03825436408977556,-0.0060903720618787315,
0.03830423940149626,-0.03509796069854884,
0.03835411471321696,0.0006380643795027736,
0.038403990024937655,-0.023996777153000474,
0.03845386533665835,-0.023478111487257244,
0.03850374064837905,-0.024476532932263134,
0.03855361596009975,-0.007217757426221402,
0.03860349127182045,-0.01778481861782852,
0.03865336658354115,-0.00604732224069284,
0.03870324189526184,-0.006695129738033781,
0.038753117206982546,-6.168726745862593e-05,
0.03880299251870324,-0.030664095030677928,
0.03885286783042394,0.007126579373772722,
0.03890274314214464,-0.012725235159872915,
0.038952618453865336,-0.03381408342465686,
0.03900249376558604,-0.020021270573889798,
0.039052369077306734,-0.0180416517542499,
0.03910224438902743,-0.0075811612106915435,
0.03915211970074813,-0.03585062294044446,
0.03920199501246883,-0.027273369106430946,
0.039251870324189524,-0.024183869556856884,
0.039301745635910226,-0.01312616531354417,
0.03935162094763092,0.006393759519644795,
0.03940149625935162,-0.018708135184779876,
0.03945137157107232,-0.02536648243615832,
0.039501246882793016,-0.02487154532102405,
0.03955112219451372,-0.013263824151745858,
0.039600997506234414,-0.003704539130321996,
0.03965087281795511,0.003287177313963302,
0.03970074812967581,-0.03492518148212598,
0.03975062344139651,-0.04059312719852793,
0.039800498753117204,-0.01156541976051872,
0.03985037406483791,0.0028588949016559798,
0.0399002493765586,-0.03351987461500226,
0.039950124688279305,-0.00789481072803915,
0.04,-0.02636746416294242,
0.0400498753117207,-0.023375871221529718,
0.0400997506234414,-0.028143440250500733,
0.040149625935162095,-0.01076745904929017,
0.04019950124688279,-0.013724026609677017,
0.04024937655860349,-0.004101840449504396,
0.04029925187032419,-0.010823139933531178,
0.040349127182044885,-0.005447603161610144,
0.04039900249376559,0.0047513246027216585,
0.04044887780548628,-0.007099410247420102,
0.040498753117206986,-0.03786943527347551,
0.04054862842892768,-0.005935553717470011,
0.04059850374064838,0.025213201261384523,
0.04064837905236908,-0.020179595472895252,
0.040698254364089775,-0.006868411468983888,
0.04074812967581047,0.009758943421001923,
0.040798004987531174,-0.00066295874874466,
0.04084788029925187,-0.025112240892003132,
0.040897755610972565,-0.0033151076112258784,
0.04094763092269327,-0.007032812492083699,
0.04099750623441396,0.005385985469735691,
0.041047381546134666,-0.009123388160433808,
0.04109725685785536,-0.01095950123850508,
0.04114713216957606,0.01300723624431588,
0.04119700748129676,-0.0044013962287635005,
0.041246882793017456,-0.006378864404965401,
0.04129675810473815,-0.005386368048605224,
0.041346633416458854,0.01818808425889201,
0.04139650872817955,0.006658179708241077,
0.04144638403990025,0.0026993726369344377,
0.04149625935162095,-0.030751088561367233,
0.041546134663341644,0.002526456403956571,
0.04159600997506235,-0.020623589464576063,
0.04164588528678304,0.00746573656835669,
0.04169576059850374,-0.0019110671829637342,
0.04174563591022444,-0.025224712094687372,
0.041795511221945136,-0.014376653333340893,
0.04184538653366583,-0.005088051576575783,
0.041895261845386535,-0.0063542954980998064,
0.04194513715710723,0.020231310896494322,
0.04199501246882793,-0.026443582779961256,
0.04204488778054863,0.009229716524413198,
0.042094763092269324,0.01607823566351943,
0.04214463840399003,-0.022975047064456,
0.04219451371571072,0.001292250100660728,
0.04224438902743142,-0.010274422586848577,
0.04229426433915212,0.013011941768006106,
0.04234413965087282,0.012474648565396242,
0.04239401496259352,-0.003614560605007738,
0.042443890274314215,-0.013527583752115447,
0.04249376558603491,-0.022885668374256245,
0.042543640897755614,-0.015574873388619988,
0.04259351620947631,-0.0030499390934915728,
0.042643391521197005,0.021829613500030168,
0.04269326683291771,-0.008745161149112522,
0.0427431421446384,-0.0039271557526290215,
0.0427930174563591,-0.0002819871633435361,
0.0428428927680798,-0.00618960280817146,
0.0428927680798005,-0.01724376351758005,
0.0429426433915212,0.009364672728557169,
0.042992518703241896,-0.00878264517611758,
0.04304239401496259,-0.004955967584798642,
0.043092269326683294,-0.006489897310013667,
0.04314214463840399,0.02453105030200991,
0.043192019950124685,0.01566040060403853,
0.04324189526184539,0.01384733374805545,
0.043291770573566084,-0.01240884431184644,
0.043341645885286786,-0.00493289230281751,
0.04339152119700748,-0.012157597590130811,
0.04344139650872818,0.019489194903078395,
0.04349127182044888,0.029537325175819775,
0.043541147132169576,-0.008652933403713724,
0.04359102244389027,-0.00013035688385874562,
0.043640897755610975,0.014662619809306372,
0.04369077306733167,-0.024244884028376518,
0.043740648379052366,-0.0072064640676447675,
0.04379052369077307,0.0017369311303670806,
0.043840399002493764,0.0033564730601604027,
0.04389027431421447,0.017244537457530833,
0.04394014962593516,-0.009944974434917445,
0.04399002493765586,0.02165305551782931,
0.04403990024937656,0.003719902111063565,
0.04408977556109726,-0.025691389376779762,
0.04413965087281795,-0.0102351175535786,
0.044189526184538655,0.01563502585421435,
0.04423940149625935,-0.002730854842536226,
0.04428927680798005,-0.00040068697128384755,
0.04433915211970075,-0.010812839580757558,
0.044389027431421445,0.010610855177193778,
0.04443890274314215,-0.013984731119438036,
0.04448877805486284,0.0070138475982214205,
0.04453865336658354,0.009712527575123659,
0.04458852867830424,0.0005153938080198588,
0.04463840399002494,0.004885281924511604,
0.04468827930174563,0.0035049247161820377,
0.044738154613466335,0.026952968663413294,
0.04478802992518703,0.030525218407500727,
0.044837905236907734,0.017114856771638577,
0.04488778054862843,-0.008787518849913575,
0.044937655860349125,0.006518635299544224,
0.04498753117206983,-0.020411769141479772,
0.045037406483790524,-4.741506881415607e-05,
0.04508728179551122,-0.0002163524915014918,
0.04513715710723192,0.007660073525546711,
0.04518703241895262,0.026180117627105197,
0.04523690773067331,-0.014856023559028717,
0.045286783042394016,0.014286107987999135,
0.04533665835411471,0.028261986670749348,
0.045386533665835414,0.006280956092045048,
0.04543640897755611,0.0181603185280171,
0.045486284289276806,0.017435002657985678,
0.04553615960099751,0.022318575165404614,
0.045586034912718204,0.01252752247588154,
0.0456359102244389,0.02288302066769856,
0.0456857855361596,0.022318252331792306,
0.0457356608478803,0.03330191127467365,
0.045785536159601,0.006795620388343757,
0.045835411471321696,0.0008581068822067772,
0.04588528678304239,-0.0002041823270662116,
0.045935162094763095,-0.005599321460372581,
0.04598503740648379,0.0008909410675363334,
0.046034912718204486,0.03543100222638548,
0.04608478802992519,0.028006739443390632,
0.046134663341645885,0.02684150573124696,
0.04618453865336658,0.020627790652704644,
0.04623441396508728,0.009781363338188324,
0.04628428927680798,0.026979989148558543,
0.04633416458852868,0.0019172272766549564,
0.04638403990024938,0.02820798306805454,
0.04643391521197007,0.01199350331622255,
0.046483790523690775,0.016793288389596785,
0.04653366583541147,0.039985925288511075,
0.04658354114713217,0.02646162779113783,
0.04663341645885287,0.04585516128752665,
0.046683291770573565,0.03662930488415171,
0.04673316708229427,0.015059961048897234,
0.04678304239401496,0.01616535221769224,
0.04683291770573566,0.02913281232426356,
0.04688279301745636,0.008175488827437799,
0.04693266832917706,0.015547006531363665,
0.04698254364089775,0.03275146331008924,
0.047032418952618456,0.003221517802471128,
0.04708229426433915,0.019317200280425335,
0.04713216957605985,0.011129760703621589,
0.04718204488778055,0.031978942021997143,
0.047231920199501246,0.03064450677814569,
0.04728179551122195,0.03149333304535107,
0.047331670822942644,0.006592022851419681,
0.04738154613466334,0.02124961964828817,
0.04743142144638404,0.02835611554441348,
0.04748129675810474,0.033487374927694324,
0.047531172069825434,0.009404055477951364,
0.047581047381546136,0.010935734313535384,
0.04763092269326683,-0.01346767868822698,
0.047680798004987535,0.015061987031932178,
0.04773067331670823,0.013726655534274674,
0.047780548628428926,0.03373834755712461,
0.04783042394014963,0.037988965531686056,
0.047880299251870324,0.03086749055929517,
0.04793017456359102,0.016722634284815456,
0.04798004987531172,0.02083708512445386,
0.04802992518703242,-0.0023171301904856105,
0.048079800498753114,0.005254262243653902,
0.04812967581047382,0.01921595566045725,
0.04817955112219451,0.03129849053614245,
0.048229426433915215,0.0019841417974417463,
0.04827930174563591,0.020154770449875438,
0.048329177057356607,0.037083268855719394,
0.04837905236907731,0.021949808515936562,
0.048428927680798005,0.00725059292468154,
0.0484788029925187,0.042475666570691545,
0.0485286783042394,0.024303687115625944,
0.0485785536159601,0.026990529014134453,
0.048628428927680795,0.03197844205484593,
0.0486783042394015,0.03181346150233991,
0.04872817955112219,0.03472179906841423,
0.048778054862842896,0.030359660572553904,
0.04882793017456359,0.047021033860051284,
0.04887780548628429,0.03944094432053011,
0.04892768079800499,0.03654631702974657,
0.048977556109725685,0.01598421577337102,
0.04902743142144638,0.01648158218091505,
0.049077306733167084,0.025758309890175198,
0.04912718204488778,0.023199160794057344,
0.04917705735660848,0.005052265078513168,
0.04922693266832918,0.0430714834978064,
0.04927680798004987,0.03574805245384495,
0.049326683291770576,0.02619905347623079,
0.04937655860349127,0.0075788207739829905,
0.04942643391521197,0.012711987726614627,
0.04947630922693267,0.03195412813501084,
0.049526184538653366,0.012721111739109036,
0.04957605985037406,0.017516361789847355,
0.049625935162094764,0.03276878700131476,
0.04967581047381546,0.0356163422385196,
0.04972568578553616,0.021054240925885873,
0.04977556109725686,0.008141055651477899,
0.049825436408977554,0.038179783728610736,
0.04987531172069826,0.0371719839835853,
0.04992518703241895,0.01617813477889349,
0.04997506234413965,0.01951062128638238,
0.05002493765586035,0.032985700736236453,
0.050074812967581046,0.01570533441190461,
0.05012468827930175,-0.001890580394287602,
0.050174563591022445,0.03485602814700244,
0.05022443890274314,0.022402186237451313,
0.05027431421446384,0.020465936484401707,
0.05032418952618454,0.029655341023166523,
0.050374064837905234,0.024122493721399827,
0.05042394014962594,0.020104794776166515,
0.05047381546134663,0.03241659583454738,
0.05052369077306733,0.004524325864729619,
0.05057356608478803,0.03239616222540545,
0.05062344139650873,0.06004572148647938,
0.05067331670822943,0.013366386511116487,
0.050723192019950125,0.0034497435986130132,
0.05077306733167082,0.03453547973478453,
0.050822942643391524,0.023809994656350197,
0.05087281795511222,0.0035313538703795975,
0.050922693266832915,0.006075401916130891,
0.05097256857855362,0.021872702887396425,
0.05102244389027431,0.023043843309706907,
0.051072319201995016,0.014026294135100412,
0.05112219451371571,0.0035506025772461605,
0.05117206982543641,0.020636531601798885,
0.05122194513715711,0.01585832689024763,
0.051271820448877806,0.01880002217243601,
0.0513216957605985,0.030628209738493815,
0.051371571072319204,0.01877148716231923,
0.0514214463840399,0.018429889667529537,
0.051471321695760595,0.01043109495936911,
0.0515211970074813,0.032682277990950345,
0.051571072319201994,0.016991849837688252,
0.051620947630922696,0.006418958501700857,
0.05167082294264339,0.0075775963133437145,
0.05172069825436409,0.01886387204176514,
0.05177057356608479,0.03477478969030197,
0.051820448877805486,0.023947232940042067,
0.05187032418952618,0.023136726659866342,
0.051920199501246884,0.049885925477784365,
0.05197007481296758,-0.005700379091617221,
0.052019950124688276,-0.011734952981683627,
0.05206982543640898,-0.005501894829175503,
0.052119700748129674,0.03482085310730266,
0.05216957605985038,-0.0015476073789665312,
0.05221945137157107,0.014055660991341572,
0.05226932668329177,-0.01161717485059741,
0.05231920199501247,0.0076927283211005466,
0.05236907730673317,-0.00912035329275536,
0.05241895261845386,0.003517643347667513,
0.052468827930174565,0.011630761337121275,
0.05251870324189526,-0.011977099744430241,
0.05256857855361596,-0.026951505313503755,
0.05261845386533666,-0.0005317288158850006,
0.052668329177057355,0.04797694925906376,
0.05271820448877806,0.013314763740259031,
0.05276807980049875,-0.022263694835365794,
0.05281795511221945,-0.009042791206339225,
0.05286783042394015,0.02304045158832743,
0.05291770573566085,-0.003639723137180367,
0.05296758104738154,-0.007733959247333917,
0.053017456359102245,-0.016295642805885333,
0.05306733167082294,0.008982309657697465,
0.053117206982543644,0.008544159276114169,
0.05316708229426434,0.016049914886000657,
0.053216957605985035,0.0036807520201805554,
0.05326683291770574,0.0084659694481012,
0.053316708229426434,0.0026827687796598084,
0.05336658354114713,0.020960761875934947,
0.05341645885286783,-0.008596603933017508,
0.05346633416458853,-0.013322990953921126,
0.05351620947630923,0.014647553498317164,
0.053566084788029926,0.032486049790289656,
0.05361596009975062,0.011260461166610558,
0.053665835411471324,-0.006226997662745543,
0.05371571072319202,0.013469610266439305,
0.053765586034912716,0.005763318719833086,
0.05381546134663342,0.011955229250907824,
0.053865336658354114,0.026356562074042123,
0.05391521197007481,-0.0074045778510138105,
0.05396508728179551,0.01019568364687279,
0.05401496259351621,-0.008212352189402862,
0.05406483790523691,0.013542098768298302,
0.054114713216957606,0.026714973465799322,
0.0541645885286783,0.006002962598116401,
0.054214463840399005,-0.009737078468726953,
0.0542643391521197,0.01930754472909136,
0.054314214463840396,-0.026956176860689317,
0.0543640897755611,0.00047831008437306476,
0.054413965087281795,0.018055193202473334,
0.0544638403990025,0.012323182784680475,
0.05451371571072319,-0.027100223337577667,
0.05456359102244389,-0.028957226606763312,
0.05461346633416459,-0.006221309298392576,
0.05466334164588529,-0.024136761144556103,
0.05471321695760598,0.002398675802261217,
0.054763092269326685,0.015909908785354525,
0.05481296758104738,-0.004364294134044616,
0.05486284289276808,-0.008073095755645673,
0.05491271820448878,-0.013311849487539267,
0.054962593516209475,-0.023473540183268127,
0.05501246882793018,-0.009297517589146627,
0.05506234413965087,-0.0020024673647706377,
0.05511221945137157,-0.01248304531945222,
0.05516209476309227,0.012366600358524367,
0.05521197007481297,-0.00962137762293513,
0.05526184538653366,-0.012275985464340907,
0.055311720698254366,-0.021446522468254646,
0.05536159600997506,-0.021394542788818763,
0.05541147132169576,0.006902003812893431,
0.05546134663341646,0.01587801432138105,
0.055511221945137156,-0.021007094767080528,
0.05556109725685786,-0.02706585409944645,
0.055610972568578554,-0.01516191081948895,
0.05566084788029925,0.0030038205599586514,
0.05571072319201995,-0.03108609659494881,
0.05576059850374065,-0.019103780127692253,
0.055810473815461344,-0.004001594325077282,
0.055860349127182046,-0.0098752867301669,
0.05591022443890274,-0.00879766901494521,
0.055960099750623445,-0.035099475204483796,
0.05600997506234414,0.0052543360540594705,
0.056059850374064836,-0.014561924936528463,
0.05610972568578554,-0.00230528487440247,
0.056159600997506234,-0.020187444204856027,
0.05620947630922693,-0.00910970355301749,
0.05625935162094763,-0.047969171829668956,
0.05630922693266833,-0.006206451797168607,
0.056359102244389024,0.011477605360023084,
0.05640897755610973,-0.028214562430190403,
0.05645885286783042,-0.007713778575365067,
0.056508728179551125,0.021434189866526242,
0.05655860349127182,-0.0024682274877882143,
0.056608478802992516,-0.045850814538353706,
0.05665835411471322,-0.020939096822180855,
0.056708229426433915,-0.008374415135865638,
0.05675810473815461,-0.03823862977528425,
0.05680798004987531,-0.0048069579522116365,
0.05685785536159601,-0.02368318423147389,
0.05690773067331671,-0.016802617904199645,
0.05695760598503741,-0.017619865010437115,
0.0570074812967581,-0.02573354022743926,
0.057057356608478806,-0.00020311689991553417,
0.0571072319201995,0.018376092520487886,
0.0571571072319202,0.0023981919104825757,
0.0572069825436409,-0.020155463311920536,
0.057256857855361595,-0.021509708956120886,
0.05730673316708229,-0.05289377822098781,
0.057356608478802994,0.0026420726753435854,
0.05740648379052369,0.0026341734145792182,
0.05745635910224439,-0.0224299891999099,
0.05750623441396509,-0.012799317988215611,
0.05755610972568578,-0.016122002652098448,
0.057605985037406486,0.003299810447505486,
0.05765586034912718,-0.0317058884750952,
0.05770573566084788,-0.0199990708565083,
0.05775561097256858,-0.007288601062819963,
0.057805486284289276,-0.018251278096197775,
0.05785536159600998,-0.0008934997056581073,
0.057905236907730674,-0.04279827595801401,
0.05795511221945137,-0.036735540207095345,
0.05800498753117207,-0.03862631214000013,
0.05805486284289277,-0.012431202717232956,
0.058104738154613464,-0.01832724144666844,
0.05815461346633417,-0.003912282020006154,
0.05820448877805486,0.003988825916538808,
0.05825436408977556,0.008109935064849215,
0.05830423940149626,-0.023513974982906978,
0.058354114713216956,-0.011977000934565968,
0.05840399002493766,-0.03163118096994004,
0.058453865336658355,-0.023822268696794845,
0.05850374064837905,-0.004071931655612189,
0.05855361596009975,-0.027304277060601224,
0.05860349127182045,-0.042779774613402335,
0.058653366583541144,-0.033873221447568755,
0.05870324189526185,-0.003925083734331399,
0.05875311720698254,-0.03380670054488278,
0.05880299251870324,0.005535457170476401,
0.05885286783042394,0.017920908062792135,
0.05890274314214464,-0.00021162826304590987,
0.05895261845386534,0.0024255744596177343,
0.059002493765586035,-0.01256942271751217,
0.05905236907730673,-0.021582657113616892,
0.059102244389027433,-0.01233897945143706,
0.05915211970074813,-0.00501890567411695,
0.059201995012468825,-0.025265007702640035,
0.05925187032418953,-0.023639152279928792,
0.05930174563591022,-0.0030950139307184075,
0.059351620947630926,-0.03975584226942433,
0.05940149625935162,-0.022634196611675247,
0.05945137157107232,-0.016069353885432215,
0.05950124688279302,-0.04084359878072383,
0.059551122194513716,0.017681284688295808,
0.05960099750623441,-0.029978412434813966,
0.059650872817955114,0.005527443844099044,
0.05970074812967581,0.0038475558112633576,
0.059750623441396505,-0.0012245992568191422,
0.05980049875311721,-0.03894776008016431,
0.059850374064837904,0.030828639604638584,
0.059900249376558606,-0.001846961940173187,
0.0599501246882793,-0.05339679884278539,
0.06,-0.01827627292137781,
0.0600498753117207,0.0149381823117702,
0.060099750623441396,-0.012505790218986889,
0.06014962593516209,0.03431919688641645,
0.060199501246882794,0.004469597442081422,
0.06024937655860349,-0.0018772188575230473,
0.06029925187032419,-0.0016024767979529522,
0.06034912718204489,-0.031939832675596705,
0.060399002493765584,-0.03918941222516442,
0.06044887780548629,-0.02504923008822254,
0.06049875311720698,-0.0053261746780825835,
0.06054862842892768,-0.001479522547390472,
0.06059850374064838,-0.017042813179768853,
0.06064837905236908,-0.009606062895461969,
0.06069825436408977,0.020866150287300704,
0.060748129675810475,-0.009577550838440727,
0.06079800498753117,-0.016960523053566108,
0.06084788029925187,-0.004955949034519521,
0.06089775561097257,-0.0271746029042697,
0.060947630922693265,-0.0038733134696431765,
0.06099750623441397,-0.008066232914058124,
0.06104738154613466,-0.022224538701640435,
0.06109725685785536,-0.03247616377956305,
0.06114713216957606,-0.013638800718174693,
0.06119700748129676,-0.008166006226861502,
0.06124688279301746,-0.03344917575957461,
0.061296758104738155,-0.01694452666608115,
0.06134663341645885,-0.012916604184467339,
0.061396508728179554,0.002615285497228531,
0.06144638403990025,-0.00351219626310411,
0.061496259351620945,-0.0062377059824298255,
0.06154613466334165,-0.012754728882592953,
0.061596009975062344,0.009197299440911487,
0.06164588528678304,-0.004218885960762177,
0.06169576059850374,-0.02625195028315593,
0.06174563591022444,0.008014483668688809,
0.06179551122194514,-0.0017265364265112988,
0.061845386533665836,0.0037494134622017092,
0.06189526184538653,0.019072591877090792,
0.061945137157107234,0.003042191022234998,
0.06199501246882793,0.01880139197155049,
0.062044887780548626,-0.02811797160912697,
0.06209476309226933,0.009936014365322283,
0.062144638403990024,-0.01053967150241748,
0.06219451371571072,0.021778358301336946,
0.06224438902743142,0.0053253984955665135,
0.06229426433915212,-0.023120907208489253,
0.06234413965087282,0.0010933500340418673,
0.062394014962593516,-0.012797334729590753,
0.06244389027431421,-0.00480600241968664,
0.062493765586034915,0.011751155116429535,
0.06254364089775562,-0.00031218106156888955,
0.06259351620947631,-0.010827961283386785,
0.06264339152119701,-0.019300329105604478,
0.0626932668329177,-0.01018790522775526,
0.0627431421446384,0.020829828420736815,
0.0627930174563591,0.01084575920591716,
0.0628428927680798,0.005335992726962188,
0.0628927680798005,-0.01634371186670179,
0.0629426433915212,0.0034258144422852936,
0.06299251870324189,0.011957215709481198,
0.06304239401496259,-0.02312160244040201,
0.0630922693266833,-0.009253837506917658,
0.063142144638404,-0.011913585246671403,
0.06319201995012469,0.006032661994351157,
0.06324189526184539,-0.00699840638279919,
0.06329177057356608,-0.010621959692041053,
0.06334164588528678,0.009012839904742958,
0.06339152119700749,-0.010779200601494864,
0.06344139650872818,-0.023063797335373025,
0.06349127182044888,-0.014310996753290135,
0.06354114713216957,0.020141528050471817,
0.06359102244389027,0.00750403068498194,
0.06364089775561098,0.0023074779202863303,
0.06369077306733167,0.007081214233658402,
0.06374064837905237,0.013412248645308544,
0.06379052369077307,-0.02264787467934603,
0.06384039900249376,0.02057884666246632,
0.06389027431421446,-0.0069571394452483636,
0.06394014962593517,0.0029576755354337814,
0.06399002493765586,0.013710657574682091,
0.06403990024937656,0.010251673644726678,
0.06408977556109725,0.0001971049951010502,
0.06413965087281795,-0.028212287286721403,
0.06418952618453866,0.00520126129669022,
0.06423940149625935,-0.02133850458473825,
0.06428927680798005,-0.0019469248689205527,
0.06433915211970075,0.032329510964701796,
0.06438902743142144,0.00037619401561165416,
0.06443890274314215,-0.00112576754420525,
0.06448877805486285,-0.006264144794767605,
0.06453865336658354,0.02778523158824971,
0.06458852867830424,0.012287000822818453,
0.06463840399002493,0.014452105311088499,
0.06468827930174563,0.027535716150649953,
0.06473815461346634,0.0371787219492381,
0.06478802992518704,0.014773533703236738,
0.06483790523690773,-0.0032702838664921824,
0.06488778054862843,-0.004636091964170114,
0.06493765586034912,0.026061149284175286,
0.06498753117206983,0.014146252384888527,
0.06503740648379053,0.008761904928905552,
0.06508728179551122,1.4973709576700939e-05,
0.06513715710723192,0.012527612088605679,
0.06518703241895261,-0.007097324671971472,
0.06523690773067331,0.022857684981175574,
0.06528678304239402,-0.0008236471586025723,
0.06533665835411472,0.03997430005694561,
0.06538653366583541,0.015673588742233156,
0.06543640897755611,-0.0010400717117694247,
0.0654862842892768,-0.014812096503906098,
0.06553615960099751,0.02504929175901141,
0.06558603491271821,0.008411379673160026,
0.0656359102244389,0.04459281092814711,
0.0656857855361596,0.020652706271171294,
0.0657356608478803,0.02321780619770524,
0.06578553615960099,-0.009855526771697338,
0.0658354114713217,0.048225587767214556,
0.0658852867830424,0.03320137881896592,
0.06593516209476309,0.026591409194425677,
0.06598503740648379,0.012841601157255016,
0.06603491271820448,0.023336774239912476,
0.06608478802992519,0.025013104349950487,
0.06613466334164589,0.04752751097375687,
0.06618453865336658,0.021130170505139594,
0.06623441396508728,0.04070760559422037,
0.06628428927680798,-0.007840561766151236,
0.06633416458852869,0.025359254133839763,
0.06638403990024938,0.0184631011506075,
0.06643391521197008,0.01906456096402343,
0.06648379052369077,-0.0007662100380456428,
0.06653366583541147,0.06313689492178279,
0.06658354114713216,0.0268921839764511,
0.06663341645885287,-0.0010230693618012952,
0.06668329177057357,0.032440481207660826,
0.06673316708229426,0.006913270108339484,
0.06678304239401496,0.013993650899540246,
0.06683291770573566,0.020128860114242295,
0.06688279301745637,0.021111625267613822,
0.06693266832917706,0.03902732166118811,
0.06698254364089776,0.029243637570304015,
0.06703241895261845,0.01871273619542206,
0.06708229426433915,0.0027774957819234718,
0.06713216957605984,0.023130859113918042,
0.06718204488778055,0.043508228547095094,
0.06723192019950125,0.039761106467122685,
0.06728179551122195,0.032038448259421655,
0.06733167082294264,0.015117855640364865,
0.06738154613466334,0.005258290561367465,
0.06743142144638405,-0.015026348561238231,
0.06748129675810474,0.03578949775779581,
0.06753117206982544,0.040876620519870996,
0.06758104738154613,0.01058840124248032,
0.06763092269326683,0.02773152099278743,
0.06768079800498752,0.005084648893966384,
0.06773067331670823,0.04823181565690985,
0.06778054862842893,0.011017391030916186,
0.06783042394014963,0.025997307865666577,
0.06788029925187032,0.0009546801324209556,
0.06793017456359102,0.011294128762840366,
0.06798004987531173,0.026881960353953155,
0.06802992518703242,0.005767281958255113,
0.06807980049875312,0.0223515421850003,
0.06812967581047381,0.017081055446639452,
0.06817955112219451,0.041913091385513905,
0.0682294264339152,0.03780113121935241,
0.06827930174563591,0.05312824997454065,
0.06832917705735661,0.036786902742257585,
0.0683790523690773,0.029738030666391357,
0.068428927680798,0.04880636580844297,
0.0684788029925187,0.01427938413302979,
0.06852867830423941,0.023261860986297372,
0.0685785536159601,0.020584855270590147,
0.0686284289276808,0.00259108797826358,
0.0686783042394015,0.03589401369742247,
0.06872817955112219,0.023618725940252175,
0.0687780548628429,0.04035660521947959,
0.0688279301745636,0.03019889032055594,
0.06887780548628429,0.012700903699889745,
0.06892768079800499,0.03673168639947087,
0.06897755610972568,0.025497103767910288,
0.06902743142144638,0.019864320693161592,
0.06907730673316709,0.026661896454160658,
0.06912718204488778,0.018306367194468348,
0.06917705735660848,0.012795307319299992,
0.06922693266832917,0.03916417992665169,
0.06927680798004987,0.03554771145890387,
0.06932668329177058,0.022520259168377167,
0.06937655860349128,0.0348554104902242,
0.06942643391521197,-0.0006465735502737477,
0.06947630922693267,0.02688885459697874,
0.06952618453865336,0.0163830442463962,
0.06957605985037406,0.01739276706285697,
0.06962593516209477,0.01754386812719267,
0.06967581047381546,0.008727997885098919,
0.06972568578553616,0.02648461969930939,
0.06977556109725686,0.009582894329118432,
0.06982543640897755,0.027336023061836443,
0.06987531172069826,0.04222842966905006,
0.06992518703241896,0.016039192616705417,
0.06997506234413965,0.02581737831742344,
0.07002493765586035,0.020794990497512912,
0.07007481296758104,0.03524310991597578,
0.07012468827930174,0.020880329628284938,
0.07017456359102245,0.03384293497488857,
0.07022443890274314,0.035148394674524755,
0.07027431421446384,0.013182629508081021,
0.07032418952618454,-0.0034302502869415843,
0.07037406483790523,0.010109767363103827,
0.07042394014962594,0.0165536084049485,
0.07047381546134664,0.027273735573482026,
0.07052369077306733,0.009370324284388543,
0.07057356608478803,0.03922513780434121,
0.07062344139650872,-0.007734438305083871,
0.07067331670822943,0.02350169625410503,
0.07072319201995013,0.020242559217342037,
0.07077306733167082,0.01960907548022059,
0.07082294264339152,0.027193757040160627,
0.07087281795511222,0.026997603087847453,
0.07092269326683291,0.02696918004748812,
0.07097256857855362,0.024496448276829164,
0.07102244389027432,0.04553336319434216,
0.07107231920199501,0.021030096562542167,
0.07112219451371571,-0.006387641154344766,
0.0711720698254364,-0.008572566565096619,
0.07122194513715711,0.020609699234779774,
0.07127182044887781,0.007161616524844858,
0.0713216957605985,0.020049552778989458,
0.0713715710723192,0.016176813844439444,
0.0714214463840399,0.016562131075033234,
0.07147132169576059,0.04601230360861404,
0.0715211970074813,0.012957763875037841,
0.071571072319202,0.00467598307385262,
0.0716209476309227,0.027882498153752416,
0.07167082294264339,0.011268740448484868,
0.07172069825436408,-0.0018030321753772643,
0.0717705735660848,0.019105841613134188,
0.07182044887780549,0.01432569150894318,
0.07187032418952619,-0.005915209609295013,
0.07192019950124688,0.020043040391378927,
0.07197007481296758,0.04097133431365517,
0.07201995012468827,0.03487225740643527,
0.07206982543640898,-0.0071901033210469995,
0.07211970074812968,0.021702733882637174,
0.07216957605985037,-0.005619712611713918,
0.07221945137157107,-0.008182747519501335,
0.07226932668329177,0.012509095390160698,
0.07231920199501247,0.020271644494137472,
0.07236907730673317,0.025577599501984308,
0.07241895261845387,0.014155295355134994,
0.07246882793017456,0.03633869849487133,
0.07251870324189526,0.024903604518558373,
0.07256857855361595,0.008296812445695516,
0.07261845386533666,0.015093618740711207,
0.07266832917705736,-0.013031036738982,
0.07271820448877805,0.012548020818829346,
0.07276807980049875,-0.0074343630003595625,
0.07281795511221945,0.020381015725570578,
0.07286783042394016,0.008098068837941048,
0.07291770573566085,0.027730383332120967,
0.07296758104738155,-0.00020889617256191102,
0.07301745635910224,0.017483809348303143,
0.07306733167082294,-0.00023345955418320116,
0.07311720698254365,-0.007670364791150798,
0.07316708229426434,0.023530405771990462,
0.07321695760598504,0.02521328420299293,
0.07326683291770573,0.012231264646028164,
0.07331670822942643,-0.007629387854216034,
0.07336658354114713,0.02576684556846704,
0.07341645885286784,-0.004238516735796279,
0.07346633416458853,0.033929879460635866,
0.07351620947630923,-0.008961548277678314,
0.07356608478802992,0.0043020442270497415,
0.07361596009975062,-0.004826099480310251,
0.07366583541147133,-0.020469363075937753,
0.07371571072319202,0.011338709021778106,
0.07376558603491272,-0.0025095335969157018,
0.07381546134663342,0.020316808061077545,
0.07386533665835411,-0.008692020158311536,
0.0739152119700748,-0.0030301997654152424,
0.07396508728179552,0.022203988233773123,
0.07401496259351621,0.01537100482699068,
0.07406483790523691,0.014823054296703702,
0.0741147132169576,0.02005739872854448,
0.0741645885286783,0.004838721060722875,
0.07421446384039901,-0.010675660399164986,
0.0742643391521197,0.014147355573217541,
0.0743142144638404,-0.013018522081799305,
0.0743640897755611,-0.028417536766679977,
0.07441396508728179,-0.01794863239583824,
0.07446384039900249,0.0345824361009715,
0.0745137157107232,0.02083880332093843,
0.07456359102244389,-0.006668162727131034,
0.07461346633416459,-0.011394372418537064,
0.07466334164588528,-0.014451345335008532,
0.07471321695760598,0.012683039140328051,
0.07476309226932669,-0.0036521895559320718,
0.07481296758104738,-0.026824172515021238,
0.07486284289276808,0.020835151648131642,
0.07491271820448878,-0.01284744080161674,
0.07496259351620947,0.0052339559147200915,
0.07501246882793017,0.005981954608200476,
0.07506234413965088,-0.00115558468074628,
0.07511221945137157,-0.006738891734704991,
0.07516209476309227,0.024072872932931852,
0.07521197007481296,0.0037394936703672886,
0.07526184538653366,0.007739165211905721,
0.07531172069825437,-0.029156879742068365,
0.07536159600997507,-0.02985310241281095,
0.07541147132169576,-0.021035868682633845,
0.07546134663341646,-0.019085982849589737,
0.07551122194513715,0.018809902851375685,
0.07556109725685786,-0.023816094330109353,
0.07561097256857856,-0.009337029010334067,
0.07566084788029925,-0.025029371543801124,
0.07571072319201995,0.02180770167292265,
0.07576059850374064,-0.017359804431705636,
0.07581047381546134,-0.010769581086694834,
0.07586034912718205,0.003070125064104031,
0.07591022443890275,0.0008524586483769549,
0.07596009975062344,-0.023616183748506887,
0.07600997506234414,-0.01395243575103706,
0.07605985037406483,-0.018606168314732052,
0.07610972568578554,0.0014345670193263663,
0.07615960099750624,-0.014503268843653726,
0.07620947630922693,-0.004643148813703956,
0.07625935162094763,0.018066521279652893,
0.07630922693266833,0.007004599052622958,
0.07635910224438902,-0.0156690961124984,
0.07640897755610973,-0.006766163363671699,
0.07645885286783043,-0.0046126674729443,
0.07650872817955112,-0.011954376318605252,
0.07655860349127182,-0.02938750037058647,
0.07660847880299251,0.011719304404869665,
0.07665835411471322,-0.03738360541358768,
0.07670822942643392,-0.021625608607499548,
0.07675810473815461,-0.027163294190999297,
0.07680798004987531,0.006048139062549033,
0.076857855361596,-0.02401939268275553,
0.0769077306733167,-0.029673209126909513,
0.07695760598503741,-0.023000486989862554,
0.0770074812967581,-0.032569918532517464,
0.0770573566084788,-0.01740689149730758,
0.0771072319201995,0.0055865535857282135,
0.0771571072319202,-0.01538851335143721,
0.0772069825436409,-0.011617207268383929,
0.0772568578553616,0.0006593099230162193,
0.0773067331670823,-0.008984347665781534,
0.07735660847880299,-0.02248712445289583,
0.07740648379052369,-0.015362270622441419,
0.0774563591022444,-0.02857977976480381,
0.07750623441396509,-0.04267264379671369,
0.07755610972568579,-0.022622963151165812,
0.07760598503740648,-0.02812377975171941,
0.07765586034912718,-0.008288115422648148,
0.07770573566084787,-0.031657707902719746,
0.07775561097256858,-0.016846087075393118,
0.07780548628428928,-0.01419007247474005,
0.07785536159600998,-0.0017556316337268545,
0.07790523690773067,-0.02455262699904657,
0.07795511221945137,-0.016945030102712456,
0.07800498753117208,-0.02947817605407013,
0.07805486284289277,-0.035651222640239566,
0.07810473815461347,-0.035385650345204356,
0.07815461346633416,-0.028774562695065346,
0.07820448877805486,-0.018589028876199024,
0.07825436408977555,-0.0046918822536102835,
0.07830423940149626,-0.016225755871394135,
0.07835411471321696,-0.026924547998955668,
0.07840399002493766,-0.009954080467255832,
0.07845386533665835,0.012793233648747614,
0.07850374064837905,-0.017879854330778888,
0.07855361596009976,0.004832738778490556,
0.07860349127182045,-0.01295546218987191,
0.07865336658354115,-0.03210494559971436,
0.07870324189526184,-0.011437055913972038,
0.07875311720698254,-0.008222809627073118,
0.07880299251870324,-0.03228712917265942,
0.07885286783042394,0.03581622451018737,
0.07890274314214464,-0.0029543626006938682,
0.07895261845386534,-0.011202185294921244,
0.07900249376558603,0.008739415354598637,
0.07905236907730673,-0.007380871479361738,
0.07910224438902744,-0.02612350409730376,
0.07915211970074813,-0.012239886343923666,
0.07920199501246883,-0.03576506121575464,
0.07925187032418952,-0.03411543438510474,
0.07930174563591022,-0.008434577090527173,
0.07935162094763092,-0.0024202400115272936,
0.07940149625935163,-0.009575674854690769,
0.07945137157107232,-0.012282990038379772,
0.07950124688279302,-0.011019241697417293,
0.07955112219451371,-0.021746044961809426,
0.07960099750623441,-0.0007552626593809713,
0.07965087281795512,-0.010709102460287157,
0.07970074812967581,-0.007705644585553712,
0.07975062344139651,0.014599060775135592,
0.0798004987531172,-0.01752031039048558,
0.0798503740648379,-0.0030567458516432885,
0.07990024937655861,0.008464423875577944,
0.0799501246882793,-0.012462651640310355,
0.08,-0.0015503111431593285,
0.0800498753117207,-0.027213114738287296,
0.0800997506234414,-0.0077477470570020395,
0.08014962593516209,-0.010762492123176523,
0.0801995012468828,-0.009798020664896219,
0.0802493765586035,-0.0237417988022736,
0.08029925187032419,-0.016077586409207322,
0.08034912718204489,0.007272876584393503,
0.08039900249376558,-0.026114429085578327,
0.08044887780548629,-0.03105257571634,
0.08049875311720699,-0.018122428367747082,
0.08054862842892768,-0.009119665215482558,
0.08059850374064838,-0.008265192778735622,
0.08064837905236907,-0.016547706100112785,
0.08069825436408977,-0.03404347702824034,
0.08074812967581048,-0.004207875069648628,
0.08079800498753117,-0.019757058773931673,
0.08084788029925187,-0.010752539739839058,
0.08089775561097257,0.0032050365425970295,
0.08094763092269326,0.014206382724184008,
0.08099750623441397,-0.011302059449264037,
0.08104738154613467,-0.018102326675826102,
0.08109725685785536,-0.0021058369068766014,
0.08114713216957606,-0.027327369161508692,
0.08119700748129675,-0.0014246650954611037,
0.08124688279301745,0.004275555624854918,
0.08129675810473816,0.01594455348067539,
0.08134663341645886,-0.020640893920213225,
0.08139650872817955,0.00651823665796858,
0.08144638403990025,-0.024041076080365466,
0.08149625935162094,0.008473676940093981,
0.08154613466334165,-0.012950554965685635,
0.08159600997506235,0.011695115148795312,
0.08164588528678304,-0.0007249679819345215,
0.08169576059850374,-0.005075999823473241,
0.08174563591022443,0.003433778788268279,
0.08179551122194513,-0.0034516927027231346,
0.08184538653366584,-0.005912158751719786,
0.08189526184538654,-0.006102899047904588,
0.08194513715710723,0.0012145236840490087,
0.08199501246882793,0.022033531932834253,
0.08204488778054862,-0.0208746277021237,
0.08209476309226933,-0.00420129931592645,
0.08214463840399003,-0.02543514959625816,
0.08219451371571072,-0.018838440771117442,
0.08224438902743142,-0.008805952185543382,
0.08229426433915212,-0.01950276376354198,
0.08234413965087282,0.0027100248898460407,
0.08239401496259352,-0.013015898207764698,
0.08244389027431422,0.007380914807165895,
0.08249376558603491,-0.008898111474993916,
0.08254364089775561,0.024819686653301542,
0.0825935162094763,-0.0010947504316489174,
0.08264339152119701,0.021642964718441203,
0.08269326683291771,-0.0002116615879629365,
0.0827431421446384,0.0016995435983709168,
0.0827930174563591,0.001482429314411178,
0.0828428927680798,-0.02112268486783554,
0.0828927680798005,0.0006332581186619674,
0.0829426433915212,0.011462651828990823,
0.0829925187032419,0.002097694080188006,
0.08304239401496259,-0.027342772166387398,
0.08309226932668329,-0.0014669724869380788,
0.08314214463840398,-0.014518858144125284,
0.0831920199501247,0.010247943199486296,
0.08324189526184539,0.017156245303204865,
0.08329177057356608,-0.022730124900734547,
0.08334164588528678,0.018060919032213435,
0.08339152119700748,-0.005071771344860345,
0.08344139650872819,0.008556211045286618,
0.08349127182044888,-0.0008046858482050716,
0.08354114713216958,0.018044269404191987,
0.08359102244389027,-0.004827545854686888,
0.08364089775561097,-0.005546562904201737,
0.08369077306733166,-0.000178419970779063,
0.08374064837905237,-0.0024621901472715573,
0.08379052369077307,0.004735735372583427,
0.08384039900249377,0.004433504771075832,
0.08389027431421446,0.03576312455716489,
0.08394014962593516,0.005629054867961274,
0.08399002493765587,0.02692409142260278,
0.08403990024937656,0.007642527241064618,
0.08408977556109726,2.4383975253887413e-05,
0.08413965087281795,0.016404133364367676,
0.08418952618453865,-0.0016090948078170304,
0.08423940149625936,-0.0003629765419369303,
0.08428927680798005,-0.00047412934044173405,
0.08433915211970075,0.009287300591792329,
0.08438902743142145,0.023626667383703802,
0.08443890274314214,0.00800202827419166,
0.08448877805486284,0.032146269203810286,
0.08453865336658355,0.0014587108765439973,
0.08458852867830424,0.043248774622785396,
0.08463840399002494,0.0253171111235089,
0.08468827930174563,0.02773029711036031,
0.08473815461346633,-0.01692885203180735,
0.08478802992518704,0.029089905049765476,
0.08483790523690773,0.031023297533305218,
0.08488778054862843,0.0014701614744264194,
0.08493765586034913,1.5067060773732086e-05,
0.08498753117206982,0.018922118099849686,
0.08503740648379052,0.02232936215906218,
0.08508728179551123,0.014931289434744506,
0.08513715710723192,0.012370917274998672,
0.08518703241895262,0.01029988990509401,
0.08523690773067331,0.013257061506681303,
0.08528678304239401,0.02270462790831868,
0.08533665835411472,0.03567374678090411,
0.08538653366583542,0.030904050890198095,
0.08543640897755611,0.02346184548349216,
0.0854862842892768,0.02087306556924221,
0.0855361596009975,0.032655906106916224,
0.0855860349127182,0.010257365350654439,
0.08563591022443891,-0.0074551112787894225,
0.0856857855361596,0.01996636717758565,
0.0857356608478803,0.01934554844620204,
0.085785536159601,0.02755384635594987,
0.08583541147132169,0.042228834255180134,
0.0858852867830424,0.020678695127465785,
0.0859351620947631,-0.0001679813540075327,
0.08598503740648379,0.008259096373499778,
0.08603491271820449,-0.0005434093994121855,
0.08608478802992518,0.07081345316057842,
0.08613466334164588,0.018258070455709617,
0.08618453865336659,0.015690818839082833,
0.08623441396508728,0.011337069193840196,
0.08628428927680798,0.02804182371167271,
0.08633416458852868,0.008583697343107632,
0.08638403990024937,0.03191543561044744,
0.08643391521197008,0.019161482754711037,
0.08648379052369078,0.04990001216879972,
0.08653366583541147,0.03125295600860952,
0.08658354114713217,0.020804963249244232,
0.08663341645885286,0.037163473124601845,
0.08668329177057357,0.000813994284336518,
0.08673316708229427,0.032728736568730314,
0.08678304239401496,0.004691831630878034,
0.08683291770573566,0.00850237001885048,
0.08688279301745636,0.016841091410699244,
0.08693266832917705,0.01177656716073673,
0.08698254364089776,0.009101701106916838,
0.08703241895261846,0.03911221931839767,
0.08708229426433915,0.03724729607151021,
0.08713216957605985,0.02328134132466354,
0.08718204488778054,0.010186589130625326,
0.08723192019950125,0.014741709463965557,
0.08728179551122195,0.016624843817924145,
0.08733167082294264,0.007886927412479948,
0.08738154613466334,0.05265224292645379,
0.08743142144638404,0.005244750519025194,
0.08748129675810473,0.028233146677937988,
0.08753117206982544,0.03633821251741233,
0.08758104738154614,0.0315532888533389,
0.08763092269326683,0.02041724717958632,
0.08768079800498753,0.024585808912323384,
0.08773067331670822,0.0192127242187442,
0.08778054862842893,-0.008336295934757702,
0.08783042394014963,0.010770959195186385,
0.08788029925187033,0.020875528454995892,
0.08793017456359102,0.03015461612368124,
0.08798004987531172,0.009050047433815836,
0.08802992518703241,0.02392229422432472,
0.08807980049875312,0.03448449105937877,
0.08812967581047382,0.01130379278588381,
0.08817955112219451,0.025980182201504876,
0.08822942643391521,0.018585934788553842,
0.0882793017456359,0.025882983352318648,
0.08832917705735661,0.028523857268420372,
0.08837905236907731,0.016990494830146002,
0.088428927680798,0.04496039216101793,
0.0884788029925187,0.03661099948683634,
0.0885286783042394,0.03115573339161582,
0.0885785536159601,0.027843127433322113,
0.0886284289276808,0.038552463131186744,
0.0886783042394015,0.02877380395434165,
0.0887281795511222,0.020108940150708205,
0.08877805486284289,0.03045031304477802,
0.08882793017456359,0.01585456678854949,
0.0888778054862843,0.033210449142222626,
0.08892768079800499,0.01463255979051257,
0.08897755610972569,0.009424840275648185,
0.08902743142144638,0.027018199317151076,
0.08907730673316708,0.030942573136811837,
0.08912718204488779,0.013736648996329247,
0.08917705735660848,0.041991661979270685,
0.08922693266832918,0.025121438485057504,
0.08927680798004987,0.023975393602471803,
0.08932668329177057,0.040892562629831625,
0.08937655860349127,0.025509891288062442,
0.08942643391521198,0.02247151176021291,
0.08947630922693267,0.014703384340491697,
0.08952618453865337,0.005274332908962991,
0.08957605985037406,0.002003768800000045,
0.08962593516209476,0.02977100777042111,
0.08967581047381547,0.04716113937623738,
0.08972568578553616,0.01712932935829442,
0.08977556109725686,0.01687777198104056,
0.08982543640897755,0.02186995891084861,
0.08987531172069825,0.015865475092351613,
0.08992518703241895,0.0294123739673758,
0.08997506234413966,0.03660015518576151,
0.09002493765586035,0.034098316135866856,
0.09007481296758105,0.045774855431968,
0.09012468827930174,0.012306583884936946,
0.09017456359102244,0.021727510874040932,
0.09022443890274315,0.031184617979517798,
0.09027431421446384,0.06658934714279449,
0.09032418952618454,0.03140004976607402,
0.09037406483790524,0.027070941940208003,
0.09042394014962593,0.03777088526885475,
0.09047381546134663,0.04718236198058671,
0.09052369077306734,0.022814710533610966,
0.09057356608478803,0.016912187454140862,
0.09062344139650873,0.008262521162702492,
0.09067331670822942,0.03618232578366935,
0.09072319201995012,0.009469875953080152,
0.09077306733167083,0.034526055121235424,
0.09082294264339152,0.019381695844209713,
0.09087281795511222,0.003410204232280622,
0.09092269326683292,0.02104183884928331,
0.09097256857855361,0.01410253769938887,
0.09102244389027432,0.0472266257767117,
0.09107231920199502,0.026166292140796465,
0.09112219451371571,0.04921367405099315,
0.09117206982543641,0.03291239642208114,
0.0912219451371571,0.01730958844084355,
0.0912718204488778,0.0291419432690619,
0.09132169576059851,0.022279577264670468,
0.0913715710723192,0.02094142248708713,
0.0914214463840399,0.0524767473125585,
0.0914713216957606,0.0036852867903023074,
0.09152119700748129,-0.0047140370589115535,
0.091571072319202,0.031665785624279394,
0.0916209476309227,0.03538887884951634,
0.09167082294264339,0.011319369666647715,
0.09172069825436409,0.03114278569388982,
0.09177057356608478,0.007318387960362018,
0.09182044887780548,0.026835004978099767,
0.09187032418952619,0.04797034303936226,
0.09192019950124689,0.02749523122788862,
0.09197007481296758,0.009718504583654818,
0.09201995012468828,0.016464409577558157,
0.09206982543640897,0.03868286262886511,
0.09211970074812968,0.005456148245881677,
0.09216957605985038,0.03785044390961115,
0.09221945137157107,0.011719611798797018,
0.09226932668329177,0.027762904813556016,
0.09231920199501246,0.047450841806816246,
0.09236907730673316,0.022503634343507224,
0.09241895261845387,0.024809529769312968,
0.09246882793017457,0.025910137309712658,
0.09251870324189526,-0.026595538810718564,
0.09256857855361596,0.022332525015260257,
0.09261845386533665,0.01127102067744979,
0.09266832917705736,-0.012454475044606818,
0.09271820448877806,0.006611266236868218,
0.09276807980049875,0.0032349932605284046,
0.09281795511221945,0.005596573177291143,
0.09286783042394015,0.03266668794119369,
0.09291770573566084,-0.005827353177652209,
0.09296758104738155,0.02326942406357664,
0.09301745635910225,0.017754313358037135,
0.09306733167082294,0.03063234217143687,
0.09311720698254364,0.016626678854885408,
0.09316708229426433,0.020471986817143614,
0.09321695760598504,-0.01976245046215211,
0.09326683291770574,0.034296883345831246,
0.09331670822942643,0.014514979379232937,
0.09336658354114713,0.0006185439511046205,
0.09341645885286783,0.019602147886742242,
0.09346633416458854,0.026232237384200364,
0.09351620947630923,-0.029480630851633608,
0.09356608478802993,0.0022049590256151596,
0.09361596009975062,0.011890993757218866,
0.09366583541147132,0.016669355749477623,
0.09371571072319201,-0.02818872755671603,
0.09376558603491272,-0.023866481347994687,
0.09381546134663342,0.04171017403158388,
0.09386533665835411,-0.008806776203122377,
0.09391521197007481,0.028799266427556154,
0.0939650872817955,-0.009156284376920603,
0.09401496259351622,0.00982953132408278,
0.09406483790523691,0.0005748870253728311,
0.09411471321695761,-0.007883838749537067,
0.0941645885286783,0.010368031135992203,
0.094214463840399,0.0001490764040113818,
0.0942643391521197,0.012902853208851185,
0.0943142144638404,-0.010203870720260692,
0.0943640897755611,-0.015646642826173767,
0.0944139650872818,-0.006995158133321438,
0.09446384039900249,-0.009584253124393986,
0.09451371571072319,0.001748999579907773,
0.0945635910224439,-0.0017739291151937162,
0.09461346633416459,0.0024690750349918907,
0.09466334164588529,0.008796638606555718,
0.09471321695760598,0.014805902874585986,
0.09476309226932668,0.012925154336755684,
0.09481296758104737,-0.0016791436953894406,
0.09486284289276808,-0.0006640281585021255,
0.09491271820448878,-0.0029251580854135,
0.09496259351620948,-0.026831330094459947,
0.09501246882793017,-0.0221387965160054,
0.09506234413965087,0.006560808474900313,
0.09511221945137158,0.015271346294132293,
0.09516209476309227,0.0008955991634213016,
0.09521197007481297,-0.0019770530202406333,
0.09526184538653366,-0.016939548276052215,
0.09531172069825436,-0.01590911843383122,
0.09536159600997507,0.021275255099461612,
0.09541147132169576,-0.0146022781391104,
0.09546134663341646,-0.006876640661519701,
0.09551122194513716,-0.018443045904138273,
0.09556109725685785,-0.00025309492218490194,
0.09561097256857855,0.015920383992931903,
0.09566084788029926,-0.006571900471783308,
0.09571072319201995,-0.004635606770286833,
0.09576059850374065,-0.005886765569847193,
0.09581047381546134,0.015245171305589333,
0.09586034912718204,-0.004459697819502067,
0.09591022443890275,-0.0038848722857058,
0.09596009975062345,-0.010063703781196162,
0.09600997506234414,-0.030472445389239457,
0.09605985037406484,-0.016779657057782643,
0.09610972568578553,0.01930009058159597,
0.09615960099750623,0.002986526984717932,
0.09620947630922694,-0.028198089603555694,
0.09625935162094763,-0.008240620428767245,
0.09630922693266833,-0.026901168766851332,
0.09635910224438902,0.0031552942330843013,
0.09640897755610972,-0.009684858608976901,
0.09645885286783043,-0.021191434348401976,
0.09650872817955113,-0.009810662005214283,
0.09655860349127182,-0.02170043787066945,
0.09660847880299252,-0.008262009339977304,
0.09665835411471321,-0.0030197948374437664,
0.09670822942643391,0.03270428653302765,
0.09675810473815462,0.005069244092119696,
0.09680798004987531,-0.01906150603748208,
0.09685785536159601,-0.03577446706854654,
0.0969077306733167,-0.015565712973951078,
0.0969576059850374,-0.032456347031710985,
0.09700748129675811,-0.02018289295372845,
0.0970573566084788,0.0044112463435696525,
0.0971072319201995,-0.005189020268363644,
0.0971571072319202,-0.002637541785635529,
0.0972069825436409,0.0326088066010594,
0.09725685785536159,-0.012823736366310842,
0.0973067331670823,-0.009142973467260368,
0.097356608478803,-0.01394014492969631,
0.09740648379052369,-0.026764840754934086,
0.09745635910224439,-0.02173824179532441,
0.09750623441396508,-0.0050558319885381665,
0.09755610972568579,-0.005078867064260511,
0.09760598503740649,-0.01223353611218777,
0.09765586034912718,-0.02018617988883336,
0.09770573566084788,-0.03424673023342463,
0.09775561097256857,-0.011381597617969762,
0.09780548628428928,-0.0006929753341028532,
0.09785536159600998,-0.0067410657263892605,
0.09790523690773068,-0.02077048900324084,
0.09795511221945137,-0.006600560779246692,
0.09800498753117207,0.0015884069462980457,
0.09805486284289276,0.0032776631871564953,
0.09810473815461347,-0.0035318949512670415,
0.09815461346633417,-0.0270382009720842,
0.09820448877805486,-0.0009954984551573433,
0.09825436408977556,-0.05686918573576977,
0.09830423940149625,-0.008670841284281135,
0.09835411471321696,-0.0175441959855826,
0.09840399002493766,0.01105903613599039,
0.09845386533665836,-0.010423411505083826,
0.09850374064837905,-0.007941357313867456,
0.09855361596009975,0.015375621923265265,
0.09860349127182044,-0.018847532100493586,
0.09865336658354115,-0.016551782151830757,
0.09870324189526185,-0.008882263867867661,
0.09875311720698254,-0.03147914401623059,
0.09880299251870324,-0.013123829878775885,
0.09885286783042393,-0.02987507647380753,
0.09890274314214464,0.004075875615093453,
0.09895261845386534,-0.034272305679081363,
0.09900249376558604,0.007043832542806995,
0.09905236907730673,0.0074605128189877135,
0.09910224438902743,-0.01981155456107158,
0.09915211970074812,-0.028555911546117196,
0.09920199501246883,-0.01870410899219428,
0.09925187032418953,0.00559105828040413,
0.09930174563591022,-0.014582041837633671,
0.09935162094763092,-0.006151796417893701,
0.09940149625935162,0.006585186449807746,
0.09945137157107233,0.007923240702062524,
0.09950124688279302,-0.033588009226854426,
0.09955112219451372,-0.05044390184957674,
0.09960099750623441,-0.005977400196107257,
0.09965087281795511,-0.035414249671818165,
0.0997007481296758,-0.012337319842736668,
0.09975062344139651,-0.012916388140263031,
0.09980049875311721,-0.02032337002604076,
0.0998503740648379,0.013979284693159268,
0.0999002493765586,-0.013991682834120833,
0.0999501246882793,-0.003668950734826068,
0.1,0.008301450621511212,
0.1000498753117207,-0.015578097786390615,
0.1000997506234414,-0.013664021832632017,
0.10014962593516209,0.011492079199285233,
0.10019950124688279,-0.0161547967430961,
0.1002493765586035,-0.01337922906723643,
0.1002992518703242,-0.004356499694587589,
0.10034912718204489,-0.008891539682917319,
0.10039900249376559,-0.009780508531512513,
0.10044887780548628,-0.029416472140039382,
0.10049875311720698,0.0153314352008974,
0.10054862842892769,-0.02254317299121642,
0.10059850374064838,-0.002936489517096452,
0.10064837905236908,0.01756286893261018,
0.10069825436408977,0.0031960079768216226,
0.10074812967581047,0.005873201803270788,
0.10079800498753118,0.002337656518365686,
0.10084788029925187,-0.019303608923609734,
0.10089775561097257,0.0014957765226345917,
0.10094763092269327,-0.00705788024254544,
0.10099750623441396,-0.017849327864237242,
0.10104738154613466,-0.02394653176926246,
0.10109725685785537,0.0039704542551716225,
0.10114713216957606,-0.008440317088269932,
0.10119700748129676,-0.01794102932688444,
0.10124688279301745,-0.01294097248737169,
0.10129675810473815,-0.031443802340365236,
0.10134663341645886,-0.009029729206088518,
0.10139650872817955,0.005511528410891355,
0.10144638403990025,0.018399025836505743,
0.10149625935162095,-0.016233946268935852,
0.10154613466334164,-0.0012103514399566433,
0.10159600997506234,0.0036427808242694842,
0.10164588528678305,-0.022189901333066434,
0.10169576059850374,0.009717180246143847,
0.10174563591022444,0.032242839291318236,
0.10179551122194513,-0.006167006717612352,
0.10184538653366583,0.005360566817325522,
0.10189526184538654,-0.008069812252841653,
0.10194513715710724,-0.013688218659996386,
0.10199501246882793,-0.015134962783160389,
0.10204488778054863,-0.01567895524414475,
0.10209476309226932,0.009952033503542642,
0.10214463840399003,0.008389068181472403,
0.10219451371571073,0.015406711734911805,
0.10224438902743142,0.014944292743569995,
0.10229426433915212,0.008412474444156378,
0.10234413965087281,-0.012001332102152817,
0.10239401496259351,0.021693751539067375,
0.10244389027431422,-0.016688056876291657,
0.10249376558603492,-0.021460764672833844,
0.10254364089775561,-0.008877362281027638,
0.10259351620947631,0.009393594119413332,
0.102643391521197,0.0042862138553495625,
0.10269326683291771,-0.005684399760594424,
0.10274314214463841,0.008131844228362176,
0.1027930174563591,0.01555673509038481,
0.1028428927680798,-0.016051717896446906,
0.1028927680798005,-0.01715190026907901,
0.10294264339152119,-0.01726700322282545,
0.1029925187032419,-0.002195651031156076,
0.1030423940149626,0.022612652714658097,
0.10309226932668329,0.000511685314332315,
0.10314214463840399,0.026341549968144404,
0.10319201995012468,-0.006603156960516734,
0.10324189526184539,0.0014591032940121252,
0.10329177057356609,0.024488881161111746,
0.10334164588528678,0.0021334345938390327,
0.10339152119700748,-0.015496193572161612,
0.10344139650872818,0.0011670426616919652,
0.10349127182044887,0.018219436613427696,
0.10354114713216958,0.01434452584455001,
0.10359102244389028,0.03994868666957217,
0.10364089775561097,0.014266202424832532,
0.10369077306733167,-0.01807582767405823,
0.10374064837905236,-0.006572995816765351,
0.10379052369077307,0.009311865314378482,
0.10384039900249377,0.039797104158688965,
0.10389027431421446,0.007560459365668643,
0.10394014962593516,0.03741889127502821,
0.10399002493765586,0.00018219209526323596,
0.10403990024937655,0.005908567069013163,
0.10408977556109726,-0.007897980388819285,
0.10413965087281796,0.021610126592069262,
0.10418952618453865,0.007835751672697573,
0.10423940149625935,0.011706769126070547,
0.10428927680798004,0.004502650237762541,
0.10433915211970075,0.002659300753505905,
0.10438902743142145,0.024800204956209892,
0.10443890274314215,0.03351715839771041,
0.10448877805486284,0.015689157769182786,
0.10453865336658354,0.021434255537700463,
0.10458852867830425,-0.004368414367440388,
0.10463840399002494,0.020271813281620567,
0.10468827930174564,0.013855370817364673,
0.10473815461346633,0.02069609764798845,
0.10478802992518703,0.006375845903580207,
0.10483790523690772,0.0072309356060558955,
0.10488778054862843,0.007431980229668263,
0.10493765586034913,0.02166170526178942,
0.10498753117206983,0.019263171866378864,
0.10503740648379052,0.022885608043259415,
0.10508728179551122,-0.0003598445011108939,
0.10513715710723193,0.005400433941799331,
0.10518703241895262,0.009262439377579713,
0.10523690773067332,0.0037113935673284484,
0.10528678304239401,0.031003324102260803,
0.10533665835411471,-0.006539328571940367,
0.1053865336658354,0.01676350463837728,
0.10543640897755611,-0.0027844460786604144,
0.10548628428927681,0.01943540269138577,
0.1055361596009975,0.009825044896833515,
0.1055860349127182,-0.012166648923265737,
0.1056359102244389,0.013762116419908252,
0.10568578553615961,0.024453448992657965,
0.1057356608478803,0.0230723617746904,
0.105785536159601,0.05425885230060827,
0.1058354114713217,0.038030589703653854,
0.10588528678304239,0.013816910671803852,
0.10593516209476309,0.023309685108604948,
0.1059850374064838,0.0450631479513717,
0.10603491271820449,0.01846285002682773,
0.10608478802992519,0.02809351587359929,
0.10613466334164588,0.03554028081850848,
0.10618453865336658,0.01898550847619237,
0.10623441396508729,0.02143278270966586,
0.10628428927680798,0.019309436792919087,
0.10633416458852868,0.030486020177618256,
0.10638403990024937,0.011232019773257315,
0.10643391521197007,0.02849109241336308,
0.10648379052369077,0.01828818590829028,
0.10653366583541148,0.047317223816966375,
0.10658354114713217,0.015082600581002617,
0.10663341645885287,0.02604096714516438,
0.10668329177057356,0.018839820011715615,
0.10673316708229426,0.02584522613891589,
0.10678304239401497,0.024192166455785254,
0.10683291770573566,0.03382282390512838,
0.10688279301745636,-0.01057552132976709,
0.10693266832917706,0.02520214200186572,
0.10698254364089775,0.016739435271581865,
0.10703241895261846,0.01354577175060232,
0.10708229426433916,0.04392745393056613,
0.10713216957605985,0.014930971227695457,
0.10718204488778055,0.022191691449472306,
0.10723192019950124,0.04439197392325735,
0.10728179551122194,0.04040439153909254,
0.10733167082294265,0.03657051526999139,
0.10738154613466334,0.0008575391363080942,
0.10743142144638404,0.04635912276332282,
0.10748129675810474,0.0473214697811517,
0.10753117206982543,0.0003583330282656734,
0.10758104738154614,0.03631057169177613,
0.10763092269326684,0.01050208921564115,
0.10768079800498753,0.03560082000105817,
0.10773067331670823,0.029488657736899297,
0.10778054862842892,0.00858412079397861,
0.10783042394014962,0.044060537512356335,
0.10788029925187033,0.015762466429816355,
0.10793017456359102,0.041776282164407,
0.10798004987531172,0.04201120228092216,
0.10802992518703242,0.01211768863560797,
0.10807980049875311,0.020975543871047247,
0.10812967581047382,0.034083437744238367,
0.10817955112219452,0.06227814144394122,
0.10822942643391521,0.039005262253156064,
0.10827930174563591,0.030471561424303895,
0.1083291770573566,0.03611456863246473,
0.1083790523690773,0.03942408315505182,
0.10842892768079801,0.009918443762628962,
0.1084788029925187,0.027795406185805095,
0.1085286783042394,0.05834072381687754,
0.1085785536159601,0.03635706704863349,
0.10862842892768079,0.016082835998288622,
0.1086783042394015,0.00544573899980615,
0.1087281795511222,0.019237459569617192,
0.1087780548628429,0.02706388576363438,
0.10882793017456359,0.051721678023556025,
0.10887780548628428,0.0476061787948749,
0.108927680798005,0.018346521979508583,
0.10897755610972569,0.039877361828802624,
0.10902743142144639,0.017187051152168252,
0.10907730673316708,0.018029177396752676,
0.10912718204488778,0.028284426211751746,
0.10917705735660847,0.0069710856015677315,
0.10922693266832918,0.02378478885829306,
0.10927680798004988,0.03174477345134587,
0.10932668329177057,0.028991534935092336,
0.10937655860349127,0.04951852372242526,
0.10942643391521197,0.042739862260713184,
0.10947630922693267,0.0448692033299118,
0.10952618453865337,0.034402197655672595,
0.10957605985037407,0.021383320496082367,
0.10962593516209476,0.04479907082390404,
0.10967581047381546,0.02874530751032972,
0.10972568578553615,0.03887541318002323,
0.10977556109725686,0.02399856858995946,
0.10982543640897756,0.021894409045234868,
0.10987531172069825,0.02695465927506973,
0.10992518703241895,0.04771715864557473,
0.10997506234413965,0.039711836360617564,
0.11002493765586036,0.03324000814725992,
0.11007481296758105,0.05404482921923341,
0.11012468827930175,0.033606779727330484,
0.11017456359102244,0.028423964614447836,
0.11022443890274314,0.04899034244792209,
0.11027431421446383,0.019950333603828075,
0.11032418952618454,0.04358075649980131,
0.11037406483790524,0.034012615689377426,
0.11042394014962593,0.048991144117948235,
0.11047381546134663,0.06144802110540942,
0.11052369077306733,0.0019841511682072363,
0.11057356608478804,0.021392967406848665,
0.11062344139650873,0.04068587853195926,
0.11067331670822943,0.001976106333142519,
0.11072319201995012,0.0104734380561719,
0.11077306733167082,0.016820764535958436,
0.11082294264339151,0.02835372160204085,
0.11087281795511222,0.051731355158549625,
0.11092269326683292,0.03609918628436675,
0.11097256857855362,0.03538925789859462,
0.11102244389027431,0.024339749903288656,
0.111072319201995,0.00571807022974366,
0.11112219451371572,0.028725547735979906,
0.11117206982543641,0.0351769775054723,
0.11122194513715711,0.010496575013322618,
0.1112718204488778,0.029879024617570416,
0.1113216957605985,0.023140245988812716,
0.11137157107231921,0.014129271123218047,
0.1114214463840399,0.055272445936915486,
0.1114713216957606,0.020361116659274356,
0.1115211970074813,-0.004964096157637453,
0.11157107231920199,0.014618791449769818,
0.11162094763092269,0.013927763219500223,
0.1116708229426434,0.007362161943071878,
0.11172069825436409,0.02411490259123245,
0.11177057356608479,0.01756233029017636,
0.11182044887780548,0.012695155089390984,
0.11187032418952618,0.020941810081093262,
0.11192019950124689,0.031755774549601795,
0.11197007481296758,0.005387831626424653,
0.11201995012468828,0.03762287738901755,
0.11206982543640898,0.018858899414118016,
0.11211970074812967,0.011025411071100104,
0.11216957605985037,0.014824761328892612,
0.11221945137157108,-0.004759475257837424,
0.11226932668329177,0.01371791270534018,
0.11231920199501247,-0.0020161105839777566,
0.11236907730673316,0.03861716929073393,
0.11241895261845386,0.023027549343474778,
0.11246882793017457,-0.012101897138747406,
0.11251870324189527,0.05023788203680446,
0.11256857855361596,-0.002965391989537375,
0.11261845386533666,-0.003129541212532762,
0.11266832917705735,-0.0022917806209260885,
0.11271820448877805,0.013267677785416526,
0.11276807980049876,0.030936575123528137,
0.11281795511221945,0.0013410101613336983,
0.11286783042394015,0.013910980701808472,
0.11291770573566084,0.00928894486540563,
0.11296758104738154,0.011930705200877094,
0.11301745635910225,0.005437564368722691,
0.11306733167082295,0.01533753879014586,
0.11311720698254364,0.01926449659635818,
0.11316708229426434,0.01904113224411192,
0.11321695760598503,0.01641601795520775,
0.11326683291770574,0.015201245976384468,
0.11331670822942644,-0.00565294172974086,
0.11336658354114713,0.0003825649653984072,
0.11341645885286783,0.022312847854196235,
0.11346633416458853,-0.0015508378100939028,
0.11351620947630922,0.03521406458735152,
0.11356608478802993,0.005017878190765183,
0.11361596009975063,0.0007852440847211217,
0.11366583541147132,0.004932394673694674,
0.11371571072319202,0.014580985822319426,
0.11376558603491271,-0.01341444906827157,
0.11381546134663342,0.02162753289507547,
0.11386533665835412,0.008138632808600676,
0.11391521197007481,-0.013294712831917573,
0.11396508728179551,0.0019453211190757786,
0.1140149625935162,0.028265592913148462,
0.1140648379052369,-0.0068245914052086605,
0.11411471321695761,0.005803514138035214,
0.1141645885286783,0.011099787869698462,
0.114214463840399,-0.007849401882199685,
0.1142643391521197,-0.00117396644685737,
0.1143142144638404,0.028596004026845496,
0.1143640897755611,0.0002996414443438471,
0.1144139650872818,-0.0020136654594232186,
0.1144638403990025,0.0038059445295065553,
0.11451371571072319,-0.01783123978969412,
0.11456359102244389,0.009803112360831078,
0.11461346633416458,0.017094593198580997,
0.11466334164588529,-0.019751947027723288,
0.11471321695760599,0.010099439437445522,
0.11476309226932668,0.014520189303761862,
0.11481296758104738,0.003601629965635441,
0.11486284289276807,-0.00011586592246811279,
0.11491271820448878,-0.007209013049328071,
0.11496259351620948,5.4897830378241306e-05,
0.11501246882793018,-0.04498624359552543,
0.11506234413965087,-0.016030968321895232,
0.11511221945137157,-0.012067122427992795,
0.11516209476309226,0.017651920640504817,
0.11521197007481297,0.010893666367541579,
0.11526184538653367,0.004029782611708407,
0.11531172069825436,0.038243625644795325,
0.11536159600997506,0.01261240150280106,
0.11541147132169575,-0.00870768466918246,
0.11546134663341646,-0.02067864030561854,
0.11551122194513716,-0.0036610227850060713,
0.11556109725685786,0.023602161520938063,
0.11561097256857855,0.0027721784428493337,
0.11566084788029925,-0.005136510387712597,
0.11571072319201996,-0.025115053152148625,
0.11576059850374065,0.02492162366328183,
0.11581047381546135,-0.005186426160313903,
0.11586034912718204,-0.024117695254710005,
0.11591022443890274,-0.022827949435355335,
0.11596009975062344,-0.025651775684622728,
0.11600997506234415,0.0228141495047805,
0.11605985037406484,0.019859707352571206,
0.11610972568578554,-0.007406742131952628,
0.11615960099750623,0.0181643852784042,
0.11620947630922693,-0.009496403019612229,
0.11625935162094764,-0.0301318256995601,
0.11630922693266833,-0.018414776368490995,
0.11635910224438903,0.006287428885738147,
0.11640897755610972,-0.023236077943456675,
0.11645885286783042,0.0014924575117459243,
0.11650872817955112,-0.019417338117088286,
0.11655860349127183,-0.006074499535371659,
0.11660847880299252,-0.00045236886992384984,
0.11665835411471322,0.013052100171403994,
0.11670822942643391,-0.014905230738337985,
0.11675810473815461,-0.02128918350374033,
0.11680798004987532,-0.01462624589283305,
0.11685785536159601,-0.002833668206454973,
0.11690773067331671,0.003753472327581376,
0.1169576059850374,0.0035153267397744128,
0.1170074812967581,0.009475495759400172,
0.1170573566084788,-0.008000148369344661,
0.1171072319201995,-0.03939082297014574,
0.1171571072319202,-0.04254109059668451,
0.1172069825436409,-0.017522180934999698,
0.1172568578553616,0.010399555893542925,
0.11730673316708229,-0.0019529474823247722,
0.117356608478803,0.017618502975673387,
0.1174064837905237,-0.018111616420400455,
0.11745635910224439,-0.015492166388446882,
0.11750623441396509,-0.012967252363629209,
0.11755610972568578,-0.009546890627077816,
0.11760598503740648,-0.005402161057528541,
0.11765586034912719,0.014907385183627558,
0.11770573566084788,-0.017808036853763223,
0.11775561097256858,-0.024269175922161032,
0.11780548628428927,0.010318126439456178,
0.11785536159600997,-3.7787119929900276e-06,
0.11790523690773068,0.00017457615272538016,
0.11795511221945137,-0.012496401891470752,
0.11800498753117207,-0.03782176133882431,
0.11805486284289277,-0.005077415814281736,
0.11810473815461346,-0.00743295465863035,
0.11815461346633417,-0.020657867089332316,
0.11820448877805487,0.0002822445342552434,
0.11825436408977556,-0.011426005852031023,
0.11830423940149626,-0.009886380386047671,
0.11835411471321695,-0.01322454663035888,
0.11840399002493765,-0.01174650431071804,
0.11845386533665836,-0.033434113628759726,
0.11850374064837906,-0.02431713954620612,
0.11855361596009975,-0.005439033316195683,
0.11860349127182045,0.03004566352002262,
0.11865336658354114,-0.010328539138879453,
0.11870324189526185,-0.00030126665994986354,
0.11875311720698255,0.025755465516904625,
0.11880299251870324,-0.006068095346776134,
0.11885286783042394,-0.04351946913465201,
0.11890274314214463,-0.011031255790060568,
0.11895261845386533,0.0026918543329281387,
0.11900249376558604,-0.049130538563892094,
0.11905236907730674,-0.03355912131630395,
0.11910224438902743,-0.02189785136449466,
0.11915211970074813,-0.01867116786365957,
0.11920199501246882,-0.00012940091532107935,
0.11925187032418953,-0.02562130009738374,
0.11930174563591023,-0.020621061421646943,
0.11935162094763092,-0.017814335485904734,
0.11940149625935162,-0.0063227168962420146,
0.11945137157107232,-0.01978474233056721,
0.11950124688279301,0.008817459300007555,
0.11955112219451372,-0.005929407869265654,
0.11960099750623442,-0.02780596615282461,
0.11965087281795511,0.022648537261267213,
0.11970074812967581,-0.011347527854744075,
0.1197506234413965,-0.004902427966419964,
0.11980049875311721,0.004709557386090935,
0.11985037406483791,-0.01145682767817184,
0.1199002493765586,-0.01021109396650767,
0.1199501246882793,-0.015837237882764584,
0.12,0.006012273160685403,
0.1200498753117207,-0.01408321689828303,
0.1200997506234414,-0.0016699141737829583,
0.1201496259351621,-0.032084415487602325,
0.12019950124688279,-0.017857498813109836,
0.12024937655860349,-0.025939524745459408,
0.12029925187032418,-0.028893168789159908,
0.1203491271820449,-0.0051784114752923775,
0.12039900249376559,0.007843125027057406,
0.12044887780548628,-0.01189599392238878,
0.12049875311720698,-0.01817069854828074,
0.12054862842892768,0.0007249881069954483,
0.12059850374064839,-0.012782984172575304,
0.12064837905236908,0.005823016105878745,
0.12069825436408978,-0.020017017980396245,
0.12074812967581047,-0.03326139490389587,
0.12079800498753117,-0.029325637258706745,
0.12084788029925186,-0.009845721076275672,
0.12089775561097257,-0.013518112212635203,
0.12094763092269327,-0.014923561630849251,
0.12099750623441397,-0.010352461843087388,
0.12104738154613466,0.00960597273494257,
0.12109725685785536,-0.007170503806101875,
0.12114713216957607,0.02867427929171709,
0.12119700748129676,-0.0005143566405746316,
0.12124688279301746,-0.01824286883297266,
0.12129675810473815,-0.008564908813562404,
0.12134663341645885,0.016217786666803638,
0.12139650872817954,0.029196455735130654,
0.12144638403990025,0.0035865304619196554,
0.12149625935162095,0.0003860039612275249,
0.12154613466334165,-0.005607210695921558,
0.12159600997506234,0.010945820707769735,
0.12164588528678304,-0.008009829348445296,
0.12169576059850375,0.012198364581353618,
0.12174563591022444,-0.011859825497701528,
0.12179551122194514,-0.010449472005449705,
0.12184538653366583,-0.0006988547113036519,
0.12189526184538653,0.030325545612224634,
0.12194513715710723,-0.024725793173903228,
0.12199501246882793,0.006550849993335107,
0.12204488778054863,-0.003971586820669608,
0.12209476309226933,-0.005066685190442945,
0.12214463840399002,0.0026135599129134233,
0.12219451371571072,0.011538727054482643,
0.12224438902743143,-0.024996924097116412,
0.12229426433915212,-0.0016324376626205466,
0.12234413965087282,0.0008390192472066205,
0.12239401496259351,0.0013459444940310203,
0.12244389027431421,-0.0019620799969973114,
0.12249376558603492,0.0006724598549941114,
0.12254364089775562,0.007953773605336244,
0.12259351620947631,-0.01715575045181433,
0.122643391521197,0.003907755958461523,
0.1226932668329177,0.033494087041074705,
0.1227431421446384,0.03305966476672634,
0.12279301745635911,-0.004498277964436127,
0.1228428927680798,-0.002101836528739442,
0.1228927680798005,-0.002434711414293987,
0.1229426433915212,-0.005286058451322203,
0.12299251870324189,0.0021211617693080095,
0.1230423940149626,0.008471306887413875,
0.1230922693266833,0.003234081594797383,
0.12314214463840399,0.008691013587831815,
0.12319201995012469,-0.012595113704786217,
0.12324189526184538,0.0023147086802388734,
0.12329177057356608,0.004270900123446118,
0.12334164588528679,0.044447206276165274,
0.12339152119700748,0.018912924814003515,
0.12344139650872818,0.008518907322910694,
0.12349127182044888,0.018879107147866767,
0.12354114713216957,-0.00038075520007104305,
0.12359102244389028,0.016144817568182233,
0.12364089775561098,0.02605169823020132,
0.12369077306733167,0.022291740558095373,
0.12374064837905237,0.00899579912892204,
0.12379052369077306,0.017760351231782538,
0.12384039900249376,0.007207459666519978,
0.12389027431421447,0.0065665214206573315,
0.12394014962593516,-0.021078955464488465,
0.12399002493765586,0.010463921754261795,
0.12403990024937656,0.012320939956479314,
0.12408977556109725,-0.0030989605823736888,
0.12413965087281796,0.03914763392386244,
0.12418952618453866,0.03103481132881607,
0.12423940149625935,0.03176194381765479,
0.12428927680798005,0.009753137952317003,
0.12433915211970074,0.013587770516806917,
0.12438902743142144,-0.0033466892788773413,
0.12443890274314215,0.0386716962828884,
0.12448877805486284,0.024645019007137087,
0.12453865336658354,0.019249190582942395,
0.12458852867830424,0.02362735978258494,
0.12463840399002493,0.028112020430536747,
0.12468827930174564,0.027140095860695698,
0.12473815461346634,0.014416083193656542,
0.12478802992518703,0.04762590839328337,
0.12483790523690773,0.013333458989933433,
0.12488778054862842,0.014663308426142588,
0.12493765586034913,0.03946230616018805,
0.12498753117206983,0.021993201615779542,
0.12503740648379053,0.03431262350972228,
0.12508728179551123,0.002596392443207609,
0.12513715710723192,0.013536454664786302,
0.12518703241895263,0.014407388595874142,
0.1252369077306733,-0.008826000051786177,
0.12528678304239402,0.02065956740591413,
0.1253366583541147,0.020513343185291178,
0.1253865336658354,0.03554822152088391,
0.12543640897755612,0.03421490569183878,
0.1254862842892768,0.05313065852990621,
0.1255361596009975,0.046207018486679574,
0.1255860349127182,0.016917400125562365,
0.1256359102244389,0.014560498229507543,
0.1256857855361596,0.035566115291155935,
0.1257356608478803,0.023112109169983176,
0.125785536159601,0.018622615003187064,
0.12583541147132168,0.038216931938560635,
0.1258852867830424,0.02706389869932308,
0.1259351620947631,0.02205364397700457,
0.12598503740648379,0.0034133793283589245,
0.1260349127182045,0.012944826773029843,
0.12608478802992518,0.03490012929184194,
0.1261346633416459,0.00923500981689343,
0.1261845386533666,0.007756427385503306,
0.12623441396508728,0.038675933594883895,
0.126284289276808,0.012287329881819029,
0.12633416458852867,0.02692289893092738,
0.12638403990024938,0.04230792800785375,
0.1264339152119701,0.03222029165190405,
0.12648379052369077,0.041277206246195325,
0.12653366583541148,0.02479190979146227,
0.12658354114713216,-0.005679847364000679,
0.12663341645885287,0.03283558481424093,
0.12668329177057355,0.0338991419323275,
0.12673316708229426,0.044246453461324206,
0.12678304239401497,0.01997524093207897,
0.12683291770573565,0.025026394907122843,
0.12688279301745636,0.039352840989651236,
0.12693266832917705,0.04135473400128614,
0.12698254364089775,0.026363795278828178,
0.12703241895261846,0.04721277579092696,
0.12708229426433915,0.021092683924778546,
0.12713216957605986,0.008238966355286124,
0.12718204488778054,0.042157138441293915,
0.12723192019950125,0.027107944840383737,
0.12728179551122196,0.0376104034907175,
0.12733167082294264,0.03314053249672873,
0.12738154613466335,0.025596078709058365,
0.12743142144638403,0.036892457989855444,
0.12748129675810474,0.04366214020033655,
0.12753117206982545,0.03433047099812775,
0.12758104738154613,0.03588038030876323,
0.12763092269326684,0.031975501543545844,
0.12768079800498752,0.04678497993270937,
0.12773067331670823,0.032484276530426674,
0.1277805486284289,0.03849951527157382,
0.12783042394014962,0.044472996030100985,
0.12788029925187033,0.03132622036617958,
0.12793017456359101,0.020243838790320677,
0.12798004987531172,0.03813866441928147,
0.1280299251870324,0.03477592791876119,
0.12807980049875312,0.012896127163620957,
0.12812967581047383,0.018511329030411142,
0.1281795511221945,0.031259950443262706,
0.12822942643391522,0.01730921969075918,
0.1282793017456359,0.02882261242478498,
0.1283291770573566,0.027457346929872554,
0.12837905236907732,0.0236935007884044,
0.128428927680798,0.03624059005335428,
0.1284788029925187,0.019857330061875695,
0.1285286783042394,0.04638738827715787,
0.1285785536159601,0.032448048346669645,
0.1286284289276808,0.008058581647853814,
0.1286783042394015,0.012472474712849176,
0.1287281795511222,0.04019645435804204,
0.12877805486284288,0.037936672801421434,
0.1288279301745636,0.033135446392648066,
0.1288778054862843,0.02563897611018817,
0.12892768079800498,0.03217285134119551,
0.1289775561097257,-0.0009706748556552215,
0.12902743142144638,0.0014487649543941834,
0.12907730673316709,0.005002782901168089,
0.12912718204488777,0.013975232524980638,
0.12917705735660848,0.006437908053831459,
0.1292269326683292,0.03295034786169305,
0.12927680798004987,0.009132431006131609,
0.12932668329177058,0.014258509849277687,
0.12937655860349126,0.01945309469379484,
0.12942643391521197,0.0031381284560758303,
0.12947630922693268,0.037433790991956956,
0.12952618453865336,0.012254828282587102,
0.12957605985037407,0.025577182396919616,
0.12962593516209475,0.018171163501025683,
0.12967581047381546,0.04276247420220917,
0.12972568578553617,0.036254941694790606,
0.12977556109725685,0.01381783639084527,
0.12982543640897756,0.04289475696993348,
0.12987531172069824,0.021503000437176605,
0.12992518703241895,0.03854686642648336,
0.12997506234413966,0.047442279747869825,
0.13002493765586035,0.04019324416576561,
0.13007481296758105,0.013020587350065643,
0.13012468827930174,0.03358488780538248,
0.13017456359102245,0.024665957810220237,
0.13022443890274316,0.026655726959010355,
0.13027431421446384,0.03099640331896101,
0.13032418952618455,0.01773081311193305,
0.13037406483790523,0.021930511441288995,
0.13042394014962594,-0.002858439650650236,
0.13047381546134662,0.028492471168932162,
0.13052369077306733,0.024099290210996566,
0.13057356608478804,0.013583719044781669,
0.13062344139650872,0.03293953500648916,
0.13067331670822943,0.03326412394475618,
0.1307231920199501,0.03385257630152656,
0.13077306733167082,0.03482344213362684,
0.13082294264339153,0.016693316960693254,
0.13087281795511221,0.030698340755160813,
0.13092269326683292,0.01924521535596216,
0.1309725685785536,0.017899556607447343,
0.13102244389027431,-0.001844371105646378,
0.13107231920199502,0.03590995805797927,
0.1311221945137157,0.031421793866364574,
0.13117206982543642,0.03578852903692364,
0.1312219451371571,0.03426668430774866,
0.1312718204488778,0.049861779340708665,
0.13132169576059852,0.03495224775177468,
0.1313715710723192,-0.0001687828762906296,
0.1314214463840399,0.03754253926500742,
0.1314713216957606,0.038433431591452405,
0.1315211970074813,0.05008810397276401,
0.13157107231920198,0.03194919569360573,
0.1316209476309227,0.029455539937639334,
0.1316708229426434,0.02795560179938523,
0.13172069825436408,0.008534619854990292,
0.1317705735660848,0.03120069289934843,
0.13182044887780547,0.03443348520502568,
0.13187032418952618,0.0048465994709186045,
0.1319201995012469,0.032746652680090485,
0.13197007481296757,0.021482503726527165,
0.13201995012468828,0.03393171265961522,
0.13206982543640897,0.03148609565887848,
0.13211970074812968,0.030082051716511328,
0.13216957605985039,0.01867198238142219,
0.13221945137157107,0.0053712958427138725,
0.13226932668329178,0.04366967521792587,
0.13231920199501246,0.012684329834433315,
0.13236907730673317,0.03455069571443489,
0.13241895261845388,0.02032938733430155,
0.13246882793017456,0.01915071195621924,
0.13251870324189527,0.03385113614916359,
0.13256857855361595,0.010928502097645038,
0.13261845386533666,-0.007719745748237292,
0.13266832917705737,0.025784944353635486,
0.13271820448877805,0.008400996910420516,
0.13276807980049876,0.02155891657352045,
0.13281795511221944,0.003957486705695198,
0.13286783042394015,-0.00028130052016494926,
0.13291770573566083,0.010543725545795654,
0.13296758104738154,0.02280738286443621,
0.13301745635910225,0.0063870942799205375,
0.13306733167082294,0.03245797687967122,
0.13311720698254365,0.03811105353967459,
0.13316708229426433,0.025647398045935355,
0.13321695760598504,0.007470015740724203,
0.13326683291770575,-0.007862598999968693,
0.13331670822942643,-0.0063695507020958796,
0.13336658354114714,0.006180841452568007,
0.13341645885286782,0.00010239110950639035,
0.13346633416458853,0.028460696009988254,
0.13351620947630924,-0.027476583284060177,
0.13356608478802992,0.031532392410798006,
0.13361596009975063,0.018097005667345442,
0.1336658354114713,0.029957612729639142,
0.13371571072319202,-0.016064872250471065,
0.13376558603491273,0.03269626741265425,
0.1338154613466334,0.011267644466041008,
0.13386533665835412,0.023804810041009164,
0.1339152119700748,-0.00524191879791331,
0.13396508728179551,-0.0056583569265396495,
0.1340149625935162,0.017608314153327666,
0.1340648379052369,0.02869112124946829,
0.13411471321695762,-0.00959747916659395,
0.1341645885286783,0.014248710882267677,
0.134214463840399,-0.019179365520750787,
0.1342643391521197,0.009514015331114706,
0.1343142144638404,-0.007889026983893807,
0.1343640897755611,-0.007714749203308478,
0.1344139650872818,-0.009513556579106358,
0.1344638403990025,0.012957497958039528,
0.13451371571072318,-0.022157857506786564,
0.1345635910224439,-0.03658185509566528,
0.1346134663341646,-0.004579656834425764,
0.13466334164588528,-0.0061552338290208715,
0.134713216957606,0.005263696782716595,
0.13476309226932667,-0.020714476703509694,
0.13481296758104738,0.031356167955478645,
0.1348628428927681,0.011903593932751975,
0.13491271820448877,0.0038474606694016296,
0.13496259351620948,0.002137662949049912,
0.13501246882793017,-0.012669831002699694,
0.13506234413965088,-0.00415323748545288,
0.13511221945137158,0.006705493324492344,
0.13516209476309227,0.008044771446873473,
0.13521197007481298,0.03331410583641239,
0.13526184538653366,-0.001971230777157669,
0.13531172069825437,-0.008362372708728857,
0.13536159600997505,0.00421839979902123,
0.13541147132169576,-0.01302393474633744,
0.13546134663341647,-0.016396713618200342,
0.13551122194513715,0.013170385822929063,
0.13556109725685786,-0.015650842008930424,
0.13561097256857854,0.005769766160332569,
0.13566084788029925,-0.006254474007731555,
0.13571072319201996,-0.009882243858195198,
0.13576059850374064,-0.010807477660059454,
0.13581047381546135,0.028591562042537304,
0.13586034912718203,0.010930109069233446,
0.13591022443890274,-0.006803138348115885,
0.13596009975062345,-0.035131817244342736,
0.13600997506234414,-0.01010959978916457,
0.13605985037406484,0.003087362293669335,
0.13610972568578553,-0.01670240678343366,
0.13615960099750624,0.005326537850634692,
0.13620947630922695,0.006577847076562435,
0.13625935162094763,-0.011424770823514556,
0.13630922693266834,-0.03347259057300258,
0.13635910224438902,0.011214417051592904,
0.13640897755610973,0.004467362424031526,
0.1364588528678304,-0.01690626824066216,
0.13650872817955112,-0.014938342729731997,
0.13655860349127183,-0.005142265036413535,
0.1366084788029925,-0.006555238160287734,
0.13665835411471322,0.013394926629766794,
0.1367082294264339,-0.007066885809103162,
0.1367581047381546,-0.014116057574136687,
0.13680798004987532,0.016783989564867305,
0.136857855361596,-0.018017398295529223,
0.1369077306733167,-0.04285744013953738,
0.1369576059850374,-0.023891022709375993,
0.1370074812967581,-0.008363503178130012,
0.13705735660847881,0.010377822250996448,
0.1371072319201995,0.00477190731895775,
0.1371571072319202,0.023857422579661773,
0.1372069825436409,0.009832014523172028,
0.1372568578553616,-0.00030175957788981626,
0.1373067331670823,-0.004304624311650464,
0.137356608478803,0.014988818187123028,
0.1374064837905237,-0.03496932461071163,
0.13745635910224438,0.0019433695368587488,
0.1375062344139651,-0.0042427367605233435,
0.1375561097256858,-0.011147189179832671,
0.13760598503740648,-0.01675522760532414,
0.1376558603491272,-0.015135899803524117,
0.13770573566084787,-0.014251768379573398,
0.13775561097256858,0.005688125426163846,
0.13780548628428926,-0.013107964810254166,
0.13785536159600997,0.0063201338058252315,
0.13790523690773068,-0.020408358757446197,
0.13795511221945136,0.0020223825911220416,
0.13800498753117207,-0.004678799934822075,
0.13805486284289276,0.0184418687822549,
0.13810473815461347,-0.007774680083580921,
0.13815461346633418,-0.0041649460375116285,
0.13820448877805486,-0.0034263451686204005,
0.13825436408977557,0.0059052234529685405,
0.13830423940149625,0.014262122753038179,
0.13835411471321696,-0.004718482907546213,
0.13840399002493767,-0.011316512210791212,
0.13845386533665835,0.019534308827216545,
0.13850374064837906,-0.02692109059970426,
0.13855361596009974,-0.006210602300105533,
0.13860349127182045,0.031442957593141085,
0.13865336658354116,0.004636126577216836,
0.13870324189526184,0.00404540607573744,
0.13875311720698255,-0.008412546670152246,
0.13880299251870323,0.0023926060379129716,
0.13885286783042394,-0.009108232896133443,
0.13890274314214462,-0.006899115293377028,
0.13895261845386533,-0.003506116473924058,
0.13900249376558604,-0.012274908113367863,
0.13905236907730673,-0.030128152229638154,
0.13910224438902744,0.0038076751904259857,
0.13915211970074812,-0.01646234636315308,
0.13920199501246883,-0.014424692285836297,
0.13925187032418954,-0.008115244162169718,
0.13930174563591022,-0.023201066959229383,
0.13935162094763093,-0.010989517829439561,
0.1394014962593516,-0.011539835950134743,
0.13945137157107232,-0.024963705525459748,
0.13950124688279303,0.0031837956850593267,
0.1395511221945137,-0.011290897023705834,
0.13960099750623442,0.009135708174989564,
0.1396508728179551,-0.002223973312056736,
0.1397007481296758,-0.005194473324199533,
0.13975062344139652,-0.025637922233736257,
0.1398004987531172,-0.039515036612882304,
0.1398503740648379,0.004939461821480104,
0.1399002493765586,-0.012098333861430327,
0.1399501246882793,-0.007613622214985545,
0.14,-0.036988954729367605,
0.1400498753117207,-0.011588492888258986,
0.1400997506234414,-0.00016533626953383652,
0.1401496259351621,-0.02659522512948293,
0.1401995012468828,0.0022299346122967544,
0.14024937655860348,-0.021743730167391926,
0.1402992518703242,0.00992710187244009,
0.1403491271820449,-0.009989884188418603,
0.14039900249376558,-0.009083711862319594,
0.1404488778054863,-0.0015690783095084005,
0.14049875311720697,0.014908265683821888,
0.14054862842892768,-0.021198647619115628,
0.1405985037406484,-0.0019976487400071357,
0.14064837905236907,-0.010776868885962462,
0.14069825436408978,-0.020421809638734502,
0.14074812967581046,-0.00648480527160926,
0.14079800498753117,-0.013812468056385382,
0.14084788029925188,-0.008149822191343081,
0.14089775561097256,0.013658391970125146,
0.14094763092269327,-0.0011124811214726603,
0.14099750623441396,-0.00025355685560402626,
0.14104738154613466,0.003617825581916866,
0.14109725685785537,-0.020067570410534752,
0.14114713216957606,-0.010931022129447174,
0.14119700748129677,-0.003749472959114733,
0.14124688279301745,-0.0012044414071246529,
0.14129675810473816,0.007010080880703033,
0.14134663341645887,0.0026167535139439615,
