time,amplitude,label
0.0,-0.051424823274796805,
4.987531172069826e-05,-0.022445975278336475,
9.975062344139652e-05,-0.01098402289223137,
0.00014962593516209475,-0.012745245353350657,
0.00019950124688279303,-0.02425594110844115,
0.00024937655860349125,-0.014891706761901553,
0.0002992518703241895,-0.005911033343748342,
0.00034912718204488776,-0.0499623531616256,
0.00039900249376558606,-0.023294472483333505,
0.0004488778054862843,-0.018802802229418686,
0.0004987531172069825,-0.03203080836124575,
0.0005486284289276808,-0.03578567869332768,
0.000598503740648379,-0.021428599977191886,
0.0006483790523690773,-0.030590564059295257,
0.0006982543640897755,-0.004786535911853195,
0.0007481296758104738,-0.02224318454153519,
0.0007980049875311721,-0.02476074284654021,
0.0008478802992518703,-0.03163582462941038,
0.0008977556109725686,-0.005776619423905728,
0.0009476309226932668,-0.02290928914295214,
0.000997506234413965,0.0004459623329234469,
0.0010473815461346633,-0.03293745709548026,
0.0010972568578553616,-0.02168492422264478,
0.00114713216957606,-0.0394176659518649,
0.001197007481296758,-0.02691175475503608,
0.0012468827930174563,0.009308197122881043,
0.0012967581047381546,-0.01429313830016604,
0.001346633416458853,-0.02356724370762157,
0.001396508728179551,-0.00547380444231705,
0.0014463840399002493,-0.03301678333441149,
0.0014962593516209476,0.0010735341668599158,
0.001546134663341646,-0.04864687234363915,
0.0015960099750623442,0.004084251005058475,
0.0016458852867830423,0.008004480822441932,
0.0016957605985037406,-0.01804669853328565,
0.001745635910224439,-0.004996498422046879,
0.0017955112219451373,-0.029413894310052945,
0.0018453865336658353,-0.002738147817750681,
0.0018952618453865336,-0.025829218714299648,
0.001945137157107232,-0.019925899421493948,
0.00199501246882793,-0.010831564484386538,
0.0020448877805486283,-0.02347078870055988,
0.0020947630922693266,-0.01970415675158866,
0.002144638403990025,9.185442112467912e-05,
0.0021945137157107233,-0.0311926733651834,
0.0022443890274314216,-0.01615511750150356,
0.00229426433915212,-0.014438085717809366,
0.0023441396508728177,0.0010049365403654118,
0.002394014962593516,-0.002061997989865857,
0.0024438902743142144,-0.008597680250193012,
0.0024937655860349127,-0.028956916807730864,
0.002543640897755611,-0.008369710227665476,
0.0025935162094763093,-0.005567629166835494,
0.0026433915211970076,-0.02399466126337657,
0.002693266832917706,-0.00572171191344025,
0.002743142144638404,-0.008265794370322892,
0.002793017456359102,-0.009917050686489355,
0.0028428927680798004,-0.023332387597507963,
0.0028927680798004987,-0.007629607361636084,
0.002942643391521197,0.004179095820106463,
0.0029925187032418953,-0.0214966732271556,
0.0030423940149625936,-0.0077238099443727,
0.003092269326683292,-0.03182595431440342,
0.00314214463840399,-0.011264158689980503,
0.0031920199501246885,-0.001304825275940131,
0.0032418952618453864,-0.002674051456342502,
0.0032917705735660847,0.006959601769089909,
0.003341645885286783,-0.030821766402129795,
0.0033915211970074813,-0.0018625855942526557,
0.0034413965087281796,-0.006172441288663687,
0.003491271820448878,-0.027751424380381095,
0.003541147132169576,0.004589464906786571,
0.0035910224438902745,0.0007487006242206159,
0.0036408977556109724,0.027403608785983358,
0.0036907730673316707,0.005085571157781656,
0.003740648379052369,-0.01194808026089797,
0.0037905236907730673,0.002553220061536061,
0.0038403990024937656,0.0025837068115739503,
0.003890274314214464,-0.003485524088654806,
0.003940149625935162,0.0031174748899371564,
0.00399002493765586,0.020570657394304408,
0.004039900249376558,0.001178118294552396,
0.004089775561097257,-0.0056748707888397395,
0.004139650872817955,0.007159560418062379,
0.004189526184538653,-0.007050936204111232,
0.004239401496259352,-0.003964493713942587,
0.00428927680798005,0.011258633759691838,
0.004339152119700748,-0.02998161972829233,
0.0043890274314214465,0.01725287687997335,
0.004438902743142145,-0.013134268794330196,
0.004488778054862843,-0.00824614072051795,
0.004538653366583541,-0.001289143775398956,
0.00458852867830424,0.02175198406910926,
0.004638403990024938,0.01364282051363685,
0.0046882793017456355,0.0009143421203432526,
0.004738154613466334,-0.0062307442342938585,
0.004788029925187032,-0.00819739257650289,
0.00483790523690773,-0.00591273934868522,
0.004887780548628429,-0.0006474717310887888,
0.004937655860349127,-0.0009141265953403449,
0.004987531172069825,0.004558050987367269,
0.005037406483790524,-0.017165208723035612,
0.005087281795511222,-0.0028229105008494935,
0.00513715710723192,-0.006363519792164835,
0.0051870324189526185,0.012869797373401345,
0.005236907730673317,0.01027981690240627,
0.005286783042394015,0.0005053623290801024,
0.0053366583541147134,-0.013577380887036514,
0.005386533665835412,0.008110989324465152,
0.00543640897755611,-0.002885088447867374,
0.005486284289276808,-0.018634430615934366,
0.005536159600997507,0.01667846170671699,
0.005586034912718204,-0.003070753737878626,
0.005635910224438902,0.016400832404182768,
0.005685785536159601,-0.011702144740934823,
0.005735660847880299,-0.011344982261414371,
0.005785536159600997,0.0017663519331119924,
0.005835411471321696,0.0027308488789383866,
0.005885286783042394,-0.010122692635962946,
0.005935162094763092,-0.009101739792747601,
0.0059850374064837905,0.0075919477731987576,
0.006034912718204489,0.01499033252197531,
0.006084788029925187,0.020328465345909166,
0.0061346633416458855,-0.0003565284888907968,
0.006184538653366584,-0.008336963554245791,
0.006234413965087282,0.03723087300812544,
0.00628428927680798,0.031497706732364864,
0.006334164588528679,0.006071228191776191,
0.006384039900249377,-0.0029345955898968674,
0.006433915211970074,0.012030173478687683,
0.006483790523690773,0.02652078431627669,
0.006533665835411471,-0.0046173911891576255,
0.006583541147132169,0.0025841303352739957,
0.006633416458852868,0.028375538384437966,
0.006683291770573566,-0.0371470968665883,
0.006733167082294264,0.028777612722679927,
0.0067830423940149626,0.03525748681379249,
0.006832917705735661,-0.003185400778191204,
0.006882793017456359,-0.002195747870197339,
0.0069326683291770575,0.02522566288693673,
0.006982543640897756,0.01851222404040101,
0.007032418952618454,0.0071998676421325975,
0.007082294264339152,0.02230404942793974,
0.007132169576059851,0.025585319117574182,
0.007182044887780549,0.030677161338757246,
0.007231920199501247,0.01209756358465541,
0.007281795511221945,0.014096029657827396,
0.007331670822942643,-0.0046061320733761495,
0.007381546134663341,0.003974002390489874,
0.00743142144638404,0.006154025106908127,
0.007481296758104738,0.027146328064886,
0.007531172069825436,0.016500700687332233,
0.007581047381546135,-4.902310757914918e-05,
0.007630922693266833,0.00648498588014639,
0.007680798004987531,0.015393443624167,
0.0077306733167082295,0.025428129295368293,
0.007780548628428928,0.015310991332336365,
0.007830423940149626,0.020378506593490314,
0.007880299251870324,0.014882573842049617,
0.007930174563591023,0.00942737882115954,
0.00798004987531172,0.01742562283493103,
0.00802992518703242,0.030019280402464668,
0.008079800498753117,0.03491622433155266,
0.008129675810473816,0.018913374761777065,
0.008179551122194513,0.018380736550942307,
0.008229426433915213,0.04144207040234613,
0.00827930174563591,0.02451923068102058,
0.00832917705735661,0.026704035703646187,
0.008379052369077307,0.00575136715300383,
0.008428927680798006,0.002054008551296267,
0.008478802992518703,-0.0024047016197960257,
0.0085286783042394,0.045189947816777064,
0.0085785536159601,0.025622561267689956,
0.008628428927680797,0.044590404977522015,
0.008678304239401496,0.0049600737161851986,
0.008728179551122194,-2.1441964939868108e-06,
0.008778054862842893,0.0016393364241640423,
0.00882793017456359,0.021100062858817374,
0.00887780548628429,0.025454023172059706,
0.008927680798004987,0.007715203421342829,
0.008977556109725686,0.03748890770937686,
0.009027431421446384,0.00692726947107474,
0.009077306733167083,0.007922199754361418,
0.00912718204488778,0.03702057583260522,
0.00917705735660848,0.004644170387001212,
0.009226932668329177,0.004634241344264279,
0.009276807980049876,0.04438704350259107,
0.009326683291770574,0.019374628129049436,
0.009376558603491271,0.017504103345376977,
0.00942643391521197,0.013215756643865336,
0.009476309226932668,0.015926866862748055,
0.009526184538653367,0.007359307099259516,
0.009576059850374064,0.012309869433162368,
0.009625935162094763,0.009542505444415107,
0.00967581047381546,0.019518748820376405,
0.00972568578553616,0.038938334204746086,
0.009775561097256857,0.02728334813107285,
0.009825436408977557,0.017830807926662286,
0.009875311720698254,0.009564300489346056,
0.009925187032418953,0.0021996671259336374,
0.00997506234413965,0.01547744594663639,
0.01002493765586035,0.013302493392329253,
0.010074812967581047,0.005147440479545223,
0.010124688279301746,0.03644627055892105,
0.010174563591022444,0.027503703057671705,
0.010224438902743141,0.01478488642707314,
0.01027431421446384,-0.016314166166244298,
0.010324189526184538,-9.596331897916699e-05,
0.010374064837905237,0.0218142281436966,
0.010423940149625935,0.015164975651975245,
0.010473815461346634,0.028852640673700462,
0.010523690773067331,0.026021719929782014,
0.01057356608478803,0.03460355086533802,
0.010623441396508728,0.030981629665692338,
0.010673316708229427,0.02998957192492361,
0.010723192019950124,0.015090310005406327,
0.010773067331670824,0.028409583633758485,
0.010822942643391521,0.01612908381333062,
0.01087281795511222,-0.0009871514649814166,
0.010922693266832918,0.006577168646241263,
0.010972568578553617,0.04610667741278243,
0.011022443890274314,0.013196676604054157,
0.011072319201995013,0.017954250639753488,
0.01112219451371571,0.008930626119199533,
0.011172069825436408,0.015490075038531934,
0.011221945137157107,0.0367700101013297,
0.011271820448877805,0.008142552020138942,
0.011321695760598504,0.016249518218945554,
0.011371571072319201,0.015454938001750577,
0.0114214463840399,0.03319863835921784,
0.011471321695760598,0.0298281307811639,
0.011521197007481297,0.017975206893327662,
0.011571072319201995,0.02577277774899682,
0.011620947630922694,0.011008380816839742,
0.011670822942643391,0.01477962325875604,
0.01172069825436409,0.0041604080476608605,
0.011770573566084788,0.05441249938143866,
0.011820448877805487,-0.0158923683794709,
0.011870324189526184,0.014528727346011013,
0.011920199501246884,-0.0013800418712481832,
0.011970074812967581,0.025376915037764784,
0.012019950124688279,0.032978561538841246,
0.012069825436408978,0.0006065745433081367,
0.012119700748129675,0.03426048030257643,
0.012169576059850374,0.015809675480003414,
0.012219451371571072,0.012049405470064369,
0.012269326683291771,0.0010581203992195108,
0.012319201995012468,0.02138951488419369,
0.012369077306733168,0.05398824604346507,
0.012418952618453865,0.03930582170543909,
0.012468827930174564,0.0281906850989133,
0.012518703241895262,0.032805577216813986,
0.01256857855361596,-0.006676210340906253,
0.012618453865336658,0.007985819092205821,
0.012668329177057357,0.026235076759460248,
0.012718204488778055,0.01624704074977905,
0.012768079800498754,0.012293741494642274,
0.012817955112219451,0.033452028339146886,
0.012867830423940149,0.014399192208068887,
0.012917705735660848,-0.0014012859312981258,
0.012967581047381545,0.018804844128748374,
0.013017456359102245,0.02237902100325373,
0.013067331670822942,0.0006801776617112176,
0.013117206982543641,0.011098818678568588,
0.013167082294264339,0.01717241372827846,
0.013216957605985038,0.003923706917013128,
0.013266832917705735,-0.010235571521988939,
0.013316708229426434,0.018419363088398817,
0.013366583541147132,0.043902093342959275,
0.013416458852867831,0.018911249329013217,
0.013466334164588529,-0.008898990881155863,
0.013516209476309228,0.020791171965495577,
0.013566084788029925,-0.00042253980027184314,
0.013615960099750624,-0.022900937762460674,
0.013665835411471322,0.024077915402683392,
0.01371571072319202,-0.0029148208723431407,
0.013765586034912718,-0.015624506798327617,
0.013815461346633416,0.03202207879509335,
0.013865336658354115,0.016512890659184012,
0.013915211970074812,0.016039589615472714,
0.013965087281795512,-0.023101758507543712,
0.014014962593516209,-0.006694895322777646,
0.014064837905236908,0.029298610864910958,
0.014114713216957606,-0.004305501940932828,
0.014164588528678305,0.030560023474973008,
0.014214463840399002,0.007502238440589325,
0.014264339152119701,-0.006873553664708417,
0.014314214463840399,0.00708371883634435,
0.014364089775561098,0.021163135047305465,
0.014413965087281795,0.020032920540025177,
0.014463840399002495,0.0214966657573306,
0.014513715710723192,0.01837131553208058,
0.01456359102244389,0.009202965312152967,
0.014613466334164589,0.004174613635472428,
0.014663341645885286,0.013155447848043194,
0.014713216957605985,-0.002075301831243116,
0.014763092269326683,0.02646918713833646,
0.014812967581047382,-0.014166945729949119,
0.01486284289276808,-0.006248786002163572,
0.014912718204488778,0.003555294126718403,
0.014962593516209476,0.018573889943036617,
0.015012468827930175,-0.015930240561804233,
0.015062344139650873,0.00618536873437269,
0.015112219451371572,-0.006065321290730805,
0.01516209476309227,0.000103075541956566,
0.015211970074812968,-0.009615767616129367,
0.015261845386533666,-0.009592430461842296,
0.015311720698254365,0.020791888688476,
0.015361596009975062,-0.02028419775178506,
0.01541147132169576,-0.008421839263610453,
0.015461346633416459,-0.0035737476390929083,
0.015511221945137156,-0.01197136085634734,
0.015561097256857856,0.007337605592839614,
0.015610972568578553,-0.009294068663340467,
0.015660847880299252,0.004474792682097686,
0.01571072319201995,0.008627043672154479,
0.015760598503740647,-0.010240762671421912,
0.015810473815461346,-0.021713903898116726,
0.015860349127182045,0.029291201061234944,
0.015910224438902745,-0.0008492213748291146,
0.01596009975062344,-0.002139706257321972,
0.01600997506234414,-0.03301313088462949,
0.01605985037406484,-0.010149853243307824,
0.016109725685785538,-0.005758472999046595,
0.016159600997506234,-0.015954514218194625,
0.016209476309226933,0.008899805367807184,
0.016259351620947632,0.016223604992453747,
0.016309226932668328,-0.0036330782742489544,
0.016359102244389027,-0.003937712295625915,
0.016408977556109726,0.012721207394217898,
0.016458852867830425,0.00913065973469973,
0.01650872817955112,-0.0064714169456326935,
0.01655860349127182,0.008847771738409897,
0.01660847880299252,0.02048526938204638,
0.01665835411471322,-0.0009463253805689267,
0.016708229426433914,0.0002906568478774404,
0.016758104738154613,-0.009823388308350126,
0.016807980049875312,0.00359524859612719,
0.01685785536159601,0.019248226885271315,
0.016907730673316707,0.006636532732639578,
0.016957605985037406,-0.03295126313902623,
0.017007481296758106,-0.027995086195091876,
0.0170573566084788,-0.016836554567855513,
0.0171072319201995,-0.013621893445755782,
0.0171571072319202,-0.010475191392053692,
0.0172069825436409,0.0016882969514150636,
0.017256857855361595,0.00843519615750636,
0.017306733167082294,-0.00844622569511328,
0.017356608478802993,-0.02821068481802329,
0.017406483790523692,-0.007286285050290117,
0.017456359102244388,-0.018878057753658216,
0.017506234413965087,-0.0008843110573782311,
0.017556109725685786,-0.025953963148008234,
0.017605985037406485,0.036940556523993126,
0.01765586034912718,0.013159235475080779,
0.01770573566084788,0.002879730739370128,
0.01775561097256858,0.008033269111630293,
0.01780548628428928,-0.0020919680627203632,
0.017855361596009974,-0.012057583156813748,
0.017905236907730673,-0.0006558207322931772,
0.017955112219451373,-0.009203375194101842,
0.018004987531172068,-0.023941107157020462,
0.018054862842892767,-0.019107491018759915,
0.018104738154613467,-0.04686666721819805,
0.018154613466334166,0.0016119464996722302,
0.01820448877805486,-0.0009525051283636402,
0.01825436408977556,-0.012884858803631756,
0.01830423940149626,-0.02415980684426848,
0.01835411471321696,-0.025896791271763843,
0.018403990024937655,-0.012520023919893396,
0.018453865336658354,0.013200100479272413,
0.018503740648379053,-0.01688310505890641,
0.018553615960099752,-0.028465736230548794,
0.018603491271820448,-0.03157796649368326,
0.018653366583541147,0.005390245511939444,
0.018703241895261846,-0.026092673664773774,
0.018753117206982542,-0.030170507004305232,
0.01880299251870324,-0.01064873487862842,
0.01885286783042394,-0.03377554034547835,
0.01890274314214464,-0.006465757018625555,
0.018952618453865335,-0.023012794857575875,
0.019002493765586034,-0.004653649960756703,
0.019052369077306733,-0.011433092169169164,
0.019102244389027433,-0.008716685902559132,
0.01915211970074813,-0.014722873796407653,
0.019201995012468828,-0.028253687320631944,
0.019251870324189527,-0.005481690612674735,
0.019301745635910226,-0.034561996143821425,
0.01935162094763092,-0.020482084328408597,
0.01940149625935162,-0.026096418157258106,
0.01945137157107232,0.025386949738736706,
0.01950124688279302,-0.007731883614912319,
0.019551122194513715,-0.0030078166428580376,
0.019600997506234414,-0.023125393985676455,
0.019650872817955113,-0.018150621535153386,
0.01970074812967581,-0.031000954911541,
0.019750623441396508,-0.028552450632889206,
0.019800498753117207,-0.0043111727508905965,
0.019850374064837906,-0.02036687005812546,
0.019900249376558602,-0.020810184709288058,
0.0199501246882793,-0.043081275699423285,
0.02,-0.016406351911658908,
0.0200498753117207,-0.02211408589788276,
0.020099750623441395,-0.022621624277689732,
0.020149625935162094,-0.0011948699752486885,
0.020199501246882794,-0.014426789568719608,
0.020249376558603493,-0.011724245111123324,
0.02029925187032419,-0.039988145024544806,
0.020349127182044888,-0.04445313751690182,
0.020399002493765587,-0.018850396543811578,
0.020448877805486283,-0.03931606812124558,
0.02049875311720698,-0.001928188907424258,
0.02054862842892768,-0.011168627455694354,
0.02059850374064838,-0.027379417122488828,
0.020648379052369076,-0.026089037352078043,
0.020698254364089775,-0.026138744146363756,
0.020748129675810474,-0.024286985894021017,
0.020798004987531173,-0.007535808448400334,
0.02084788029925187,-0.01635762131542938,
0.020897755610972568,-0.008724763759887183,
0.020947630922693267,-0.007673998515405095,
0.020997506234413967,-0.018911032818411326,
0.021047381546134662,-0.030687778940131246,
0.02109725685785536,-0.026386865406144426,
0.02114713216957606,0.004664864174205811,
0.02119700748129676,-0.046833326795645364,
0.021246882793017455,-0.025669707153475295,
0.021296758104738155,-0.0013168040307985074,
0.021346633416458854,-0.009849446746894289,
0.02139650872817955,-0.007824360749813332,
0.02144638403990025,-0.019108119483505576,
0.021496259351620948,4.043516979315709e-06,
0.021546134663341647,-0.03593371766982423,
0.021596009975062343,-0.01760930737602261,
0.021645885286783042,-0.014680356546721571,
0.02169576059850374,-0.024113931125329235,
0.02174563591022444,-0.017871180468512906,
0.021795511221945136,-0.002429452670619635,
0.021845386533665835,-0.017583112026522175,
0.021895261845386534,-0.029612831588987372,
0.021945137157107233,-0.03480052147320583,
0.02199501246882793,-0.010859879552074325,
0.02204488778054863,-0.030129396983772174,
0.022094763092269327,-0.013565810487612717,
0.022144638403990027,-0.027627584373007122,
0.022194513715710722,-0.026538931302474044,
0.02224438902743142,-0.03691251257307345,
0.02229426433915212,-0.027531590796855805,
0.022344139650872816,-0.004769882388392432,
0.022394014962593516,-0.016086510236446763,
0.022443890274314215,-0.03703043743648547,
0.022493765586034914,-0.005376180035637978,
0.02254364089775561,-0.03681737880275541,
0.02259351620947631,-0.029180214620698,
0.022643391521197008,0.0008985827295973671,
0.022693266832917707,-0.023264468357453626,
0.022743142144638403,-0.037949006513989726,
0.022793017456359102,0.020211746186506736,
0.0228428927680798,0.004083571132565883,
0.0228927680798005,-0.0199820562948748,
0.022942643391521196,0.006037519857977503,
0.022992518703241895,0.026878058773214756,
0.023042394014962594,0.00020865733919340872,
0.02309226932668329,-0.024166443489667157,
0.02314214463840399,0.0008966914103688238,
0.02319201995012469,-0.01685653881060418,
0.023241895261845388,-0.0057305565473064705,
0.023291770573566083,-0.011530774026520913,
0.023341645885286783,0.01853294858535634,
0.02339152119700748,0.012405981664348871,
0.02344139650872818,-0.012774789972314286,
0.023491271820448877,-0.03252218038225628,
0.023541147132169576,-0.020168181457942608,
0.023591022443890275,0.008238471748166339,
0.023640897755610974,-0.011016559830647366,
0.02369077306733167,-0.002749278570832324,
0.02374064837905237,-0.000823883263046719,
0.023790523690773068,-0.008796318204759217,
0.023840399002493767,-0.018067136761838708,
0.023890274314214463,-0.003840127997215712,
0.023940149625935162,-0.012515242924892443,
0.02399002493765586,-0.0007358668483165324,
0.024039900249376557,-0.0010966079482396347,
0.024089775561097256,-0.007735682343538204,
0.024139650872817955,0.006175241627402862,
0.024189526184538655,-0.04557915491869231,
0.02423940149625935,-0.04007228233029848,
0.02428927680798005,-0.004800205270651026,
0.02433915211970075,-0.0018950500987773163,
0.024389027431421448,0.008122756414790006,
0.024438902743142144,-0.00644609450587773,
0.024488778054862843,-0.027386373812341526,
0.024538653366583542,0.02927451290322238,
0.02458852867830424,0.0032137497265954133,
0.024638403990024937,0.003188551551066104,
0.024688279301745636,-0.009606893342554228,
0.024738154613466335,-0.011164099433963525,
0.02478802992518703,-0.01773566319986052,
0.02483790523690773,0.014051751650572042,
0.02488778054862843,0.006496189020362952,
0.02493765586034913,-0.0015689658487089214,
0.024987531172069824,0.006019574925488266,
0.025037406483790523,0.01487088156279141,
0.025087281795511222,0.0021159715576218267,
0.02513715710723192,0.019047672113999586,
0.025187032418952617,-0.010795518460517635,
0.025236907730673316,0.007655523278327815,
0.025286783042394016,0.026860447677764358,
0.025336658354114715,0.019800770598188928,
0.02538653366583541,-0.019729473370577042,
0.02543640897755611,-0.007203689954163617,
0.02548628428927681,0.008918249126884414,
0.025536159600997508,0.014182076416773593,
0.025586034912718204,0.02592473181335763,
0.025635910224438903,0.01848198540931266,
0.025685785536159602,0.008013940383343297,
0.025735660847880298,0.0014622240233179758,
0.025785536159600997,0.018089706660294073,
0.025835411471321696,-0.012687098057794482,
0.025885286783042395,0.04507503203789681,
0.02593516209476309,0.005925830234291052,
0.02598503740648379,-0.003527400988259,
0.02603491271820449,-0.008341223774979454,
0.02608478802992519,0.004430131610916375,
0.026134663341645884,-0.006076138413097306,
0.026184538653366583,0.01849458383469911,
0.026234413965087282,-0.014817045164520357,
0.02628428927680798,0.02221976708384574,
0.026334164588528677,-0.014958009692182177,
0.026384039900249377,0.03329684554541837,
0.026433915211970076,-0.009566537343024142,
0.02648379052369077,-0.00613585079826082,
0.02653366583541147,0.02005902424676788,
0.02658354114713217,0.03334650578705962,
0.02663341645885287,0.007245308573742135,
0.026683291770573565,0.003083525690610704,
0.026733167082294264,-0.00036105474531239294,
0.026783042394014963,0.04991120904483763,
0.026832917705735662,0.00837129952008739,
0.026882793017456358,-0.0020401222903549295,
0.026932668329177057,0.013635319099690674,
0.026982543640897756,0.005633855858780856,
0.027032418952618455,0.001925045760460882,
0.02708229426433915,0.0010126621913148469,
0.02713216957605985,-0.0035443589028805074,
0.02718204488778055,0.004392249443991622,
0.02723192019950125,0.027492148519086004,
0.027281795511221944,0.014857268081473925,
0.027331670822942643,0.043329992956741115,
0.027381546134663343,-0.001139506478426977,
0.02743142144638404,0.00816424047065457,
0.027481296758104738,0.0026679911982798177,
0.027531172069825437,0.002693089445986679,
0.027581047381546136,0.026788145425014037,
0.02763092269326683,0.019210557881219198,
0.02768079800498753,0.005640082909702018,
0.02773067331670823,0.005584608611984419,
0.02778054862842893,0.006929397382492486,
0.027830423940149625,0.015164052530966126,
0.027880299251870324,0.01735728217697148,
0.027930174563591023,0.03874620710778423,
0.027980049875311722,0.022268978611252307,
0.028029925187032418,0.01821380608818883,
0.028079800498753117,0.03171014858713041,
0.028129675810473816,0.01904573879431382,
0.028179551122194512,0.03225594928228173,
0.02822942643391521,0.012051459545871942,
0.02827930174563591,0.046201132146017336,
0.02832917705735661,0.023154900311534894,
0.028379052369077305,-0.004563616754297194,
0.028428927680798004,-0.0011716963931711032,
0.028478802992518704,-0.0016983468122934789,
0.028528678304239403,0.03075287241150789,
0.0285785536159601,0.003804160051403785,
0.028628428927680798,0.02605514741232422,
0.028678304239401497,0.02410630109712535,
0.028728179551122196,-0.012381470332587664,
0.02877805486284289,0.0346191763465444,
0.02882793017456359,0.01770776338124612,
0.02887780548628429,0.026603579391587875,
0.02892768079800499,0.045869683547855936,
0.028977556109725685,0.015725728862781053,
0.029027431421446384,0.014349719156507072,
0.029077306733167083,-0.0053021842234632875,
0.02912718204488778,0.02324629190346009,
0.029177057356608478,0.022144776720270272,
0.029226932668329177,0.020109561852783467,
0.029276807980049877,0.03716469119163757,
0.029326683291770572,0.01128163209235795,
0.02937655860349127,0.04102217930087941,
0.02942643391521197,0.03195873564673271,
0.02947630922693267,0.015208378167884343,
0.029526184538653365,0.044360208047833666,
0.029576059850374065,0.009514888102975669,
0.029625935162094764,0.01992358584578368,
0.029675810473815463,0.0414652107152229,
0.02972568578553616,0.014055946417741272,
0.029775561097256858,0.021040879573948845,
0.029825436408977557,0.030417171159647705,
0.029875311720698253,0.011613311311641731,
0.029925187032418952,0.034091372297629964,
0.02997506234413965,0.011237300335596187,
0.03002493765586035,0.005421190636878605,
0.030074812967581046,0.03166564614065324,
0.030124688279301745,0.028660259210513007,
0.030174563591022444,0.006320924712092602,
0.030224438902743143,0.032582693356500304,
0.03027431421446384,0.0014610279740188345,
0.03032418952618454,0.023902676661382988,
0.030374064837905237,0.017362073715839976,
0.030423940149625937,0.025320831549585893,
0.030473815461346632,0.0020904293408136806,
0.03052369077306733,0.012334322035189523,
0.03057356608478803,0.024504875456692835,
0.03062344139650873,0.026007421852851237,
0.030673316708229426,0.04214380416180545,
0.030723192019950125,0.008172490136224163,
0.030773067331670824,0.04277947962146403,
0.03082294264339152,0.008495384741239882,
0.03087281795511222,0.004186868510663886,
0.030922693266832918,0.020538440327354423,
0.030972568578553617,0.031239805147917323,
0.031022443890274313,0.021080274508389868,
0.031072319201995012,0.015251145670665083,
0.03112219451371571,0.023828082980840673,
0.03117206982543641,0.009765273849679986,
0.031221945137157106,0.01244730115392338,
0.03127182044887781,0.04116466903850148,
0.031321695760598504,0.012703206656019149,
0.0313715710723192,0.01941717220938084,
0.0314214463840399,0.04198821905428281,
0.0314713216957606,0.04259951245832459,
0.031521197007481294,-0.0015872346985050557,
0.031571072319202,0.029888689991731617,
0.03162094763092269,0.0014969117707919477,
0.03167082294264339,0.020162967543389743,
0.03172069825436409,0.020026948145923602,
0.03177057356608479,0.0175166259019404,
0.03182044887780549,0.05492970331810167,
0.031870324189526185,0.003797471494493526,
0.03192019950124688,0.005497833808803948,
0.03197007481296758,0.03560569999372963,
0.03201995012468828,0.003691884524857506,
0.032069825436408975,-0.008839474600337644,
0.03211970074812968,0.002465850164657616,
0.03216957605985037,0.005411672649082901,
0.032219451371571076,0.013819486029129795,
0.03226932668329177,-0.002610593369813074,
0.03231920199501247,0.02173120492423146,
0.03236907730673317,-0.008846928939705175,
0.032418952618453865,0.01950515832416663,
0.03246882793017456,0.02204171820057676,
0.032518703241895264,0.03513409659806958,
0.03256857855361596,0.006102082836912699,
0.032618453865336655,-0.012725986422724711,
0.03266832917705736,0.026744459720490058,
0.032718204488778053,0.004980346928015328,
0.032768079800498756,0.001320014937579675,
0.03281795511221945,0.02356181074232972,
0.03286783042394015,0.015165695460153382,
0.03291770573566085,-0.01507408058809135,
0.032967581047381546,0.021755425509001503,
0.03301745635910224,0.02602048186291831,
0.033067331670822944,0.011167049951816827,
0.03311720698254364,0.019632134331480686,
0.03316708229426434,-0.013200816826262509,
0.03321695760598504,0.013838572174577768,
0.033266832917705734,0.0218489138902027,
0.03331670822942644,0.01683175280932741,
0.03336658354114713,0.012980565018978804,
0.03341645885286783,-0.0088903777993609,
0.03346633416458853,0.01695743101357449,
0.033516209476309226,0.0010788263929997644,
0.03356608478802992,0.02186620824738457,
0.033615960099750625,0.016498920683560146,
0.03366583541147132,0.002631769983572141,
0.03371571072319202,-0.004556094582929757,
0.03376558603491272,0.004207342422710444,
0.033815461346633414,0.018987532867046013,
0.03386533665835412,0.024865352370482877,
0.03391521197007481,-0.006766489965957634,
0.03396508728179551,0.010433784961592432,
0.03401496259351621,0.014503474455886536,
0.03406483790523691,0.006871603330807311,
0.0341147132169576,0.013743466001688222,
0.034164588528678305,0.027239718726082773,
0.034214463840399,0.007762429297609516,
0.034264339152119704,0.020741882238192982,
0.0343142144638404,0.023802476313930423,
0.034364089775561095,-0.006441838074803986,
0.0344139650872818,-0.005953707102096753,
0.03446384039900249,0.0022557099847137227,
0.03451371571072319,0.015866584922363345,
0.03456359102244389,-0.00931522306364492,
0.03461346633416459,0.0432232194951671,
0.03466334164588529,0.008063375289469868,
0.034713216957605986,0.016659953655717437,
0.03476309226932668,-0.006153556616319564,
0.034812967581047384,-0.014025595170141361,
0.03486284289276808,0.0028484209268299625,
0.034912718204488775,0.019615105409236007,
0.03496259351620948,0.009153271838619005,
0.035012468827930174,0.02359521436424286,
0.03506234413965087,0.012327987858649773,
0.03511221945137157,0.027703978014055042,
0.03516209476309227,0.009852032930381928,
0.03521197007481297,-0.018171079859447315,
0.035261845386533666,-0.012174441516594641,
0.03531172069825436,0.013634197948815516,
0.035361596009975065,0.013403057732797484,
0.03541147132169576,-0.0011027486216899263,
0.035461346633416456,-0.003933496887801438,
0.03551122194513716,-0.008604580566601367,
0.035561097256857854,-0.01601141545214894,
0.03561097256857856,-0.014960497846236733,
0.03566084788029925,-0.005166498513545772,
0.03571072319201995,-0.015674108753539612,
0.03576059850374065,0.032189645076196975,
0.03581047381546135,-0.0233514678044785,
0.03586034912718204,0.01375387494010867,
0.035910224438902745,-0.015499963945376926,
0.03596009975062344,0.01362795336102228,
0.036009975062344136,-0.004591462227962471,
0.03605985037406484,-0.003241426934741585,
0.036109725685785535,0.015040285205590453,
0.03615960099750624,-0.0008085314747526494,
0.03620947630922693,0.005194521317523903,
0.03625935162094763,-0.002747117319226677,
0.03630922693266833,-0.014615317100460275,
0.03635910224438903,-0.013379789590943722,
0.03640897755610972,-0.014267561658396821,
0.036458852867830426,-0.020866705474831923,
0.03650872817955112,-0.011174074938527179,
0.036558603491271824,0.011842362806285785,
0.03660847880299252,0.009530477480075128,
0.036658354114713215,0.006374454386410024,
0.03670822942643392,0.008472780162477139,
0.036758104738154614,-0.030553369822147805,
0.03680798004987531,-0.0024962718187281786,
0.03685785536159601,-0.029569293576242973,
0.03690773067331671,-0.0054339338603356865,
0.0369576059850374,-0.00472021790399502,
0.037007481296758106,-0.00483233480438359,
0.0370573566084788,-0.02533654458736258,
0.037107231920199504,-0.016946271704212867,
0.0371571072319202,-0.02983431647651843,
0.037206982543640896,-0.027581749064626633,
0.0372568578553616,-0.02137888374110452,
0.037306733167082294,-0.022128030756887497,
0.03735660847880299,-0.024702212399338223,
0.03740648379052369,-0.01078967927948277,
0.03745635910224439,-0.012633105128885314,
0.037506234413965084,-0.01918084261485739,
0.037556109725685786,-0.005674025459553244,
0.03760598503740648,-0.01976636608679121,
0.037655860349127185,-0.027148255821158603,
0.03770573566084788,-0.005040733782804292,
0.037755610972568576,-0.00283352252210144,
0.03780548628428928,-4.988166958982618e-05,
0.037855361596009975,-0.0027570110444264575,
0.03790523690773067,0.0017169987577640693,
0.03795511221945137,0.0019063327358407774,
0.03800498753117207,-0.00962831107581648,
0.03805486284289277,-0.01277344293530245,
0.03810473815461347,0.010719117348402238,
0.03815461346633416,-0.022342423766158102,
0.038204488778054865,-0.021679825765665607,
0.03825436408977556,-0.003633803029833991,
0.03830423940149626,-0.01410048962418135,
0.03835411471321696,-0.0015719355518768116,
0.038403990024937655,-0.029318553013280187,
0.03845386533665835,-0.032354434042662215,
0.03850374064837905,-0.021545588260328433,
0.03855361596009975,-0.012958138075183553,
0.03860349127182045,-0.0065116062968853545,
0.03865336658354115,-0.004255371721549455,
0.03870324189526184,-0.017956249342153778,
0.038753117206982546,-0.015835142648085113,
0.03880299251870324,0.013897948436479594,
0.03885286783042394,-0.036656119262999116,
0.03890274314214464,-0.06079946113190192,
0.038952618453865336,-0.025513353655044223,
0.03900249376558604,-0.014911086343628662,
0.039052369077306734,-0.018053186844205524,
0.03910224438902743,-0.018073149433575898,
0.03915211970074813,0.006356383205545213,
0.03920199501246883,-0.016524573296310567,
0.039251870324189524,0.002828103176917146,
0.039301745635910226,-0.04702501478761183,
0.03935162094763092,-0.005724023654654537,
0.03940149625935162,-0.02256927140591817,
0.03945137157107232,-0.019712729521150055,
0.039501246882793016,-0.023290996624161793,
0.03955112219451372,0.00654971691201562,
0.039600997506234414,-0.010789135801816264,
0.03965087281795511,-0.006085473404350143,
0.03970074812967581,-0.006611845631223384,
0.03975062344139651,-0.02717528443735203,
0.039800498753117204,-0.007639609811682756,
0.03985037406483791,-0.020818701988455635,
0.0399002493765586,-0.027123587968661437,
0.039950124688279305,0.014626291681406278,
0.04,-0.02221270849463419,
0.0400498753117207,-0.021977363758856536,
0.0400997506234414,-0.029590145872576357,
0.040149625935162095,-0.0066637269314291855,
0.04019950124688279,-0.03249780790786793,
0.04024937655860349,-0.0036542256632839786,
0.04029925187032419,-0.037622312462390256,
0.040349127182044885,0.0029053352856983766,
0.04039900249376559,-0.020076203811287677,
0.04044887780548628,-0.027895781486999307,
0.040498753117206986,-0.005644436414975026,
0.04054862842892768,-0.04159006439964347,
0.04059850374064838,-0.001770418851067752,
0.04064837905236908,0.017925070144168866,
0.040698254364089775,-0.008208426066146076,
0.04074812967581047,-0.007257873070506741,
0.040798004987531174,-0.027848828208677144,
0.04084788029925187,-0.028003214578853297,
0.040897755610972565,-0.036525370503701145,
0.04094763092269327,-0.038257988866112626,
0.04099750623441396,-0.04137377947778612,
0.041047381546134666,-0.006467917418630859,
0.04109725685785536,-0.036335156313463936,
0.04114713216957606,-0.03844219064698712,
0.04119700748129676,-0.0029461825249296938,
0.041246882793017456,0.0005644411727647666,
0.04129675810473815,-0.01626255539857469,
0.041346633416458854,0.002621041568584701,
0.04139650872817955,-0.04802669226995121,
0.04144638403990025,-0.00787943803362273,
0.04149625935162095,-0.020015715097420346,
0.041546134663341644,0.003061013304760156,
0.04159600997506235,-0.011303385395649374,
0.04164588528678304,-0.0024020417682608496,
0.04169576059850374,-0.04023027197251684,
0.04174563591022444,0.005864610472067648,
0.041795511221945136,0.005460305666053855,
0.04184538653366583,-0.018656121230908,
0.041895261845386535,-0.019912142437210255,
0.04194513715710723,-0.01913954361548472,
0.04199501246882793,-0.008601075001644549,
0.04204488778054863,0.0035385996207961245,
0.042094763092269324,-0.017021082354662997,
0.04214463840399003,-0.036689809082766776,
0.04219451371571072,-0.03939423170995733,
0.04224438902743142,0.005678660793862811,
0.04229426433915212,-0.019221579238119568,
0.04234413965087282,0.0015109771584284268,
0.04239401496259352,-0.01968081867715102,
0.042443890274314215,-0.004047201740355612,
0.04249376558603491,-0.0217400818029812,
0.042543640897755614,-0.020176132685006367,
0.04259351620947631,-0.048614858471908606,
0.042643391521197005,-0.013549767763684254,
0.04269326683291771,-0.018414353726077057,
0.0427431421446384,-0.028679361388655414,
0.0427930174563591,-0.04624514167028266,
0.0428428927680798,-0.025324732923917147,
0.0428927680798005,-0.005533810041611306,
0.0429426433915212,-0.005722040502248132,
0.042992518703241896,-0.02916957733243279,
0.04304239401496259,-0.013143637215933028,
0.043092269326683294,0.01692467123321431,
0.04314214463840399,0.0017464061452155365,
0.043192019950124685,-0.006431643301047273,
0.04324189526184539,-0.01399281641959341,
0.043291770573566084,-0.0009419540687884394,
0.043341645885286786,-0.021150220057988726,
0.04339152119700748,0.006312111675254093,
0.04344139650872818,0.014552417610353351,
0.04349127182044888,-0.00468033832922197,
0.043541147132169576,-0.025862590172250923,
0.04359102244389027,-0.00028398039396346133,
0.043640897755610975,-0.013094862951477805,
0.04369077306733167,0.008284999869709642,
0.043740648379052366,-0.014616389957201343,
0.04379052369077307,-0.008454198894000146,
0.043840399002493764,0.0008446362458424906,
0.04389027431421447,-0.028784391205109738,
0.04394014962593516,0.0023808823293295445,
0.04399002493765586,0.0015977609518836398,
0.04403990024937656,-0.001988654424002277,
0.04408977556109726,0.001556064963201966,
0.04413965087281795,-0.0028178452117735737,
0.044189526184538655,0.01529799131062748,
0.04423940149625935,0.009566814335952722,
0.04428927680798005,0.003275573947462261,
0.04433915211970075,-0.02287941706134135,
0.044389027431421445,0.0011397744127990212,
0.04443890274314215,-0.0053682234569203645,
0.04448877805486284,-0.01815270155086323,
0.04453865336658354,-0.005451158685201719,
0.04458852867830424,0.020959683380852502,
0.04463840399002494,0.03374113574898479,
0.04468827930174563,-0.0021576256303942605,
0.044738154613466335,-0.0029614754378873382,
0.04478802992518703,0.0013661264256867583,
0.044837905236907734,-0.007123438450706048,
0.04488778054862843,-0.014697918206580573,
0.044937655860349125,-0.011733673190534278,
0.04498753117206983,-0.009421659172808506,
0.045037406483790524,-0.0050987452585829676,
0.04508728179551122,0.027233316933560906,
0.04513715710723192,0.014916939710906163,
0.04518703241895262,-0.013293721831954847,
0.04523690773067331,-0.0001995038094964644,
0.045286783042394016,0.023601073762650217,
0.04533665835411471,0.010649929546419738,
0.045386533665835414,0.002960910527120059,
0.04543640897755611,0.015550814427050193,
0.045486284289276806,0.023841223799848786,
0.04553615960099751,0.024589380981312674,
0.045586034912718204,0.033123802133128044,
0.0456359102244389,0.024268602406718163,
0.0456857855361596,0.024345828610051745,
0.0457356608478803,-0.0029368847211559586,
0.045785536159601,0.012482426032349466,
0.045835411471321696,0.02776848157334725,
0.04588528678304239,0.03143175981489805,
0.045935162094763095,0.006545590931215418,
0.04598503740648379,0.021366480931905445,
0.046034912718204486,0.019476913401403038,
0.04608478802992519,-0.0021495869219593858,
0.046134663341645885,0.004935605508234951,
0.04618453865336658,0.015953070328716838,
0.04623441396508728,0.004386973796784285,
0.04628428927680798,0.014704002715997727,
0.04633416458852868,0.026308853589978008,
0.04638403990024938,-0.004304638051569774,
0.04643391521197007,0.015108313730624679,
0.046483790523690775,0.035857425179613066,
0.04653366583541147,-0.0002677720771925383,
0.04658354114713217,0.025635440705615298,
0.04663341645885287,0.030543475545323093,
0.046683291770573565,0.009491742934822432,
0.04673316708229427,-0.002202943520377724,
0.04678304239401496,0.0087760257114366,
0.04683291770573566,0.0022411527516456274,
0.04688279301745636,-0.0022773488612634948,
0.04693266832917706,0.03033649913609361,
0.04698254364089775,0.001506150324539001,
0.047032418952618456,0.0003017027125535917,
0.04708229426433915,0.05261234703009306,
0.04713216957605985,0.004142421669751232,
0.04718204488778055,0.03170790360520437,
0.047231920199501246,0.03836395017822648,
0.04728179551122195,0.04236189069831955,
0.047331670822942644,0.011890543566112858,
0.04738154613466334,0.04206596864838491,
0.04743142144638404,0.0013330897346405211,
0.04748129675810474,-0.011704199682594136,
0.047531172069825434,0.006639771073315162,
0.047581047381546136,0.029672804078449556,
0.04763092269326683,0.04176854300280229,
0.047680798004987535,0.016615392500082336,
0.04773067331670823,0.04718659854489503,
0.047780548628428926,0.033605336749577226,
0.04783042394014963,-0.0037972714496677766,
0.047880299251870324,0.0064714509409636405,
0.04793017456359102,0.02595385546700935,
0.04798004987531172,0.025362053904632396,
0.04802992518703242,0.011232068400484243,
0.048079800498753114,0.042961116881487335,
0.04812967581047382,0.008528646978451338,
0.04817955112219451,0.010343886291722554,
0.048229426433915215,0.018922186303094286,
0.04827930174563591,0.014190792124793822,
0.048329177057356607,0.01533780436810875,
0.04837905236907731,0.0589366908965566,
0.048428927680798005,0.031885739090084506,
0.0484788029925187,0.0010090307791504362,
0.0485286783042394,0.03068603295418098,
0.0485785536159601,0.03520491958003809,
0.048628428927680795,-0.0017699296789487826,
0.0486783042394015,0.018116711249851453,
0.04872817955112219,0.01527018139542053,
0.048778054862842896,0.014585683466369894,
0.04882793017456359,-0.004658408979147335,
0.04887780548628429,0.04257048454215032,
0.04892768079800499,0.0119201474970166,
0.048977556109725685,0.021294824500772417,
0.04902743142144638,0.007395672813563918,
0.049077306733167084,0.039411220009276965,
0.04912718204488778,0.042219524501200756,
0.04917705735660848,0.0010788473223050064,
0.04922693266832918,0.006170018926435761,
0.04927680798004987,0.02564098790609705,
0.049326683291770576,0.027606947750341726,
0.04937655860349127,0.026071443386399745,
0.04942643391521197,0.024471746889675336,
0.04947630922693267,-0.001007906128830359,
0.049526184538653366,0.01497807485101923,
0.04957605985037406,0.03360884533295968,
0.049625935162094764,0.030795064497658654,
0.04967581047381546,0.018948693480740443,
0.04972568578553616,0.02489813790718947,
0.04977556109725686,0.022874940614195094,
0.049825436408977554,0.016519829255521017,
0.04987531172069826,0.01589428623487448,
0.04992518703241895,0.023504310016997126,
0.04997506234413965,0.05252798602143682,
0.05002493765586035,0.02663483696192875,
0.050074812967581046,0.02941169234609586,
0.05012468827930175,0.01919825302648784,
0.050174563591022445,0.02562395521934091,
0.05022443890274314,0.02974626640362979,
0.05027431421446384,0.028131819370460564,
0.05032418952618454,0.016035233890926114,
0.050374064837905234,0.05307214773036246,
0.05042394014962594,0.016224559569901268,
0.05047381546134663,0.024402669297256013,
0.05052369077306733,0.03428452513058965,
0.05057356608478803,0.022978052449765984,
0.05062344139650873,0.011083856756398995,
0.05067331670822943,0.01969799588238134,
0.050723192019950125,0.012960309856361702,
0.05077306733167082,0.0033431259790712153,
0.050822942643391524,0.01875671397876333,
0.05087281795511222,0.001985448316294068,
0.050922693266832915,0.027821438171576684,
0.05097256857855362,0.012617864574348497,
0.05102244389027431,-0.004960089516410866,
0.051072319201995016,0.05801702287700007,
0.05112219451371571,0.031676921050587725,
0.05117206982543641,0.02605660694175533,
0.05122194513715711,0.008870285487701078,
0.051271820448877806,0.025118641295016942,
0.0513216957605985,0.047017371257431675,
0.051371571072319204,0.019545372840953593,
0.0514214463840399,0.05263178548082119,
0.051471321695760595,0.006892281360773847,
0.0515211970074813,0.006918399023942432,
0.051571072319201994,0.0254100246562981,
0.051620947630922696,0.020447614268006002,
0.05167082294264339,0.0213352498298632,
0.05172069825436409,0.01393112422831376,
0.05177057356608479,0.012764966885539875,
0.051820448877805486,0.06484197759038407,
0.05187032418952618,0.04027887610881287,
0.051920199501246884,0.014704090205424904,
0.05197007481296758,0.0177053462415152,
0.052019950124688276,0.02387611230784489,
0.05206982543640898,0.025099232783248344,
0.052119700748129674,0.023175499005035422,
0.05216957605985038,0.029595976369918685,
0.05221945137157107,0.043701409626201074,
0.05226932668329177,0.017314345195268067,
0.05231920199501247,-0.006135316326780927,
0.05236907730673317,0.012867831375940445,
0.05241895261845386,0.0159760583229396,
0.052468827930174565,0.001021172918196027,
0.05251870324189526,0.02863688505963657,
0.05256857855361596,0.03680922962603603,
0.05261845386533666,0.022554882950749942,
0.052668329177057355,-0.00019732917927245755,
0.05271820448877806,0.017131671237079444,
0.05276807980049875,0.040793699616609586,
0.05281795511221945,0.037189069956060555,
0.05286783042394015,0.020606325648128893,
0.05291770573566085,0.02869067283167301,
0.05296758104738154,0.028606143870428584,
0.053017456359102245,0.05353888352004983,
0.05306733167082294,0.02292968846891972,
0.053117206982543644,0.0206802502179865,
0.05316708229426434,0.00984193745850823,
0.053216957605985035,0.023863443528154622,
0.05326683291770574,0.0218182082542529,
0.053316708229426434,0.003937589723595425,
0.05336658354114713,0.016288239169470135,
0.05341645885286783,0.002896098901346726,
0.05346633416458853,0.03480237501841868,
0.05351620947630923,0.018680618030706204,
0.053566084788029926,-0.00014438112449981395,
0.05361596009975062,0.012122649346269165,
0.053665835411471324,0.018536388526146363,
0.05371571072319202,-0.02750613303764706,
0.053765586034912716,0.02507350632507828,
0.05381546134663342,0.0028620388309598087,
0.053865336658354114,0.0018457903411883674,
0.05391521197007481,0.0006562120487632848,
0.05396508728179551,-0.01602501303634719,
0.05401496259351621,0.02174007438769341,
0.05406483790523691,0.008114058276672808,
0.054114713216957606,0.02379121247504524,
0.0541645885286783,0.024773721890478863,
0.054214463840399005,-0.01940380772279405,
0.0542643391521197,0.025578973472845337,
0.054314214463840396,0.008441607019953175,
0.0543640897755611,0.004917692756101644,
0.054413965087281795,0.015577991693459211,
0.0544638403990025,0.040581266537663876,
0.05451371571072319,0.03110292702476404,
0.05456359102244389,0.0014285400858122911,
0.05461346633416459,0.006873605481033671,
0.05466334164588529,0.0019234552443907265,
0.05471321695760598,0.007559819237589246,
0.054763092269326685,0.012753603975119505,
0.05481296758104738,0.007005130620060455,
0.05486284289276808,-0.026661789537599994,
0.05491271820448878,0.015234866997174246,
0.054962593516209475,0.03236345291941688,
0.05501246882793018,0.018795122274922117,
0.05506234413965087,0.011992557331584233,
0.05511221945137157,0.01620038551792573,
0.05516209476309227,0.009816888672317732,
0.05521197007481297,0.0240768657339678,
0.05526184538653366,0.013341362018052848,
0.055311720698254366,0.0022649624722895795,
0.05536159600997506,0.00960796957222997,
0.05541147132169576,-0.0016054796797851708,
0.05546134663341646,0.014766780365256575,
0.055511221945137156,0.031589362167026847,
0.05556109725685786,0.004360857224711329,
0.055610972568578554,-0.0117405073312234,
0.05566084788029925,0.007412467780466982,
0.05571072319201995,0.0002521611172074123,
0.05576059850374065,0.011438644852356555,
0.055810473815461344,0.00037806229558436154,
0.055860349127182046,-0.004211468268244538,
0.05591022443890274,0.011703178186705458,
0.055960099750623445,0.0006533338040851198,
0.05600997506234414,0.012842200457873038,
0.056059850374064836,-0.019873644871560937,
0.05610972568578554,-0.03149242231564226,
0.056159600997506234,0.0011863649828747977,
0.05620947630922693,0.011963284037279871,
0.05625935162094763,0.004596511906212627,
0.05630922693266833,-0.0015175148391536105,
0.056359102244389024,0.015335470030202188,
0.05640897755610973,-0.007741484972016622,
0.05645885286783042,-0.011909973786003888,
0.056508728179551125,0.004704083780852078,
0.05655860349127182,0.010139261337490608,
0.056608478802992516,0.00905331697691589,
0.05665835411471322,-0.00043637350525972066,
0.056708229426433915,0.008602874616645667,
0.05675810473815461,-0.0009694627198974402,
0.05680798004987531,0.0027090436451468677,
0.05685785536159601,0.018730385813000766,
0.05690773067331671,-0.03097953979862009,
0.05695760598503741,0.005687348286993808,
0.0570074812967581,-0.02490792719841639,
0.057057356608478806,-0.022688231008569308,
0.0571072319201995,-0.028150983455684366,
0.0571571072319202,-0.008620643031284642,
0.0572069825436409,-0.03629693232519088,
0.057256857855361595,-0.030828862468618927,
0.05730673316708229,0.008014705138137424,
0.057356608478802994,-0.0073204616948092565,
0.05740648379052369,-0.007125684261310839,
0.05745635910224439,0.006831741521644102,
0.05750623441396509,-0.0032899410124603247,
0.05755610972568578,0.007231966116449273,
0.057605985037406486,0.003506840578630927,
0.05765586034912718,-0.022219821660916968,
0.05770573566084788,-0.02193362838505941,
0.05775561097256858,0.018610070082879338,
0.057805486284289276,0.0008648651657048399,
0.05785536159600998,-0.01374522877444729,
0.057905236907730674,-0.02576117985166216,
0.05795511221945137,-0.0024923823779093354,
0.05800498753117207,-0.03545289893217271,
0.05805486284289277,0.003172103069096037,
0.058104738154613464,0.004384755175823081,
0.05815461346633417,-0.013449903648265784,
0.05820448877805486,-0.03282242707473074,
0.05825436408977556,-0.03373537465417114,
0.05830423940149626,-0.006891055318550645,
0.058354114713216956,-0.004968650214043502,
0.05840399002493766,-0.006116479145541835,
0.058453865336658355,-0.005039796753989714,
0.05850374064837905,0.006061685598686809,
0.05855361596009975,-0.022254631338236346,
0.05860349127182045,0.000960244321320039,
0.058653366583541144,-0.023966970829144812,
0.05870324189526185,0.0003930052853371672,
0.05875311720698254,-0.015572796067505152,
0.05880299251870324,-0.01991367429244937,
0.05885286783042394,-0.025516996784402255,
0.05890274314214464,0.003558696427293555,
0.05895261845386534,-0.003919189742562362,
0.059002493765586035,-0.016842582208337484,
0.05905236907730673,-0.027025324676261127,
0.059102244389027433,-0.04431236981734396,
0.05915211970074813,-0.014299500385781138,
0.059201995012468825,-0.01085247982668238,
0.05925187032418953,-0.017143230271072687,
0.05930174563591022,0.003877792236065339,
0.059351620947630926,-0.009689676291386659,
0.05940149625935162,-0.012997253599096377,
0.05945137157107232,-0.022549306612372783,
0.05950124688279302,-0.01913634294555432,
0.059551122194513716,-0.0027410779100365164,
0.05960099750623441,0.006551641814580164,
0.059650872817955114,-0.011900653689331617,
0.05970074812967581,-0.02670038791123373,
0.059750623441396505,-0.025453362509640837,
0.05980049875311721,-0.0038599052994068503,
0.059850374064837904,-0.028116208631752886,
0.059900249376558606,-0.003852457430103316,
0.0599501246882793,-0.014451653402041202,
0.06,-0.018608633796339986,
0.0600498753117207,-0.015837826498667655,
0.060099750623441396,-0.0373013911308228,
0.06014962593516209,0.006171113101495096,
0.060199501246882794,-0.020833313625053227,
0.06024937655860349,-0.00885155020957815,
0.06029925187032419,-0.011391204656733099,
0.06034912718204489,-0.0069980788607743784,
0.060399002493765584,-0.03345786959799952,
0.06044887780548629,-0.01320274051416459,
0.06049875311720698,-0.010472392173433556,
0.06054862842892768,0.007514478269858356,
0.06059850374064838,-0.019949009369659047,
0.06064837905236908,-0.01470629311667142,
0.06069825436408977,-0.017784493398889153,
0.060748129675810475,-0.022075584972742535,
0.06079800498753117,-0.014314108946223222,
0.06084788029925187,-0.020674942213752604,
0.06089775561097257,-0.0037855440248004864,
0.060947630922693265,-0.03380253308598605,
0.06099750623441397,-0.02668025438193681,
0.06104738154613466,-0.03133049080228246,
0.06109725685785536,-0.008914387069874786,
0.06114713216957606,-0.046926608586582874,
0.06119700748129676,-0.004649126659964984,
0.06124688279301746,-0.020110844546471218,
0.061296758104738155,-0.03108612936524656,
0.06134663341645885,0.008091970594280738,
0.061396508728179554,-0.009333316823932002,
0.06144638403990025,-0.015342759562602906,
0.061496259351620945,-9.154710160872402e-05,
0.06154613466334165,-0.012675963040057074,
0.061596009975062344,-0.02295819060881868,
0.06164588528678304,0.00012646779432018765,
0.06169576059850374,-0.027887590338823126,
0.06174563591022444,-0.02855737082704443,
0.06179551122194514,0.0013724266684582084,
0.061845386533665836,-0.025623701298723163,
0.06189526184538653,-0.024094832260481577,
0.061945137157107234,0.009083985050066143,
0.06199501246882793,0.025595509253083133,
0.062044887780548626,-0.01954071208487063,
0.06209476309226933,-0.01297273901581482,
0.062144638403990024,0.0011584744234929226,
0.06219451371571072,-0.004207298101132645,
0.06224438902743142,-0.016826811857524448,
0.06229426433915212,-0.011375284854365912,
0.06234413965087282,0.00329291760790942,
0.062394014962593516,0.006667547177392118,
0.06244389027431421,-0.014572730391515113,
0.062493765586034915,-0.028302965170093574,
0.06254364089775562,0.007083086089519113,
0.06259351620947631,0.008399734763914994,
0.06264339152119701,-0.00999475564734002,
0.0626932668329177,0.004659704345674913,
0.0627431421446384,-0.002697146013902187,
0.0627930174563591,0.009914762747063257,
0.0628428927680798,-0.022322362818846635,
0.0628927680798005,0.008221648864108054,
0.0629426433915212,0.0030247961079107495,
0.06299251870324189,-0.021551817182582506,
0.06304239401496259,-0.013281340024458004,
0.0630922693266833,-0.005868826743077491,
0.063142144638404,-0.0019256762831528782,
0.06319201995012469,-0.02080094202027955,
0.06324189526184539,-0.020906818319479114,
0.06329177057356608,-0.023689624678837687,
0.06334164588528678,0.011231167901549034,
0.06339152119700749,0.013906620352923092,
0.06344139650872818,0.004691685986331999,
0.06349127182044888,-0.00409429498525285,
0.06354114713216957,0.010316552401463855,
0.06359102244389027,0.01183593403849396,
0.06364089775561098,-0.03275548616711883,
0.06369077306733167,-0.0006203540924426569,
0.06374064837905237,0.006529813075688543,
0.06379052369077307,0.007999221225775892,
0.06384039900249376,-0.012517688005632644,
0.06389027431421446,-0.0021511764750544787,
0.06394014962593517,-0.011357086992091751,
0.06399002493765586,-0.007958225243673723,
0.06403990024937656,-0.005332403001149015,
0.06408977556109725,-0.011533956212780127,
0.06413965087281795,-0.010420474512204968,
0.06418952618453866,0.030446497401083586,
0.06423940149625935,0.002797362855024115,
0.06428927680798005,-0.01219083875481969,
0.06433915211970075,0.0003334076370753536,
0.06438902743142144,0.0012855069097039162,
0.06443890274314215,0.02080570812972954,
0.06448877805486285,-0.005178440081112113,
0.06453865336658354,0.014034943653424694,
0.06458852867830424,0.009779245385735125,
0.06463840399002493,-0.006252048853612016,
0.06468827930174563,0.012383643089401982,
0.06473815461346634,-0.0038792644667145853,
0.06478802992518704,-0.003969508138653018,
0.06483790523690773,-0.0014713234742527162,
0.06488778054862843,0.0034917797915859526,
0.06493765586034912,0.022621833423098217,
0.06498753117206983,0.005434142295944504,
0.06503740648379053,0.015522873690039456,
0.06508728179551122,-0.01243668410322212,
0.06513715710723192,0.005243181402656989,
0.06518703241895261,-0.0009254764899000968,
0.06523690773067331,0.010112275310240778,
0.06528678304239402,-0.0022720744696964846,
0.06533665835411472,-0.002681969669778827,
0.06538653366583541,0.03717535828655041,
0.06543640897755611,0.005707997862195954,
0.0654862842892768,0.006774548755177219,
0.06553615960099751,0.0020102717505736884,
0.06558603491271821,-0.022363753907474086,
0.0656359102244389,0.0014265793756236874,
0.0656857855361596,0.007334611142394849,
0.0657356608478803,0.011218023034086535,
0.06578553615960099,0.012862259273910506,
0.0658354114713217,0.0628415259762405,
0.0658852867830424,-0.005237144588792096,
0.06593516209476309,0.010945695187228231,
0.06598503740648379,0.029466258118922218,
0.06603491271820448,0.028131540218871338,
0.06608478802992519,0.011266175512903204,
0.06613466334164589,0.005230883916666522,
0.06618453865336658,0.005549304501898119,
0.06623441396508728,0.026123063679774218,
0.06628428927680798,0.02733628115239599,
0.06633416458852869,0.008154609155772444,
0.06638403990024938,0.017402517913653798,
0.06643391521197008,0.030742711046719152,
0.06648379052369077,0.019737389796511767,
0.06653366583541147,0.004970699407977865,
0.06658354114713216,0.04490439653065745,
0.06663341645885287,0.002921679694063947,
0.06668329177057357,0.003073764142763358,
0.06673316708229426,0.03793032835866156,
0.06678304239401496,0.02095637572406786,
0.06683291770573566,0.013860747832228215,
0.06688279301745637,0.02665120736918713,
0.06693266832917706,0.027271071873849695,
0.06698254364089776,0.003878261359315908,
0.06703241895261845,0.018250151993072592,
0.06708229426433915,0.00828654783115248,
0.06713216957605984,0.017057189594006615,
0.06718204488778055,0.03234264101746123,
0.06723192019950125,-0.010854406295753499,
0.06728179551122195,0.038077994330900894,
0.06733167082294264,0.005008895642907938,
0.06738154613466334,-0.0090139786704196,
0.06743142144638405,-0.000844964803170041,
0.06748129675810474,0.04202156383813774,
0.06753117206982544,0.015938944629474486,
0.06758104738154613,0.019823504283493203,
0.06763092269326683,0.027417705037580255,
0.06768079800498752,0.04795786224032814,
0.06773067331670823,0.048068926400116216,
0.06778054862842893,0.00445887216321008,
0.06783042394014963,0.029664804982925293,
0.06788029925187032,0.02151099816764971,
0.06793017456359102,0.012674112939875932,
0.06798004987531173,0.03642609247837776,
0.06802992518703242,0.029329620976078052,
0.06807980049875312,0.025587187194082216,
0.06812967581047381,0.023426849595871446,
0.06817955112219451,0.03803603278673168,
0.0682294264339152,0.035716421278676976,
0.06827930174563591,0.02113900152761676,
0.06832917705735661,0.009376677111637277,
0.0683790523690773,0.03823578210458391,
0.068428927680798,0.020633236269146826,
0.0684788029925187,-0.001982090657761379,
0.06852867830423941,0.018896377143384435,
0.0685785536159601,0.027380126848913267,
0.0686284289276808,0.01752382914578017,
0.0686783042394015,0.014256462426540939,
0.06872817955112219,0.013288677104496814,
0.0687780548628429,0.05503627739701832,
0.0688279301745636,0.019484070968535615,
0.06887780548628429,0.030763262794782052,
0.06892768079800499,0.03146285766402416,
0.06897755610972568,0.01886915628660188,
0.06902743142144638,0.03774843563261531,
0.06907730673316709,0.03123722636431296,
0.06912718204488778,0.037112753524449864,
0.06917705735660848,-0.009234428399356832,
0.06922693266832917,0.011486772938777067,
0.06927680798004987,0.024083223261200132,
0.06932668329177058,0.03273064376132062,
0.06937655860349128,0.014432020943844454,
0.06942643391521197,0.002212823513658868,
0.06947630922693267,-0.017504060615031857,
0.06952618453865336,0.027449154097750793,
0.06957605985037406,0.01749653639380695,
0.06962593516209477,-0.0003891981098981846,
0.06967581047381546,0.03209377693940045,
0.06972568578553616,0.01597030821579413,
0.06977556109725686,0.012146690595744688,
0.06982543640897755,0.03606014297119748,
0.06987531172069826,0.009820763602815221,
0.06992518703241896,0.012799901394090716,
0.06997506234413965,0.0368306868881556,
0.07002493765586035,0.05489114784884937,
0.07007481296758104,-0.00205972721594444,
0.07012468827930174,0.007137693717154305,
0.07017456359102245,0.04147158347669312,
0.07022443890274314,0.003327029702454694,
0.07027431421446384,0.05898146150074129,
0.07032418952618454,0.029715194425365257,
0.07037406483790523,0.02602446831877985,
0.07042394014962594,0.02770085769856412,
0.07047381546134664,0.03711263585382986,
0.07052369077306733,0.041639318329719566,
0.07057356608478803,0.025183199132701305,
0.07062344139650872,0.032908910855338626,
0.07067331670822943,0.02215425134008366,
0.07072319201995013,0.04262767408956364,
0.07077306733167082,0.04103685160388393,
0.07082294264339152,0.0214134203701707,
0.07087281795511222,0.025970305566627695,
0.07092269326683291,0.010684843687503642,
0.07097256857855362,0.01241494894726689,
0.07102244389027432,0.026848468185933668,
0.07107231920199501,0.03022291800371527,
0.07112219451371571,0.009587778228951167,
0.0711720698254364,0.03192535937884303,
0.07122194513715711,0.02423174784167722,
0.07127182044887781,0.02850383686565993,
0.0713216957605985,0.0076846347135950364,
0.0713715710723192,0.03156500757073455,
0.0714214463840399,0.015283821270360536,
0.07147132169576059,0.045063018533701635,
0.0715211970074813,0.01921704932292996,
0.071571072319202,0.012107135802880356,
0.0716209476309227,0.03689212769151333,
0.07167082294264339,0.010904664579494492,
0.07172069825436408,0.022214790337871573,
0.0717705735660848,0.037997732914667535,
0.07182044887780549,0.036181296989623725,
0.07187032418952619,0.01648626469958394,
0.07192019950124688,0.001967675131779919,
0.07197007481296758,0.012177953549510978,
0.07201995012468827,0.005067220920876605,
0.07206982543640898,0.012703940524486937,
0.07211970074812968,0.016114369136287894,
0.07216957605985037,0.038695029231855485,
0.07221945137157107,0.039321070352099086,
0.07226932668329177,0.024619894058648024,
0.07231920199501247,0.006453694546965181,
0.07236907730673317,0.01650540215891507,
0.07241895261845387,0.015737099436988707,
0.07246882793017456,0.03403401430990252,
0.07251870324189526,0.01859374342312016,
0.07256857855361595,0.013430614630335132,
0.07261845386533666,0.014530586126372706,
0.07266832917705736,0.011430615575735591,
0.07271820448877805,0.03836614944170853,
0.07276807980049875,0.02107663661758809,
0.07281795511221945,0.0059533486961818646,
0.07286783042394016,0.025902772274935662,
0.07291770573566085,-0.0006039066254055064,
0.07296758104738155,0.02714944581237143,
0.07301745635910224,0.018121286738339945,
0.07306733167082294,-0.007536194693621091,
0.07311720698254365,0.01127480263575295,
0.07316708229426434,0.02946291879807545,
0.07321695760598504,0.03644764500120702,
0.07326683291770573,-0.0002981704930535116,
0.07331670822942643,0.002267608473924239,
0.07336658354114713,0.021209072698935086,
0.07341645885286784,0.03652521214571408,
0.07346633416458853,0.007914929978817951,
0.07351620947630923,0.03652487920223477,
0.07356608478802992,-0.005581109357640463,
0.07361596009975062,0.005562414146047582,
0.07366583541147133,0.023955984575112714,
0.07371571072319202,0.015936162883472636,
0.07376558603491272,-0.012177052265786917,
0.07381546134663342,-0.0038291078581842823,
0.07386533665835411,0.028501382231956102,
0.0739152119700748,0.01567066419027697,
0.07396508728179552,0.02724646814927975,
0.07401496259351621,0.0033414856552947854,
0.07406483790523691,0.000819430753644235,
0.0741147132169576,0.003740845899451891,
0.0741645885286783,0.010417194384978614,
0.07421446384039901,0.021836055792436197,
0.0742643391521197,0.06558730541066199,
0.0743142144638404,0.0001704065852543863,
0.0743640897755611,0.02462456543119841,
0.07441396508728179,-0.0020441298652663902,
0.07446384039900249,-0.016521753884246843,
0.0745137157107232,0.008404734818054118,
0.07456359102244389,0.009933244035393944,
0.07461346633416459,0.019248752455236294,
0.07466334164588528,0.02223773343605616,
0.07471321695760598,0.018344490887104284,
0.07476309226932669,-0.006691323416437422,
0.07481296758104738,-0.012963515337293592,
0.07486284289276808,0.031430339108995814,
0.07491271820448878,0.017328702348766697,
0.07496259351620947,0.028528376953959766,
0.07501246882793017,0.004733360322712189,
0.07506234413965088,0.007347731324481738,
0.07511221945137157,0.008059020736867846,
0.07516209476309227,0.011016893973789826,
0.07521197007481296,-0.0005460041615713588,
0.07526184538653366,-0.0131120521871755,
0.07531172069825437,0.03508482888185352,
0.07536159600997507,-0.007917155077642454,
0.07541147132169576,-0.0037212111310887305,
0.07546134663341646,0.0024337888248009364,
0.07551122194513715,-0.0028009267590284807,
0.07556109725685786,-0.02324375132010359,
0.07561097256857856,-0.03284810284059804,
0.07566084788029925,-0.003067489954807552,
0.07571072319201995,0.01757531924095098,
0.07576059850374064,-0.0023657445561846725,
0.07581047381546134,-0.008024124056737036,
0.07586034912718205,-0.01845081391474416,
0.07591022443890275,-0.01013787141742804,
0.07596009975062344,-0.008433026900407859,
0.07600997506234414,-0.009257010989927057,
0.07605985037406483,0.013538671746560225,
0.07610972568578554,-0.015829616908886828,
0.07615960099750624,0.008290219155313625,
0.07620947630922693,-0.01107717472506008,
0.07625935162094763,0.010827341976071294,
0.07630922693266833,-0.013835310098599184,
0.07635910224438902,0.0028081641049496862,
0.07640897755610973,-0.007424512196638968,
0.07645885286783043,-0.014318659914894036,
0.07650872817955112,-0.0030839543660477003,
0.07655860349127182,0.013278455856598006,
0.07660847880299251,-0.006848051940221661,
0.07665835411471322,-0.004697665218506945,
0.07670822942643392,-0.016807617641522107,
0.07675810473815461,-0.02395911950238759,
0.07680798004987531,-0.012169651233084021,
0.076857855361596,-0.001136938822617208,
0.0769077306733167,0.005418740351166372,
0.07695760598503741,-0.020253345361904138,
0.0770074812967581,-0.014033559282689373,
0.0770573566084788,0.006323877772025247,
0.0771072319201995,0.01177607643546884,
0.0771571072319202,0.007895996780037797,
0.0772069825436409,-0.0001731012279883818,
0.0772568578553616,-0.00264027242616542,
0.0773067331670823,-0.012156788333819377,
0.07735660847880299,0.019508858272350264,
0.07740648379052369,-0.015750852508023442,
0.0774563591022444,-0.007487127331630739,
0.07750623441396509,0.012924385800419443,
0.07755610972568579,0.006773923593513757,
0.07760598503740648,-0.015940457088012776,
0.07765586034912718,0.005965389601131186,
0.07770573566084787,0.0025431627416694323,
0.07775561097256858,0.016283878373506228,
0.07780548628428928,-0.02141747341446181,
0.07785536159600998,0.006479149869448088,
0.07790523690773067,-0.009084960804400605,
0.07795511221945137,0.0063203745963953985,
0.07800498753117208,0.007024447874500257,
0.07805486284289277,-0.010920317758671113,
0.07810473815461347,0.005985373751614325,
0.07815461346633416,0.0002645585146996664,
0.07820448877805486,0.006708293599148981,
0.07825436408977555,-0.02375619505355767,
0.07830423940149626,-0.006312897689664963,
0.07835411471321696,-0.03372808893999379,
0.07840399002493766,-0.003433059842672991,
0.07845386533665835,-0.01469916697723211,
0.07850374064837905,-0.041903761143435095,
0.07855361596009976,-0.024846187357146558,
0.07860349127182045,-0.02834740801488519,
0.07865336658354115,-0.025603549623564346,
0.07870324189526184,-0.010617397543750061,
0.07875311720698254,-0.010921577980582464,
0.07880299251870324,0.010894953265393468,
0.07885286783042394,-0.0026312063387760043,
0.07890274314214464,-0.011099171144656512,
0.07895261845386534,-0.002848686752271812,
0.07900249376558603,-0.027981292923861076,
0.07905236907730673,0.006084942005323073,
0.07910224438902744,-0.021098903671610762,
0.07915211970074813,0.001975049271640137,
0.07920199501246883,-0.017820888259008637,
0.07925187032418952,-0.03783483650113874,
0.07930174563591022,0.0005942363031753769,
0.07935162094763092,-0.0443525658672761,
0.07940149625935163,0.000166418388155367,
0.07945137157107232,-0.04758726944634754,
0.07950124688279302,-0.02041190298443441,
0.07955112219451371,-0.03151849935747454,
0.07960099750623441,-0.028305283056263328,
0.07965087281795512,-0.022342051914342173,
0.07970074812967581,-0.0196581835652295,
0.07975062344139651,-0.005979850082432904,
0.0798004987531172,-0.03281208063730319,
0.0798503740648379,-0.020407328740457253,
0.07990024937655861,-0.015307411998688441,
0.0799501246882793,-0.00725389239896833,
0.08,-0.029617118491229555,
0.0800498753117207,-0.01599345117243315,
0.0800997506234414,0.017706631776741772,
0.08014962593516209,-0.034776400786158165,
0.0801995012468828,-0.004521830772127191,
0.0802493765586035,-0.041021591333277284,
0.08029925187032419,-0.048944360002476484,
0.08034912718204489,0.014121705384617239,
0.08039900249376558,-0.020509447981738215,
0.08044887780548629,-0.015566777633047191,
0.08049875311720699,-0.008847677759135595,
0.08054862842892768,-0.030783693443835483,
0.08059850374064838,-0.012670191638081916,
0.08064837905236907,0.004514115917682445,
0.08069825436408977,-0.018424179646537364,
0.08074812967581048,-0.028018814185429827,
0.08079800498753117,-0.03211188846504345,
0.08084788029925187,-0.026700819573155024,
0.08089775561097257,-0.016301691633745834,
0.08094763092269326,-0.0261890485962792,
0.08099750623441397,-0.012098462113056003,
0.08104738154613467,0.01244827689627708,
0.08109725685785536,-0.01283624945399239,
0.08114713216957606,-0.01564311068990921,
0.08119700748129675,-0.009591274593244666,
0.08124688279301745,-0.03260887407288454,
0.08129675810473816,-0.024663416059942128,
0.08134663341645886,0.0006692313193357637,
0.08139650872817955,-0.028748556035699226,
0.08144638403990025,0.010334318959661516,
0.08149625935162094,-0.026022791113749333,
0.08154613466334165,0.003751395594714161,
0.08159600997506235,0.0004906298797269677,
0.08164588528678304,-0.014101625053583654,
0.08169576059850374,0.017842964399034888,
0.08174563591022443,-0.01208684074612599,
0.08179551122194513,0.002976557573589741,
0.08184538653366584,-0.014344954481531554,
0.08189526184538654,-0.011407517002372696,
0.08194513715710723,-0.020008441817389082,
0.08199501246882793,-0.020407762081311228,
0.08204488778054862,0.015065430342464353,
0.08209476309226933,-0.03093863566554352,
0.08214463840399003,0.002975710133605359,
0.08219451371571072,0.014960982537976963,
0.08224438902743142,-0.03861134701283415,
0.08229426433915212,-0.016941912541806665,
0.08234413965087282,0.0011697529909714625,
0.08239401496259352,0.011558489827972172,
0.08244389027431422,-0.011648333158309924,
0.08249376558603491,-0.010127438089030017,
0.08254364089775561,-0.022346413192586435,
0.0825935162094763,0.010428652239656208,
0.08264339152119701,0.005913847992919819,
0.08269326683291771,0.0014647201660343192,
0.0827431421446384,-0.003998354829899261,
0.0827930174563591,-0.0032865620779834286,
0.0828428927680798,-0.027068488692504562,
0.0828927680798005,-0.023332631965448453,
0.0829426433915212,-0.030464568782097537,
0.0829925187032419,-0.0014032044595832984,
0.08304239401496259,0.00848346875156354,
0.08309226932668329,-0.0008240349279049824,
0.08314214463840398,-0.006298259878805667,
0.0831920199501247,-0.015185887191361332,
0.08324189526184539,-0.017183234471142273,
0.08329177057356608,-0.010036934154602313,
0.08334164588528678,0.005536485786722962,
0.08339152119700748,-0.007466109953794045,
0.08344139650872819,-0.023084052174475723,
0.08349127182044888,0.007113379866304325,
0.08354114713216958,0.017254194171507517,
0.08359102244389027,0.020632411052816213,
0.08364089775561097,-0.02239331967783669,
0.08369077306733166,-0.01641905942781751,
0.08374064837905237,-0.00939574671279602,
0.08379052369077307,-0.027954588983167564,
0.08384039900249377,0.03471859478884577,
0.08389027431421446,-0.008068653756162794,
0.08394014962593516,0.011051854339684662,
0.08399002493765587,0.006692830797140101,
0.08403990024937656,0.004000946941337483,
0.08408977556109726,0.013729137028576106,
0.08413965087281795,-0.01072213501113263,
0.08418952618453865,-0.020853025459663957,
0.08423940149625936,0.002519180902642617,
0.08428927680798005,0.006987712234092907,
0.08433915211970075,-0.017056530094440792,
0.08438902743142145,0.0259015343167761,
0.08443890274314214,0.03239969921002984,
0.08448877805486284,0.005756103255518114,
0.08453865336658355,-0.024712578576364254,
0.08458852867830424,0.02095305532075971,
0.08463840399002494,-0.005166146039781799,
0.08468827930174563,0.015078362605217058,
0.08473815461346633,-0.01172342461778477,
0.08478802992518704,-0.01466265058637703,
0.08483790523690773,0.009896742254093647,
0.08488778054862843,0.007893189824676277,
0.08493765586034913,-0.013888734305922822,
0.08498753117206982,0.012342949833551529,
0.08503740648379052,0.015283653874264561,
0.08508728179551123,-0.0005907383000424869,
0.08513715710723192,0.011084052676396616,
0.08518703241895262,0.026031439786639833,
0.08523690773067331,0.003574667706047169,
0.08528678304239401,0.017168556936035067,
0.08533665835411472,-0.0072332556235160505,
0.08538653366583542,0.023850274947900846,
0.08543640897755611,0.01133279410793622,
0.0854862842892768,0.007460237883700508,
0.0855361596009975,0.01397343763431566,
0.0855860349127182,0.009523079530398828,
0.08563591022443891,0.03189451751869156,
0.0856857855361596,0.021098311519699382,
0.0857356608478803,0.0036213377026162417,
0.085785536159601,0.031038623600734692,
0.08583541147132169,0.007850723132837127,
0.0858852867830424,-0.0017209611453397299,
0.0859351620947631,0.0004532392664702428,
0.08598503740648379,-0.0013511167533443967,
0.08603491271820449,0.027887774442604797,
0.08608478802992518,0.011203637098623896,
0.08613466334164588,-0.012108994517581906,
0.08618453865336659,0.009191096066457028,
0.08623441396508728,0.026709681453485852,
0.08628428927680798,0.010299442067736121,
0.08633416458852868,0.033586641720996784,
0.08638403990024937,0.02706482798034479,
0.08643391521197008,0.010373860735593717,
0.08648379052369078,0.008862848596042744,
0.08653366583541147,0.012484080541247665,
0.08658354114713217,0.03239507366328212,
0.08663341645885286,0.018734660509406035,
0.08668329177057357,0.03492986605642092,
0.08673316708229427,0.011739899689227711,
0.08678304239401496,0.026895662394929992,
0.08683291770573566,0.012930578450682925,
0.08688279301745636,0.010274587719082833,
0.08693266832917705,0.0035601505997754374,
0.08698254364089776,-0.00023681195181447443,
0.08703241895261846,0.02361401641699461,
0.08708229426433915,0.01721523738545614,
0.08713216957605985,0.02981900392941078,
0.08718204488778054,0.0007438830060662593,
0.08723192019950125,0.0059424895324893135,
0.08728179551122195,0.03564321373330996,
0.08733167082294264,0.01621267447496872,
0.08738154613466334,0.022758597805739505,
0.08743142144638404,-0.01218382396871117,
0.08748129675810473,0.040227105748613115,
0.08753117206982544,0.05551504544490633,
0.08758104738154614,0.016990927335979893,
0.08763092269326683,0.04064684660944505,
0.08768079800498753,0.028390434256326473,
0.08773067331670822,0.03018269110096771,
0.08778054862842893,0.0009697594654828404,
0.08783042394014963,0.025936721526752297,
0.08788029925187033,0.03954337006029096,
0.08793017456359102,0.0004944055054251148,
0.08798004987531172,0.021232271985373124,
0.08802992518703241,0.018606440981255863,
0.08807980049875312,0.006446819371815085,
0.08812967581047382,0.050104066356116514,
0.08817955112219451,0.04972478473533923,
0.08822942643391521,0.011780220514970657,
0.0882793017456359,0.02522510748272811,
0.08832917705735661,0.04947233638895146,
0.08837905236907731,0.028873595396171473,
0.088428927680798,0.02750339266169166,
0.0884788029925187,0.034326960220312216,
0.0885286783042394,0.04317242484787521,
0.0885785536159601,0.015361988518612573,
0.0886284289276808,0.031055751631392365,
0.0886783042394015,0.04019610631821246,
0.0887281795511222,0.02314106483350592,
0.08877805486284289,0.03500491287559775,
0.08882793017456359,0.036318473619097354,
0.0888778054862843,0.032704098736741016,
0.08892768079800499,0.023425696485722285,
0.08897755610972569,0.004825806424676546,
0.08902743142144638,0.03270704490011374,
0.08907730673316708,0.005131800664131905,
0.08912718204488779,0.03016694586299405,
0.08917705735660848,0.03615497307182004,
0.08922693266832918,0.03380229717164641,
0.08927680798004987,0.01592285867560886,
0.08932668329177057,0.029737077052736278,
0.08937655860349127,0.02954989277452983,
0.08942643391521198,0.014568501272592767,
0.08947630922693267,0.01824080157390671,
0.08952618453865337,0.009209656378725568,
0.08957605985037406,0.016338866504900417,
0.08962593516209476,0.025947069824979765,
0.08967581047381547,0.031948581930124086,
0.08972568578553616,0.002822709982383948,
0.08977556109725686,0.0176512073954653,
0.08982543640897755,0.020950395338381382,
0.08987531172069825,0.028316911949629868,
0.08992518703241895,0.01928655351478601,
0.08997506234413966,0.020469131697127087,
0.09002493765586035,0.019852891636499097,
0.09007481296758105,0.049725386820930445,
0.09012468827930174,0.032309996772829794,
0.09017456359102244,0.04644808896636325,
0.09022443890274315,0.05896261292409337,
0.09027431421446384,0.015516106905805554,
0.09032418952618454,0.046393957229695054,
0.09037406483790524,0.015408889492569456,
0.09042394014962593,0.015677081132044822,
0.09047381546134663,0.011815987253240073,
0.09052369077306734,0.042188266698185393,
0.09057356608478803,0.022336136912236626,
0.09062344139650873,0.05756448382040202,
0.09067331670822942,0.02770982763747445,
0.09072319201995012,0.030420190668890533,
0.09077306733167083,0.015340280461149235,
0.09082294264339152,0.03843462836430519,
0.09087281795511222,0.01010668038963463,
0.09092269326683292,0.02530907978621274,
0.09097256857855361,0.020291863483080354,
0.09102244389027432,0.03929164095404611,
0.09107231920199502,0.006580164863137755,
0.09112219451371571,-0.006014426910591179,
0.09117206982543641,0.041520454837444244,
0.0912219451371571,0.01266250926374643,
0.0912718204488778,0.010240529974053716,
0.09132169576059851,0.022241783343952052,
0.0913715710723192,0.018475728397655076,
0.0914214463840399,0.03171808612622664,
0.0914713216957606,0.025087705039775643,
0.09152119700748129,0.04403027958429004,
0.091571072319202,0.012789798370965801,
0.0916209476309227,0.031578017217541235,
0.09167082294264339,0.013739322709451995,
0.09172069825436409,0.035402726605144985,
0.09177057356608478,0.011883990392090349,
0.09182044887780548,0.05674545683549839,
0.09187032418952619,0.04206083878405925,
0.09192019950124689,-0.002508234472878023,
0.09197007481296758,0.04038684677031931,
0.09201995012468828,0.014224890596898156,
0.09206982543640897,0.0003536297715012182,
0.09211970074812968,0.008472793323077658,
0.09216957605985038,0.04713923794932039,
0.09221945137157107,0.026514878644120835,
0.09226932668329177,0.032870377698574406,
0.09231920199501246,0.04677143471558491,
0.09236907730673316,0.04107567120791137,
0.09241895261845387,0.04435642277747538,
0.09246882793017457,0.022868101622702232,
0.09251870324189526,0.01461457464463847,
0.09256857855361596,-0.0011719277664626326,
0.09261845386533665,0.02952465793446357,
0.09266832917705736,0.0074728494105146155,
0.09271820448877806,0.007885047965289382,
0.09276807980049875,0.018985321553320292,
0.09281795511221945,0.022969099721506545,
0.09286783042394015,0.050264705552955036,
0.09291770573566084,-0.015797491695866764,
0.09296758104738155,0.028436874249692923,
0.09301745635910225,0.010820765077796807,
0.09306733167082294,0.023890189146907735,
0.09311720698254364,0.032983910607664,
0.09316708229426433,0.029821080271513808,
0.09321695760598504,0.015621509079285023,
0.09326683291770574,0.007888758480129425,
0.09331670822942643,0.034282893617087,
0.09336658354114713,0.03355204831337307,
0.09341645885286783,0.02132567842665322,
0.09346633416458854,0.010214262519078993,
0.09351620947630923,0.020313418715467685,
0.09356608478802993,0.01598826838678277,
0.09361596009975062,0.03027610667623895,
0.09366583541147132,0.027303250116099815,
0.09371571072319201,0.026411472990475707,
0.09376558603491272,0.01989155414352363,
0.09381546134663342,0.015920835359879287,
0.09386533665835411,-0.005756934815158807,
0.09391521197007481,-0.0025950600565842873,
0.0939650872817955,0.023608130784747307,
0.09401496259351622,0.010971404573508732,
0.09406483790523691,0.030737234228580303,
0.09411471321695761,0.013354827148938533,
0.0941645885286783,0.02030372213783202,
0.094214463840399,-0.0002430699626274884,
0.0942643391521197,0.010428151810658202,
0.0943142144638404,-0.0002084465634927552,
0.0943640897755611,0.009807255391254507,
0.0944139650872818,0.01975056649639282,
0.09446384039900249,0.028585966558788423,
0.09451371571072319,-0.001316593156933589,
0.0945635910224439,0.005961355718103389,
0.09461346633416459,0.02190061948818239,
0.09466334164588529,0.027894953300423343,
0.09471321695760598,0.009040407926924069,
0.09476309226932668,0.027523537983547678,
0.09481296758104737,0.020633708226725084,
0.09486284289276808,0.013333006668764573,
0.09491271820448878,0.003027796270996189,
0.09496259351620948,-0.0024668690339790383,
0.09501246882793017,0.0036947790411916816,
0.09506234413965087,0.01329458359690958,
0.09511221945137158,0.006729991199612351,
0.09516209476309227,-0.0015211591345870744,
0.09521197007481297,0.023189879213736102,
0.09526184538653366,0.011255002437235647,
0.09531172069825436,0.008929105980952083,
0.09536159600997507,-0.02229574034074592,
0.09541147132169576,-0.0017983267417887817,
0.09546134663341646,0.0038489643921693325,
0.09551122194513716,0.00833589464900085,
0.09556109725685785,-0.026797127416312936,
0.09561097256857855,-0.00885498923330437,
0.09566084788029926,0.020107896331196556,
0.09571072319201995,-0.0032286822940070267,
0.09576059850374065,0.0026673765231070073,
0.09581047381546134,-0.010873646566556554,
0.09586034912718204,0.03160348159197678,
0.09591022443890275,-0.01496887468827939,
0.09596009975062345,-0.01231686483882145,
0.09600997506234414,0.007216920120544315,
0.09605985037406484,0.003399538279963627,
0.09610972568578553,-0.003525877205053496,
0.09615960099750623,0.015040443031329422,
0.09620947630922694,0.018795350814672075,
0.09625935162094763,-0.03824757813344363,
0.09630922693266833,0.019144438709028405,
0.09635910224438902,0.00012878069677867393,
0.09640897755610972,-0.019412230118768897,
0.09645885286783043,0.0021551082982492363,
0.09650872817955113,0.027536284146965538,
0.09655860349127182,-0.017271115298016636,
0.09660847880299252,-0.003072450060485089,
0.09665835411471321,-0.014726975469842904,
0.09670822942643391,0.028059576003656286,
0.09675810473815462,-0.012854360817972324,
0.09680798004987531,-0.00466722816546661,
0.09685785536159601,0.012858300897486989,
0.0969077306733167,-0.00813516194876526,
0.0969576059850374,-0.02987645660690002,
0.09700748129675811,-0.01671941052722296,
0.0970573566084788,0.004922637641919428,
0.0971072319201995,-0.011954535814258621,
0.0971571072319202,0.0038620945424918725,
0.0972069825436409,0.020581349349290113,
0.09725685785536159,0.0168756809730957,
0.0973067331670823,0.004843310649549076,
0.097356608478803,-0.01211647184293194,
0.09740648379052369,-0.012013413663309915,
0.09745635910224439,0.010525846192827107,
0.09750623441396508,0.010683770549430219,
0.09755610972568579,-0.007547232068512172,
0.09760598503740649,-0.01117139263708346,
0.09765586034912718,-0.02364004621571006,
0.09770573566084788,-0.011132475128238157,
0.09775561097256857,-0.006350408338899348,
0.09780548628428928,-0.008054611980484983,
0.09785536159600998,0.010771605549441253,
0.09790523690773068,-0.006876206176836861,
0.09795511221945137,-0.010344303847812094,
0.09800498753117207,-0.01946373882778788,
0.09805486284289276,-0.011236133187531909,
0.09810473815461347,0.008489405129879873,
0.09815461346633417,0.029826691461041936,
0.09820448877805486,-0.011251830426048949,
0.09825436408977556,-0.011520609254715118,
0.09830423940149625,-0.016602744572939324,
0.09835411471321696,0.012747089133211525,
0.09840399002493766,0.008478173014196757,
0.09845386533665836,-0.006361988358013812,
0.09850374064837905,0.01743595445310925,
0.09855361596009975,-0.0220663455165514,
0.09860349127182044,-0.01747955266648171,
0.09865336658354115,-0.013868915081573762,
0.09870324189526185,-0.047783232582250784,
0.09875311720698254,-0.04450746584159631,
0.09880299251870324,-0.013722526099165884,
0.09885286783042393,0.009384329819711764,
0.09890274314214464,-0.01613208968569444,
0.09895261845386534,-0.01301893757700112,
0.09900249376558604,0.007523903591292692,
0.09905236907730673,-0.0019701399767201866,
0.09910224438902743,-0.000707665838188147,
0.09915211970074812,0.017432728059131153,
0.09920199501246883,-0.011263662124523588,
0.09925187032418953,-0.024453131022626202,
0.09930174563591022,-0.024743222254422194,
0.09935162094763092,0.013752655627090294,
0.09940149625935162,-0.03560357888641252,
0.09945137157107233,-0.016278627649383613,
0.09950124688279302,-0.02825018934168485,
0.09955112219451372,0.0008670899990058743,
0.09960099750623441,-0.0015341380738390607,
0.09965087281795511,-0.018382501974391043,
0.0997007481296758,-0.01290540131234598,
0.09975062344139651,-0.030467029509906124,
0.09980049875311721,0.005436995905903982,
0.0998503740648379,-0.004523148372538961,
0.0999002493765586,-0.00918104662941745,
0.0999501246882793,-0.021506689464549915,
0.1,-0.01342340740646588,
0.1000498753117207,-0.017467072703136417,
0.1000997506234414,0.0021841088108185604,
0.10014962593516209,-0.016760365859920683,
0.10019950124688279,0.04353696170366163,
0.1002493765586035,-0.017880901022727384,
0.1002992518703242,-0.004833724189048951,
0.10034912718204489,-0.02028426657897097,
0.10039900249376559,-0.03340539468060912,
0.10044887780548628,0.01250755554323343,
0.10049875311720698,-0.01445779365356534,
0.10054862842892769,-0.01569455760727856,
0.10059850374064838,-0.018051641542962488,
0.10064837905236908,-0.0076170728074782925,
0.10069825436408977,0.013062554810596032,
0.10074812967581047,-0.03786610831870121,
0.10079800498753118,-0.021859096910275884,
0.10084788029925187,-0.02482140593473642,
0.10089775561097257,-0.007914847571690474,
0.10094763092269327,-0.014317891350376762,
0.10099750623441396,-0.03659590313903342,
0.10104738154613466,0.024156929432893385,
0.10109725685785537,0.0015979351742694999,
0.10114713216957606,-0.016698815792039495,
0.10119700748129676,0.004334943480711343,
0.10124688279301745,-0.037786903784133734,
0.10129675810473815,0.004468105278033468,
0.10134663341645886,-0.008924946771215629,
0.10139650872817955,0.00938106411985723,
0.10144638403990025,-0.010720361721949484,
0.10149625935162095,0.023373264923460348,
0.10154613466334164,-0.033949275589709824,
0.10159600997506234,-0.041910259103305585,
0.10164588528678305,0.0034639589008975454,
0.10169576059850374,-0.023620151530870798,
0.10174563591022444,0.00030352419902730625,
0.10179551122194513,-0.017933412121282785,
0.10184538653366583,-0.02536052901748987,
0.10189526184538654,-0.003088500058415119,
0.10194513715710724,-0.03964538119427891,
0.10199501246882793,0.008552862449760012,
0.10204488778054863,-0.00501740059153709,
0.10209476309226932,-0.0034140626713504863,
0.10214463840399003,-0.024437197437326967,
0.10219451371571073,-0.03690504479244955,
0.10224438902743142,-0.016874824398512386,
0.10229426433915212,0.008639129226692122,
0.10234413965087281,0.0024622051555472715,
0.10239401496259351,0.014877221143574353,
0.10244389027431422,-0.009633325266092826,
0.10249376558603492,0.0005977275658578087,
0.10254364089775561,0.004407055121151892,
0.10259351620947631,-0.024856683121783844,
0.102643391521197,-0.019362840626138654,
0.10269326683291771,-0.005410056328934388,
0.10274314214463841,-0.01337989526834056,
0.1027930174563591,0.006297485229840809,
0.1028428927680798,-0.02324070136274177,
0.1028927680798005,-0.0027414665680956275,
0.10294264339152119,0.0022766747426318443,
0.1029925187032419,0.003084481720297451,
0.1030423940149626,-0.008446993556513793,
0.10309226932668329,0.008538969725732657,
0.10314214463840399,-0.005886298683036302,
0.10319201995012468,0.014836669153415045,
0.10324189526184539,0.00335897384298364,
0.10329177057356609,-0.009282142953530147,
0.10334164588528678,-0.008475701662417581,
0.10339152119700748,0.002243119953142373,
0.10344139650872818,0.019956965569219855,
0.10349127182044887,-0.0016161917307754559,
0.10354114713216958,0.0034751617376397896,
0.10359102244389028,-0.031256325981596576,
0.10364089775561097,0.0012727980414207404,
0.10369077306733167,0.006473760993758133,
0.10374064837905236,0.010127113921690231,
0.10379052369077307,-0.035686613361682606,
0.10384039900249377,-0.004067823148917758,
0.10389027431421446,-0.011610798715991227,
0.10394014962593516,-0.016213977764767407,
0.10399002493765586,-0.03784203514184535,
0.10403990024937655,-0.02849764762671949,
0.10408977556109726,0.01815678099916747,
0.10413965087281796,-0.031832590743705334,
0.10418952618453865,0.0397142314834287,
0.10423940149625935,-0.0018559055785688826,
0.10428927680798004,0.009952587357307405,
0.10433915211970075,0.01864495733194143,
0.10438902743142145,0.0062870710875550665,
0.10443890274314215,-0.002510074736267795,
0.10448877805486284,-0.003067272676219197,
0.10453865336658354,0.024671311932397005,
0.10458852867830425,0.018532050974304472,
0.10463840399002494,0.028773562595090812,
0.10468827930174564,0.035058683509832295,
0.10473815461346633,0.011263707937187901,
0.10478802992518703,0.018327624387984628,
0.10483790523690772,0.014588921712243939,
0.10488778054862843,0.005942771746709064,
0.10493765586034913,0.04087633850682321,
0.10498753117206983,0.004657914747466363,
0.10503740648379052,-0.004141177640162362,
0.10508728179551122,0.018693096967220574,
0.10513715710723193,0.017198763766670636,
0.10518703241895262,-0.005145262053549883,
0.10523690773067332,0.009892493073149291,
0.10528678304239401,0.00882285051188696,
0.10533665835411471,-0.007258604532411356,
0.1053865336658354,0.039859206252859616,
0.10543640897755611,0.01588715321906562,
0.10548628428927681,0.010743395384878177,
0.1055361596009975,0.017455828105688617,
0.1055860349127182,0.004928567624216926,
0.1056359102244389,-0.0012199532498586747,
0.10568578553615961,0.009273233418681357,
0.1057356608478803,0.02509176916104349,
0.105785536159601,0.009678590927875066,
0.1058354114713217,0.025872722407947933,
0.10588528678304239,0.008684512168244566,
0.10593516209476309,0.0079570180880847,
0.1059850374064838,0.01678327349083807,
0.10603491271820449,0.02366540002235476,
0.10608478802992519,0.012249906039006638,
0.10613466334164588,0.012435117917025524,
0.10618453865336658,0.0038890913198275905,
0.10623441396508729,0.0042460998431894745,
0.10628428927680798,0.014234255215883304,
0.10633416458852868,0.003630150397111764,
0.10638403990024937,0.00817161388603943,
0.10643391521197007,0.007167669724869536,
0.10648379052369077,-0.0015720791296646858,
0.10653366583541148,0.0036205353869393896,
0.10658354114713217,-0.0032884919569295505,
0.10663341645885287,-0.01835346484813658,
0.10668329177057356,0.02010257502792967,
0.10673316708229426,0.043713277799961814,
0.10678304239401497,0.016356604540438618,
0.10683291770573566,0.023956265994547664,
0.10688279301745636,0.011015111137982113,
0.10693266832917706,0.02891020325880079,
0.10698254364089775,0.04088106017799037,
0.10703241895261846,0.021101853008011574,
0.10708229426433916,0.016783764693569472,
0.10713216957605985,0.007711768446108673,
0.10718204488778055,0.02010483676067766,
0.10723192019950124,0.00999735287578823,
0.10728179551122194,0.0046968262967037894,
0.10733167082294265,0.02477297590271404,
0.10738154613466334,0.018069858710175666,
0.10743142144638404,0.016457356564689385,
0.10748129675810474,0.024837954961856798,
0.10753117206982543,0.04506966724653124,
0.10758104738154614,0.002512588524331484,
0.10763092269326684,0.022127050219498328,
0.10768079800498753,0.011607097956967904,
0.10773067331670823,0.032345500981777166,
0.10778054862842892,0.03706109552449169,
0.10783042394014962,0.01538741035685066,
0.10788029925187033,0.037248504465276194,
0.10793017456359102,0.01840792460576412,
0.10798004987531172,0.017171378697947343,
0.10802992518703242,0.031494946543701816,
0.10807980049875311,0.033941778473111216,
0.10812967581047382,0.04579317818575286,
0.10817955112219452,0.0019477507969843134,
0.10822942643391521,0.01462869442063353,
0.10827930174563591,0.026768769369536437,
0.1083291770573566,0.027253993905961574,
0.1083790523690773,0.02627254711812736,
0.10842892768079801,0.01711580437871633,
0.1084788029925187,0.01726829790990899,
0.1085286783042394,0.027304806261742965,
0.1085785536159601,0.034795147198439166,
0.10862842892768079,0.0191964443146184,
0.1086783042394015,0.027637619912453417,
0.1087281795511222,0.018130047513789188,
0.1087780548628429,0.025858026039781195,
0.10882793017456359,0.04025492195387139,
0.10887780548628428,0.024728285525819113,
0.108927680798005,-0.007301761621044046,
0.10897755610972569,0.03880056900168807,
0.10902743142144639,0.014654693178745072,
0.10907730673316708,0.028880950295178252,
0.10912718204488778,0.01192315495709552,
0.10917705735660847,0.035770443705079966,
0.10922693266832918,-0.0002893580624658172,
0.10927680798004988,-0.008028534635380072,
0.10932668329177057,0.0052263271697416055,
0.10937655860349127,0.04263651923229742,
0.10942643391521197,0.022122063163652728,
0.10947630922693267,0.02037287805193966,
0.10952618453865337,0.04113681847138467,
0.10957605985037407,0.0041277863138472135,
0.10962593516209476,0.019603174269213017,
0.10967581047381546,0.013587792248516837,
0.10972568578553615,0.01764076766430063,
0.10977556109725686,0.05159452508869832,
0.10982543640897756,0.03375063903950646,
0.10987531172069825,0.014539568550935552,
0.10992518703241895,0.012806143891049993,
0.10997506234413965,0.021356880761567398,
0.11002493765586036,0.026996860807640428,
0.11007481296758105,0.02577659431964779,
0.11012468827930175,0.01724999971431928,
0.11017456359102244,0.037266668390616535,
0.11022443890274314,0.05037955328247355,
0.11027431421446383,0.032026954272758444,
0.11032418952618454,0.037870635183106426,
0.11037406483790524,0.02736040877024429,
0.11042394014962593,0.017637070099295372,
0.11047381546134663,0.044995727451713166,
0.11052369077306733,0.007353723986044315,
0.11057356608478804,0.06131639669343707,
0.11062344139650873,0.03874530475949986,
0.11067331670822943,0.024311826353556665,
0.11072319201995012,0.034609024252976996,
0.11077306733167082,0.016472408995349897,
0.11082294264339151,0.010620520102969697,
0.11087281795511222,0.01793410504583765,
0.11092269326683292,0.021033555918014382,
0.11097256857855362,0.020736535670623595,
0.11102244389027431,0.025261720876600804,
0.111072319201995,0.030944013933081185,
0.11112219451371572,0.03030189819833063,
0.11117206982543641,0.01916025307281391,
0.11122194513715711,0.024704921446834314,
0.1112718204488778,0.03766272007029568,
0.1113216957605985,0.03432218284372816,
0.11137157107231921,0.020208760243537637,
0.1114214463840399,0.029026949871024596,
0.1114713216957606,0.010890211816235479,
0.1115211970074813,0.03374230997878931,
0.11157107231920199,0.02624292208064034,
0.11162094763092269,0.03512479441586709,
0.1116708229426434,0.01803634721629238,
0.11172069825436409,0.05276511864860971,
0.11177057356608479,0.019646976102266723,
0.11182044887780548,0.02485283055814315,
0.11187032418952618,0.02255095116558247,
0.11192019950124689,0.025042655643615245,
0.11197007481296758,0.0018400214153763104,
0.11201995012468828,0.021867295781356842,
0.11206982543640898,0.019824220368303773,
0.11211970074812967,0.0316351114949545,
0.11216957605985037,-0.0010619469966992867,
0.11221945137157108,0.012458445021544999,
0.11226932668329177,0.030783084214018562,
0.11231920199501247,0.019767668586184332,
0.11236907730673316,0.024591635027722953,
0.11241895261845386,0.03659215564832191,
0.11246882793017457,0.022518775459880153,
0.11251870324189527,0.0334390343698956,
0.11256857855361596,0.03338798824387958,
0.11261845386533666,0.014727584001737638,
0.11266832917705735,0.0201708754317374,
0.11271820448877805,0.049405368112732995,
0.11276807980049876,0.019235384445031534,
0.11281795511221945,0.02877986194869695,
0.11286783042394015,0.021955719648761085,
0.11291770573566084,0.027822153531186562,
0.11296758104738154,0.033645697299463595,
0.11301745635910225,0.030730225216338967,
0.11306733167082295,0.008348221639796339,
0.11311720698254364,0.046042996368071895,
0.11316708229426434,0.02118605784419383,
0.11321695760598503,0.009872397110468315,
0.11326683291770574,0.008695954231602871,
0.11331670822942644,0.009953967734164886,
0.11336658354114713,0.009591438135834612,
0.11341645885286783,0.010110935195220706,
0.11346633416458853,-0.0019866487819094197,
0.11351620947630922,0.020777051069904337,
0.11356608478802993,-0.004478179419203386,
0.11361596009975063,0.0025090373922183537,
0.11366583541147132,-0.007068200103133179,
0.11371571072319202,0.00644919084873876,
0.11376558603491271,0.02046896653316595,
0.11381546134663342,0.05035895497393752,
0.11386533665835412,0.019744420664036144,
0.11391521197007481,0.003257868610235958,
0.11396508728179551,0.02766024687156308,
0.1140149625935162,0.033711054065076726,
0.1140648379052369,0.025169094679881467,
0.11411471321695761,0.04099648360670372,
0.1141645885286783,0.017081872510846474,
0.114214463840399,0.020318645099153824,
0.1142643391521197,0.006032472045646912,
0.1143142144638404,0.018540377681562553,
0.1143640897755611,0.027656262928130424,
0.1144139650872818,0.026552619437733686,
0.1144638403990025,0.005674353850125721,
0.11451371571072319,0.01583049807614376,
0.11456359102244389,0.010574884311563013,
0.11461346633416458,0.0013880840197398239,
0.11466334164588529,0.01881246945580373,
0.11471321695760599,0.022150339372511676,
0.11476309226932668,0.03887707930648604,
0.11481296758104738,0.016809103236384827,
0.11486284289276807,0.005392294316604553,
0.11491271820448878,0.013115520536802504,
0.11496259351620948,0.01711285708010467,
0.11501246882793018,0.018799414655054966,
0.11506234413965087,-0.033812960483397936,
0.11511221945137157,-0.014361545158022196,
0.11516209476309226,0.007514129369804697,
0.11521197007481297,-0.009508844383407619,
0.11526184538653367,0.03472518250428001,
0.11531172069825436,0.008365697239447844,
0.11536159600997506,-0.007788686532168211,
0.11541147132169575,0.038855356366240754,
0.11546134663341646,0.0005536375052148188,
0.11551122194513716,0.022376788326688577,
0.11556109725685786,0.02443473858438703,
0.11561097256857855,-0.014707865301911989,
0.11566084788029925,-0.009851919113156351,
0.11571072319201996,-0.0037689260458285126,
0.11576059850374065,-0.007220564724388983,
0.11581047381546135,0.013703579141891641,
0.11586034912718204,-0.0009758698161187896,
0.11591022443890274,0.01662480970885212,
0.11596009975062344,-0.017865574192124048,
0.11600997506234415,0.008537550346412664,
0.11605985037406484,0.006257200447795985,
0.11610972568578554,0.0024767697706202284,
0.11615960099750623,0.008125200300204144,
0.11620947630922693,0.023869495132619455,
0.11625935162094764,-0.010138475314443087,
0.11630922693266833,-0.007383886039766217,
0.11635910224438903,0.012416168836674912,
0.11640897755610972,0.02504780037278339,
0.11645885286783042,0.004280666148736557,
0.11650872817955112,-0.026202448376262094,
0.11655860349127183,0.006947729746283852,
0.11660847880299252,0.021250529053361188,
0.11665835411471322,7.581071097333852e-05,
0.11670822942643391,-0.003167546647956678,
0.11675810473815461,-0.004080875885952439,
0.11680798004987532,-0.0020701315653070956,
0.11685785536159601,-0.02100780405676354,
0.11690773067331671,-0.004940212430951367,
0.1169576059850374,0.01351757037914117,
0.1170074812967581,0.014360347761780436,
0.1170573566084788,0.02088926047476803,
0.1171072319201995,-0.002658617030957436,
0.1171571072319202,-0.00017477950642237573,
0.1172069825436409,0.0033193639997282573,
0.1172568578553616,0.0013102791678441493,
0.11730673316708229,-0.0096934491522278,
0.117356608478803,-0.01477248900598475,
0.1174064837905237,-0.027087015238085883,
0.11745635910224439,-0.020794372478865578,
0.11750623441396509,-0.007976302065542269,
0.11755610972568578,-0.0014628979921887148,
0.11760598503740648,-0.0032856379399109643,
0.11765586034912719,0.005261309903655427,
0.11770573566084788,0.0049758276299351565,
0.11775561097256858,-0.008615243560799976,
0.11780548628428927,-0.005479726107896386,
0.11785536159600997,-0.003940128232486106,
0.11790523690773068,-0.03319805293331062,
0.11795511221945137,0.00347064341605529,
0.11800498753117207,0.004325198615634308,
0.11805486284289277,-0.03779613922046255,
0.11810473815461346,0.012458077266494432,
0.11815461346633417,-0.027141861990646256,
0.11820448877805487,-0.01076375747919739,
0.11825436408977556,0.0034172796453165385,
0.11830423940149626,-0.016323472988989358,
0.11835411471321695,-0.0470007045974921,
0.11840399002493765,-0.01826205683773732,
0.11845386533665836,-0.030654438621474968,
0.11850374064837906,-0.015237393103050082,
0.11855361596009975,-0.0198815483144372,
0.11860349127182045,-0.037398401224578916,
0.11865336658354114,-0.03131614127184422,
0.11870324189526185,-0.019796181248442006,
0.11875311720698255,-0.01834584367431944,
0.11880299251870324,-0.0005197785979366831,
0.11885286783042394,-0.0015954330952623634,
0.11890274314214463,0.0030448168476938688,
0.11895261845386533,0.014181651183826098,
0.11900249376558604,-0.028042623255472503,
0.11905236907730674,0.013124409838447863,
0.11910224438902743,-0.011546457520443441,
0.11915211970074813,-0.04706615963209777,
0.11920199501246882,-0.015907946122208545,
0.11925187032418953,-0.020544147535229595,
0.11930174563591023,-0.006859567433885603,
0.11935162094763092,0.000370134203768498,
0.11940149625935162,-0.010998341109244735,
0.11945137157107232,0.013716827492598463,
0.11950124688279301,-0.012029014653074535,
0.11955112219451372,-0.011865558535881969,
0.11960099750623442,0.01242002602410548,
0.11965087281795511,0.020433373133072006,
0.11970074812967581,-0.01851724182296713,
0.1197506234413965,-0.041057003777682045,
0.11980049875311721,0.012373753250097336,
0.11985037406483791,-0.0015558430009160757,
0.1199002493765586,-0.023320518526808186,
0.1199501246882793,0.0018097121379494433,
0.12,-0.04470332562942006,
0.1200498753117207,-0.01406248211780587,
0.1200997506234414,-0.016970331060249637,
0.1201496259351621,-0.027020281311206013,
0.12019950124688279,-0.027123386507028974,
0.12024937655860349,-0.019047432309692584,
0.12029925187032418,-0.0022367965003226836,
0.1203491271820449,-0.00820346614006694,
0.12039900249376559,-0.029664524929408784,
0.12044887780548628,0.01306395584719371,
0.12049875311720698,-0.025663982673184753,
0.12054862842892768,-0.006718472592181126,
0.12059850374064839,-0.01778589635903165,
0.12064837905236908,-0.029389053376670297,
0.12069825436408978,-0.016209678293925014,
0.12074812967581047,-0.016042871932356376,
0.12079800498753117,-0.01805046294850449,
0.12084788029925186,0.005609659300553382,
0.12089775561097257,-0.00940738992670148,
0.12094763092269327,-0.027184481002900433,
0.12099750623441397,-0.017461239850921805,
0.12104738154613466,-0.012774673828232472,
0.12109725685785536,0.0034907044611470657,
0.12114713216957607,-0.0012538584659153688,
0.12119700748129676,0.013416013128158486,
0.12124688279301746,0.0025954360799569486,
0.12129675810473815,-0.02171663202252702,
0.12134663341645885,-0.005330733680427161,
0.12139650872817954,-0.02251707888509974,
0.12144638403990025,0.00014370705169855502,
0.12149625935162095,-0.01172239583978787,
0.12154613466334165,-0.026636865437144698,
0.12159600997506234,-0.01963756277511622,
0.12164588528678304,-0.0059378952873848714,
0.12169576059850375,0.00709695896022579,
0.12174563591022444,0.018795629101355404,
0.12179551122194514,-0.0029947123971553,
0.12184538653366583,-0.005969831650363286,
0.12189526184538653,0.013556952915038134,
0.12194513715710723,0.006521013163220849,
0.12199501246882793,-0.011373822684786383,
0.12204488778054863,-0.007881070994253402,
0.12209476309226933,-0.007646285502824505,
0.12214463840399002,-0.013106408265832413,
0.12219451371571072,-0.00828676173584879,
0.12224438902743143,0.004387669212304879,
0.12229426433915212,-0.0016819605783284656,
0.12234413965087282,-0.006937391032507098,
0.12239401496259351,-0.0046161197782548236,
0.12244389027431421,-0.014006619304643244,
0.12249376558603492,-0.010708317330285436,
0.12254364089775562,0.009037362864711723,
0.12259351620947631,0.00023926832846366507,
0.122643391521197,-0.01099911447774439,
0.1226932668329177,-0.004426211270093626,
0.1227431421446384,-0.00297899972189645,
0.12279301745635911,0.016102862978294386,
0.1228428927680798,0.0031472153424888516,
0.1228927680798005,0.0068932330307383115,
0.1229426433915212,-0.019559721494056957,
0.12299251870324189,0.008896716551222752,
0.1230423940149626,0.01435262580553613,
0.1230922693266833,-0.02123751437203061,
0.12314214463840399,-0.008958681979739556,
0.12319201995012469,-0.0070232959299643205,
0.12324189526184538,-0.001980484585296316,
0.12329177057356608,-0.022645963585134637,
0.12334164588528679,0.03412147118941554,
0.12339152119700748,-0.0037726617159618138,
0.12344139650872818,-0.003963817894370872,
0.12349127182044888,-0.006165421781209457,
0.12354114713216957,-0.006563806091921097,
0.12359102244389028,-0.003625015973468939,
0.12364089775561098,0.006988554021920682,
0.12369077306733167,-0.012574925465148221,
0.12374064837905237,0.005653075865582857,
0.12379052369077306,-0.012413332495520062,
0.12384039900249376,0.013677210949312067,
0.12389027431421447,0.008866525834075031,
0.12394014962593516,0.03469501747717856,
0.12399002493765586,-0.0029168118473305643,
0.12403990024937656,0.012826830112835613,
0.12408977556109725,0.030210491134572796,
0.12413965087281796,0.000700238814522562,
0.12418952618453866,-0.01112460318005578,
0.12423940149625935,0.011054572490185138,
0.12428927680798005,0.0029957459490708785,
0.12433915211970074,0.00036551679283342063,
0.12438902743142144,0.012509949801095956,
0.12443890274314215,0.002994871550741355,
0.12448877805486284,0.02490560913545376,
0.12453865336658354,0.019801674486962614,
0.12458852867830424,0.017444344543841507,
0.12463840399002493,-0.01785809914741271,
0.12468827930174564,0.017801859837313118,
0.12473815461346634,0.002041520101437804,
0.12478802992518703,-0.0045815767552574264,
0.12483790523690773,0.0042947544214393795,
0.12488778054862842,0.007854118571957315,
0.12493765586034913,-0.003474912632295213,
0.12498753117206983,0.0011724087180672122,
0.12503740648379053,0.019797311368333945,
0.12508728179551123,0.021795931592045167,
0.12513715710723192,0.0027993365929580858,
0.12518703241895263,-0.00431615544027014,
0.1252369077306733,-0.02419881624537014,
0.12528678304239402,0.022287580597220417,
0.1253366583541147,-0.010334914613963901,
0.1253865336658354,0.00029235462981346515,
0.12543640897755612,-0.00016478511390856376,
0.1254862842892768,-0.01178854551280213,
0.1255361596009975,0.021323281627018763,
0.1255860349127182,0.026683928662446205,
0.1256359102244389,0.00917219419709061,
0.1256857855361596,-0.010827545969778281,
0.1257356608478803,0.013219781433297818,
0.125785536159601,0.0356472150024483,
0.12583541147132168,0.01300313902490404,
0.1258852867830424,0.03559552874858331,
0.1259351620947631,0.021396227098249475,
0.12598503740648379,0.015326747097387934,
0.1260349127182045,0.02694441614606679,
0.12608478802992518,0.02587903625601323,
0.1261346633416459,0.02185794485317534,
0.1261845386533666,0.03221809756452322,
0.12623441396508728,0.03202587684590051,
0.126284289276808,0.008686433905289769,
0.12633416458852867,0.011907860882041956,
0.12638403990024938,0.0032617523882222596,
0.1264339152119701,0.014276008494534923,
0.12648379052369077,0.027493154230039223,
0.12653366583541148,0.017256222917368554,
0.12658354114713216,0.025641522219027546,
0.12663341645885287,0.012667394229034347,
0.12668329177057355,0.035568992705966467,
0.12673316708229426,0.011269442264622887,
0.12678304239401497,0.034537463863635785,
0.12683291770573565,0.022219164309721307,
0.12688279301745636,0.00427710476654084,
0.12693266832917705,0.017174692477871404,
0.12698254364089775,-0.00027707954768257936,
0.12703241895261846,0.025695181043100725,
0.12708229426433915,-0.022094109618100714,
0.12713216957605986,0.009679356574715256,
0.12718204488778054,0.020464265598546576,
0.12723192019950125,-0.01540799943889054,
0.12728179551122196,0.042412781509514254,
0.12733167082294264,0.014790457452219002,
0.12738154613466335,0.015473081644697857,
0.12743142144638403,0.051924361404473776,
0.12748129675810474,-0.004299408730907676,
0.12753117206982545,0.011412375922098032,
0.12758104738154613,0.04756715124450872,
0.12763092269326684,0.02619827210946783,
0.12768079800498752,0.021346664481409747,
0.12773067331670823,0.011736058759447611,
0.1277805486284289,0.029383551353007777,
0.12783042394014962,0.01727878849320222,
0.12788029925187033,0.04272155898719035,
0.12793017456359101,0.01187382793968132,
0.12798004987531172,0.03091921863948811,
0.1280299251870324,0.014569646518777573,
0.12807980049875312,0.026730886892071443,
0.12812967581047383,0.030445217243383966,
0.1281795511221945,0.02711753817967295,
0.12822942643391522,0.03289561293153458,
0.1282793017456359,0.03253562745491363,
0.1283291770573566,0.025325561005609492,
0.12837905236907732,0.017672139693018098,
0.128428927680798,0.03965180718322091,
0.1284788029925187,0.0007809844076593526,
0.1285286783042394,0.029656804837955096,
0.1285785536159601,0.03146708576993701,
0.1286284289276808,0.05660621524528282,
0.1286783042394015,0.02420028627203041,
0.1287281795511222,0.047672878017221795,
0.12877805486284288,0.0117284116309513,
0.1288279301745636,0.022527064577394236,
0.1288778054862843,0.02863292314291736,
0.12892768079800498,0.036181341163267,
0.1289775561097257,0.041965800075471196,
0.12902743142144638,0.006959940739795851,
0.12907730673316709,0.025313414032908578,
0.12912718204488777,0.020055906221841172,
0.12917705735660848,0.026802611749729102,
0.1292269326683292,0.04334942103911391,
0.12927680798004987,0.03005042634097345,
0.12932668329177058,0.044978005469428636,
0.12937655860349126,0.03705766814710597,
0.12942643391521197,0.03013028527968882,
0.12947630922693268,0.038178844959572765,
0.12952618453865336,0.03823786009071171,
0.12957605985037407,0.05032887970854642,
0.12962593516209475,0.0030250726265389147,
0.12967581047381546,0.03398741329004371,
0.12972568578553617,0.020237887786792738,
0.12977556109725685,0.03677188681152677,
0.12982543640897756,0.04659809103509002,
0.12987531172069824,0.015566651539677722,
0.12992518703241895,0.03866574142330096,
0.12997506234413966,0.03599897365928956,
0.13002493765586035,0.030427414340103712,
0.13007481296758105,0.0048666420933647266,
0.13012468827930174,0.04289937570267678,
0.13017456359102245,0.032344041082164286,
0.13022443890274316,0.019975569518405942,
0.13027431421446384,0.03697070158695128,
0.13032418952618455,0.030569271464089668,
0.13037406483790523,0.027692884422640066,
0.13042394014962594,0.03683356759138565,
0.13047381546134662,0.024970190446255695,
0.13052369077306733,0.022730094456484624,
0.13057356608478804,0.04651076412368515,
0.13062344139650872,0.031128632262411384,
0.13067331670822943,0.03331391145725249,
0.1307231920199501,0.019156915534005017,
0.13077306733167082,-0.012241456618786579,
0.13082294264339153,0.005632565681772096,
0.13087281795511221,0.0028180616907093475,
0.13092269326683292,0.0014329527827716439,
0.1309725685785536,0.03169475699814815,
0.13102244389027431,0.016334101789661395,
0.13107231920199502,0.027435256239569737,
0.1311221945137157,0.02147963183004451,
0.13117206982543642,0.028605159240318777,
0.1312219451371571,0.03440487594368355,
0.1312718204488778,0.053105936819640945,
0.13132169576059852,-0.00833428683158216,
0.1313715710723192,0.047415330070295796,
0.1314214463840399,0.041370984256666216,
0.1314713216957606,0.03046729089528363,
0.1315211970074813,0.04441124710927488,
0.13157107231920198,0.025543483539210935,
0.1316209476309227,0.042042928201990654,
0.1316708229426434,0.026285208368168986,
0.13172069825436408,0.053424704710928056,
0.1317705735660848,0.004911088277025324,
0.13182044887780547,0.02500019147280287,
0.13187032418952618,0.001584520249732855,
0.1319201995012469,0.05335121566785454,
0.13197007481296757,0.03428053149669225,
0.13201995012468828,0.02749015128426125,
0.13206982543640897,0.03711135519146065,
0.13211970074812968,0.01679889781674853,
0.13216957605985039,0.04317296978637746,
0.13221945137157107,0.017786427157508077,
0.13226932668329178,0.03760420638560924,
0.13231920199501246,0.0233101111568199,
0.13236907730673317,0.03289210272181538,
0.13241895261845388,0.022740573958190163,
0.13246882793017456,0.02502067406026251,
0.13251870324189527,0.01877892522768049,
0.13256857855361595,0.03387547984681261,
0.13261845386533666,0.021873355009283252,
0.13266832917705737,0.029532784466459655,
0.13271820448877805,0.0395566280604413,
0.13276807980049876,0.017098540230871546,
0.13281795511221944,0.011776555125061058,
0.13286783042394015,0.026136848981267,
0.13291770573566083,0.01872039322525963,
0.13296758104738154,0.02149308580103499,
0.13301745635910225,-0.024426783022048093,
0.13306733167082294,0.026293765522318137,
0.13311720698254365,0.04292704588190474,
0.13316708229426433,0.02269670627948615,
0.13321695760598504,0.0530777015025259,
0.13326683291770575,-0.01192269993905637,
0.13331670822942643,0.003222431322690591,
0.13336658354114714,0.0030585122223870873,
0.13341645885286782,0.005240194255558023,
0.13346633416458853,0.009189368814736807,
0.13351620947630924,0.04140777459895959,
0.13356608478802992,0.00909727483383508,
0.13361596009975063,0.0029976568013189535,
0.1336658354114713,0.0023449659377991136,
0.13371571072319202,0.031203573023231866,
0.13376558603491273,0.024422699415167053,
0.1338154613466334,0.02952818774205062,
0.13386533665835412,0.023769638787312686,
0.1339152119700748,0.026887470797740867,
0.13396508728179551,0.026117740849392886,
0.1340149625935162,0.03112938725744619,
0.1340648379052369,0.04224588195397683,
0.13411471321695762,0.05415646017665777,
0.1341645885286783,-0.007546925115024635,
0.134214463840399,0.012099556448910672,
0.1342643391521197,0.017479898441413975,
0.1343142144638404,0.02882480445648506,
0.1343640897755611,0.036581148918001634,
0.1344139650872818,-0.018658026425992902,
0.1344638403990025,0.027047345366728433,
0.13451371571072318,0.03016648655303377,
0.1345635910224439,0.010800839534620174,
0.1346134663341646,-0.009350553432047142,
0.13466334164588528,0.00034648860862056957,
0.134713216957606,0.024089028784457865,
0.13476309226932667,-0.0006203074350875325,
0.13481296758104738,0.011014696473822978,
0.1348628428927681,-0.004005399221374762,
0.13491271820448877,-0.008387730882481431,
0.13496259351620948,0.014662851851436183,
0.13501246882793017,0.0016251323099114416,
0.13506234413965088,0.005027125831297291,
0.13511221945137158,0.02238717536716583,
0.13516209476309227,0.0005199223276108264,
0.13521197007481298,0.009800319182607552,
0.13526184538653366,0.01038669557178674,
0.13531172069825437,0.026068785514156947,
0.13536159600997505,0.01592534364061008,
0.13541147132169576,-0.010536946915837713,
0.13546134663341647,0.019630157051868213,
0.13551122194513715,-0.006611889433273756,
0.13556109725685786,0.003591304618045032,
0.13561097256857854,0.0016064872193120522,
0.13566084788029925,-0.010513649391058772,
0.13571072319201996,0.01718813911370359,
0.13576059850374064,0.03283135416923619,
0.13581047381546135,-0.011706094392704373,
0.13586034912718203,0.012674332719153358,
0.13591022443890274,0.017045837897433823,
0.13596009975062345,0.006984857526760195,
0.13600997506234414,-0.00860848327930627,
0.13605985037406484,0.008942639301577859,
0.13610972568578553,-0.0014372626209286123,
0.13615960099750624,0.002959241750569352,
0.13620947630922695,-7.5785413865682265e-06,
0.13625935162094763,-0.005864300771651476,
0.13630922693266834,0.002262356802476399,
0.13635910224438902,0.016074382950614315,
0.13640897755610973,-0.0036989281150160867,
0.1364588528678304,-0.006659525802057429,
0.13650872817955112,-0.0034837290591834555,
0.13655860349127183,-0.0005614613522743985,
0.1366084788029925,-0.008819655149268668,
0.13665835411471322,0.009585751449756529,
0.1367082294264339,0.022569119042813023,
0.1367581047381546,-0.005600505869042694,
0.13680798004987532,0.00535522937678387,
0.136857855361596,0.0017554398567985563,
0.1369077306733167,-0.02400601892158346,
0.1369576059850374,0.0015280601941976642,
0.1370074812967581,-0.009409274175464524,
0.13705735660847881,0.012138612682626771,
0.1371072319201995,0.004763560279598704,
0.1371571072319202,-0.01750625905376544,
0.1372069825436409,0.0016634985344098465,
0.1372568578553616,0.005574236233775437,
0.1373067331670823,-0.008834630315507894,
0.137356608478803,-0.012208500664959224,
0.1374064837905237,0.005563254956026447,
0.13745635910224438,-0.003312024894903426,
0.1375062344139651,9.20446067450148e-05,
0.1375561097256858,0.010289813873537359,
0.13760598503740648,-0.011279496702549432,
0.1376558603491272,0.006697552078813831,
0.13770573566084787,0.011118828110388708,
0.13775561097256858,0.0017048535784760397,
0.13780548628428926,-0.00558688451970202,
0.13785536159600997,-0.04524469800904731,
0.13790523690773068,-0.014485570876086231,
0.13795511221945136,0.009138748897705662,
0.13800498753117207,0.022046691263577285,
0.13805486284289276,-0.00395747203971419,
0.13810473815461347,-0.003341253180135272,
0.13815461346633418,-0.05284412057123377,
0.13820448877805486,-0.0016286747295199888,
0.13825436408977557,-0.01583238040803838,
0.13830423940149625,-0.014095696871829308,
0.13835411471321696,0.021406189397895372,
0.13840399002493767,0.0020870288214245615,
0.13845386533665835,-0.0004789572360028244,
0.13850374064837906,-0.008055060429953258,
0.13855361596009974,-0.029950393467928754,
0.13860349127182045,-0.010048175837944543,
0.13865336658354116,-0.003701693781821296,
0.13870324189526184,-0.010726578331915258,
0.13875311720698255,-0.02110890077434769,
0.13880299251870323,0.0037835913515813467,
0.13885286783042394,-0.006638390077326592,
0.13890274314214462,0.007884330594089136,
0.13895261845386533,0.0031601585180132206,
0.13900249376558604,-0.012532868702985075,
0.13905236907730673,-0.005356156750638098,
0.13910224438902744,-0.004428341981959108,
0.13915211970074812,-0.004654872323154444,
0.13920199501246883,-0.032385256057438486,
0.13925187032418954,0.005563546185273393,
0.13930174563591022,-0.004668514334110697,
0.13935162094763093,-0.02904689672669339,
0.1394014962593516,-0.0018037300547301318,
0.13945137157107232,-0.030467081011352048,
0.13950124688279303,-0.02199731610869754,
0.1395511221945137,-0.017300527816268257,
0.13960099750623442,-0.0060650843873041645,
0.1396508728179551,-0.030206869830461197,
0.1397007481296758,-0.014631768374098813,
0.13975062344139652,-0.026737306828030678,
0.1398004987531172,-0.0025687204274427175,
0.1398503740648379,-0.0011859071101754416,
0.1399002493765586,-0.020561694125069557,
0.1399501246882793,-0.026361768272603905,
0.14,-0.003954945881084795,
0.1400498753117207,-0.013145804999493867,
0.1400997506234414,0.015532946403210495,
0.1401496259351621,-0.002916876244492106,
0.1401995012468828,0.0034538350778427537,
0.14024937655860348,-0.01777418049341318,
0.1402992518703242,-0.01008512657028064,
0.1403491271820449,-0.024217390798571346,
0.14039900249376558,-0.0031321013959337224,
0.1404488778054863,-0.005434438784002547,
0.14049875311720697,-0.010883548798100459,
0.14054862842892768,-0.014725255063171544,
0.1405985037406484,-0.009132793293601001,
0.14064837905236907,-0.026694904272347872,
0.14069825436408978,-0.015531206938365396,
0.14074812967581046,-0.036491787384804436,
0.14079800498753117,-0.02200679622255066,
0.14084788029925188,-0.007492668943983266,
0.14089775561097256,-0.004514264954215283,
0.14094763092269327,0.014212605401892309,
0.14099750623441396,-0.009512589252879408,
0.14104738154613466,-0.010317586152743842,
0.14109725685785537,-0.02384648042490365,
0.14114713216957606,-0.03284689010269165,
0.14119700748129677,0.0016962931130308743,
0.14124688279301745,-0.02915210671056264,
0.14129675810473816,-0.027836742184204885,
0.14134663341645887,-0.01585388282587674,
