time,amplitude,label
0.0,0.03202568514026694,
4.987531172069826e-05,-0.00772140876847165,
9.975062344139652e-05,0.01642468419767057,
0.00014962593516209475,0.005614521503566349,
0.00019950124688279303,0.02138617296735833,
0.00024937655860349125,-0.017395514264828035,
0.0002992518703241895,-0.0010749905782313114,
0.00034912718204488776,-0.01236927558590946,
0.00039900249376558606,0.021988354069725283,
0.0004488778054862843,0.001790652875151399,
0.0004987531172069825,-0.019169127596332994,
0.0005486284289276808,-0.014901268560503843,
0.000598503740648379,0.015780402513873137,
0.0006483790523690773,-0.011405434832362617,
0.0006982543640897755,0.012829984737490193,
0.0007481296758104738,-0.006519993603120119,
0.0007980049875311721,-0.01713953316363056,
0.0008478802992518703,0.04188948451573318,
0.0008977556109725686,-0.019336050506328063,
0.0009476309226932668,0.0035436754933427777,
0.000997506234413965,0.0031339727732020736,
0.0010473815461346633,0.010979947107001075,
0.0010972568578553616,-0.008690009617621355,
0.00114713216957606,0.00017592229898939857,
0.001197007481296758,0.01563189685387058,
0.0012468827930174563,0.021143985887634633,
0.0012967581047381546,0.027215944081114773,
0.001346633416458853,0.0011845842104168036,
0.001396508728179551,0.018467511638252523,
0.0014463840399002493,0.029506137976224894,
0.0014962593516209476,0.024093141398392068,
0.001546134663341646,0.012052810477032966,
0.0015960099750623442,0.0013338726530723582,
0.0016458852867830423,-0.009766745041490988,
0.0016957605985037406,0.014143895811289582,
0.001745635910224439,-0.0026793664763660636,
0.0017955112219451373,0.02516331799261625,
0.0018453865336658353,-0.019264623848547952,
0.0018952618453865336,0.015940072771945393,
0.001945137157107232,-0.0006062983311780207,
0.00199501246882793,0.013153277310138451,
0.0020448877805486283,0.019429483760023382,
0.0020947630922693266,-0.009217283966965053,
0.002144638403990025,0.007671801907580291,
0.0021945137157107233,0.010534929778362765,
0.0022443890274314216,-0.012086299910347908,
0.00229426433915212,0.048497053409034374,
0.0023441396508728177,0.013474784376279,
0.002394014962593516,-0.0010624558103033803,
0.0024438902743142144,0.01578030164396642,
0.0024937655860349127,-0.02734365639835727,
0.002543640897755611,0.01573290824324443,
0.0025935162094763093,0.025134589038879093,
0.0026433915211970076,0.02354228746262378,
0.002693266832917706,-0.005364856632862609,
0.002743142144638404,0.03287149182911038,
0.002793017456359102,0.02678119448617847,
0.0028428927680798004,0.005569378592408535,
0.0028927680798004987,0.04479289414186183,
0.002942643391521197,0.024851361162380167,
0.0029925187032418953,-0.0013836868992712636,
0.0030423940149625936,0.018286472739517518,
0.003092269326683292,0.022331100839023586,
0.00314214463840399,0.007372490307146082,
0.0031920199501246885,0.010792664316187847,
0.0032418952618453864,-0.011386798017209425,
0.0032917705735660847,-0.0037079715599438387,
0.003341645885286783,0.008465774582470043,
0.0033915211970074813,0.021097293425531058,
0.0034413965087281796,0.020353235154361524,
0.003491271820448878,0.03768244066130971,
0.003541147132169576,-0.003526030989405092,
0.0035910224438902745,0.007612916687939725,
0.0036408977556109724,0.01682819205101517,
0.0036907730673316707,-0.0013255214016394887,
0.003740648379052369,0.00020187047079325143,
0.0037905236907730673,0.015575953966393238,
0.0038403990024937656,0.015598184772146086,
0.003890274314214464,0.02135809648383133,
0.003940149625935162,-0.0032376502757999887,
0.00399002493765586,0.018130471348364527,
0.004039900249376558,0.040645487036412915,
0.004089775561097257,0.024159498651428364,
0.004139650872817955,0.022928281910777885,
0.004189526184538653,-0.0036182113663209524,
0.004239401496259352,0.021545219992773645,
0.00428927680798005,0.021558678912464983,
0.004339152119700748,0.012010017256683691,
0.0043890274314214465,0.01622125337378189,
0.004438902743142145,-0.017524028058269834,
0.004488778054862843,0.043746847405933945,
0.004538653366583541,0.048956293388227184,
0.00458852867830424,0.020500324510432228,
0.004638403990024938,0.052551522037620965,
0.0046882793017456355,0.03676040957186409,
0.004738154613466334,0.014604423570682914,
0.004788029925187032,0.025191596207971866,
0.00483790523690773,0.025210398544024445,
0.004887780548628429,0.023924980096431778,
0.004937655860349127,-0.012438537932660962,
0.004987531172069825,0.015516754920289817,
0.005037406483790524,0.03905672733695771,
0.005087281795511222,0.022572674015237777,
0.00513715710723192,0.036659060791152366,
0.0051870324189526185,0.01704239516349511,
0.005236907730673317,-0.0034567345027779854,
0.005286783042394015,0.01308175719735293,
0.0053366583541147134,0.026655826876871878,
0.005386533665835412,0.02190451600437342,
0.00543640897755611,0.04201884418937729,
0.005486284289276808,-0.0005130723731259744,
0.005536159600997507,-0.005640160991644522,
0.005586034912718204,0.008658361524338697,
0.005635910224438902,0.020316835744269873,
0.005685785536159601,0.01781004163734197,
0.005735660847880299,0.018295290756005132,
0.005785536159600997,0.008333229825855147,
0.005835411471321696,0.026182145965005815,
0.005885286783042394,0.022631713171486427,
0.005935162094763092,0.019718436128485756,
0.0059850374064837905,0.030649179203024242,
0.006034912718204489,0.03878291646079323,
0.006084788029925187,0.012644199127032012,
0.0061346633416458855,-0.00022254793184193697,
0.006184538653366584,0.04111091182001747,
0.006234413965087282,0.037214683482950144,
0.00628428927680798,0.019276345193012273,
0.006334164588528679,-0.008774688230697582,
0.006384039900249377,0.028140442190173216,
0.006433915211970074,0.03902418874884084,
0.006483790523690773,0.02353328843922905,
0.006533665835411471,0.04049611530495989,
0.006583541147132169,-0.003649028717819195,
0.006633416458852868,0.014033563145003442,
0.006683291770573566,-0.001654426006975334,
0.006733167082294264,0.003197573852289937,
0.0067830423940149626,0.024761427789393713,
0.006832917705735661,0.013391752315941384,
0.006882793017456359,0.023178360232144292,
0.0069326683291770575,-0.011243738421665192,
0.006982543640897756,0.009032869299087375,
0.007032418952618454,0.024527401075880494,
0.007082294264339152,0.021456140509895208,
0.007132169576059851,0.015214493785460166,
0.007182044887780549,0.028446071620902576,
0.007231920199501247,0.022474425489947932,
0.007281795511221945,0.015569975272040518,
0.007331670822942643,-0.003906480817509703,
0.007381546134663341,-0.021361582301455153,
0.00743142144638404,0.03516741896239788,
0.007481296758104738,0.01455990477641833,
0.007531172069825436,0.017830620348539047,
0.007581047381546135,0.0350778871433034,
0.007630922693266833,0.0109259322532318,
0.007680798004987531,0.00020240180758386572,
0.0077306733167082295,-0.0048598467424607154,
0.007780548628428928,0.0018501493258040336,
0.007830423940149626,0.026851374559524698,
0.007880299251870324,0.00614465666979684,
0.007930174563591023,0.006056360339224091,
0.00798004987531172,0.02932890738713085,
0.00802992518703242,0.002805997482610347,
0.008079800498753117,0.005542658752932664,
0.008129675810473816,0.016464869037353565,
0.008179551122194513,0.012926810728429303,
0.008229426433915213,0.01756520856254894,
0.00827930174563591,-0.01767269698807934,
0.00832917705735661,-0.037094656316657634,
0.008379052369077307,0.02490036404055003,
0.008428927680798006,0.018250923850885926,
0.008478802992518703,0.03064126298230263,
0.0085286783042394,0.021678294799257876,
0.0085785536159601,0.008762844065995132,
0.008628428927680797,-0.0077052920443050395,
0.008678304239401496,-0.00986343392366375,
0.008728179551122194,-0.0003644640547232989,
0.008778054862842893,0.013495409391805166,
0.00882793017456359,0.03397600100025631,
0.00887780548628429,0.012104401309389473,
0.008927680798004987,0.0013472388867680077,
0.008977556109725686,0.027183848171726248,
0.009027431421446384,0.007322674982163973,
0.009077306733167083,-0.013217785837146587,
0.00912718204488778,-0.010982799662713757,
0.00917705735660848,-0.004749059448916844,
0.009226932668329177,-0.0021025595774261316,
0.009276807980049876,0.007849471013695423,
0.009326683291770574,0.018177114137415455,
0.009376558603491271,0.008273153526153942,
0.00942643391521197,-0.00905743064888582,
0.009476309226932668,-0.010476492296865241,
0.009526184538653367,-0.002664172412917196,
0.009576059850374064,-0.009739939016324584,
0.009625935162094763,0.008540244440108102,
0.00967581047381546,0.011320621143363373,
0.00972568578553616,0.001035847433438032,
0.009775561097256857,0.008789034141939297,
0.009825436408977557,-0.012888772717727452,
0.009875311720698254,0.005666373195367542,
0.009925187032418953,-0.012999798834516773,
0.00997506234413965,-0.010415734540091185,
0.01002493765586035,0.0371440447236302,
0.010074812967581047,0.005037700990586038,
0.010124688279301746,-0.012874321679051162,
0.010174563591022444,-0.013692348387121057,
0.010224438902743141,0.002550246765059655,
0.01027431421446384,-0.020153884682814555,
0.010324189526184538,-0.00030389951734434515,
0.010374064837905237,-0.020277638228718736,
0.010423940149625935,0.01905368885839432,
0.010473815461346634,-0.015196987399290159,
0.010523690773067331,-0.0011065576838116523,
0.01057356608478803,-0.015910792665535002,
0.010623441396508728,-0.0005531604479616704,
0.010673316708229427,-0.024152284294646973,
0.010723192019950124,-0.013449995121741713,
0.010773067331670824,0.018250513537311188,
0.010822942643391521,0.009737625330808332,
0.01087281795511222,0.008960398662616584,
0.010922693266832918,-0.016966702921439487,
0.010972568578553617,0.003484126446273597,
0.011022443890274314,-0.025929295594536515,
0.011072319201995013,0.00927684160322513,
0.01112219451371571,0.0026623063700501126,
0.011172069825436408,-0.01828857278778767,
0.011221945137157107,0.001014375627343203,
0.011271820448877805,-0.01296042907538569,
0.011321695760598504,-0.027850939469797952,
0.011371571072319201,-0.014094472960952793,
0.0114214463840399,0.007625571853015833,
0.011471321695760598,-0.007189407981356092,
0.011521197007481297,0.001894065312089764,
0.011571072319201995,-0.015381875482863096,
0.011620947630922694,-0.0036356665690911658,
0.011670822942643391,-0.02831662585742093,
0.01172069825436409,-0.0026553896856677606,
0.011770573566084788,-0.0046512618052606675,
0.011820448877805487,0.0030616536797705048,
0.011870324189526184,0.008514386716305854,
0.011920199501246884,-0.02191366774393025,
0.011970074812967581,-0.00783789805036146,
0.012019950124688279,-0.040308616809331545,
0.012069825436408978,-0.030875324384590362,
0.012119700748129675,-0.003988835292204175,
0.012169576059850374,-0.02388158722959527,
0.012219451371571072,-0.025358109713059802,
0.012269326683291771,-0.012287975369712004,
0.012319201995012468,-0.012086710916214773,
0.012369077306733168,-0.024113177975000774,
0.012418952618453865,-0.019316075331535933,
0.012468827930174564,0.0006691766708535399,
0.012518703241895262,-0.01878213757087247,
0.01256857855361596,-0.0473985525703204,
0.012618453865336658,-0.006246033830366114,
0.012668329177057357,-0.0010260700519732248,
0.012718204488778055,0.002545864807568826,
0.012768079800498754,-0.0032560570091369166,
0.012817955112219451,-0.02472224961821095,
0.012867830423940149,-0.02288119637830579,
0.012917705735660848,0.0011790312844924232,
0.012967581047381545,-0.021841059894662604,
0.013017456359102245,-0.0145563239426398,
0.013067331670822942,-0.026560578921000715,
0.013117206982543641,-0.008999815618619667,
0.013167082294264339,-0.03520923469286279,
0.013216957605985038,-0.024558655580394606,
0.013266832917705735,-0.02386810404137575,
0.013316708229426434,-0.045112886312102654,
0.013366583541147132,-0.0018463517868395358,
0.013416458852867831,-0.003221375824281239,
0.013466334164588529,-0.011740653513146695,
0.013516209476309228,-0.032682390915373394,
0.013566084788029925,-0.05012899701767249,
0.013615960099750624,-0.015492445747248989,
0.013665835411471322,0.0003696792375670298,
0.01371571072319202,-0.024198953637021774,
0.013765586034912718,0.022564508195096235,
0.013815461346633416,-0.031892649545088206,
0.013865336658354115,-0.053392208190322046,
0.013915211970074812,-0.014764310317857474,
0.013965087281795512,-0.03180005028169305,
0.014014962593516209,-0.0041044660791340285,
0.014064837905236908,-0.03414533809041051,
0.014114713216957606,-0.025489500278555028,
0.014164588528678305,-0.009160124966682498,
0.014214463840399002,-0.041473746892565985,
0.014264339152119701,-0.01191471776863022,
0.014314214463840399,-0.03865648965538687,
0.014364089775561098,0.006079641300552878,
0.014413965087281795,-0.01779094449391032,
0.014463840399002495,0.012880187286409803,
0.014513715710723192,-0.03525380741532794,
0.01456359102244389,-0.024546539948662245,
0.014613466334164589,-0.01848263918146733,
0.014663341645885286,-0.01909435567590753,
0.014713216957605985,-0.043109322793937685,
0.014763092269326683,-0.018440903841514207,
0.014812967581047382,0.029809169359750635,
0.01486284289276808,-0.011292324010444589,
0.014912718204488778,-0.051058550155545404,
0.014962593516209476,-0.050109341354405895,
0.015012468827930175,0.013421086531418741,
0.015062344139650873,-0.02236008123539324,
0.015112219451371572,-0.03421058047312524,
0.01516209476309227,-0.030340772403555254,
0.015211970074812968,-0.023031600265060917,
0.015261845386533666,0.0006107032080557608,
0.015311720698254365,-0.018310445775208826,
0.015361596009975062,-0.02013693478634114,
0.01541147132169576,-0.07256093013981373,
0.015461346633416459,0.0014549590271752538,
0.015511221945137156,-0.018817848859822763,
0.015561097256857856,-0.016770692063098235,
0.015610972568578553,-0.018065649873512942,
0.015660847880299252,-0.030487187781605377,
0.01571072319201995,-0.022218712653714813,
0.015760598503740647,-0.0290075740656054,
0.015810473815461346,-0.02938853419877873,
0.015860349127182045,-0.010913701769175681,
0.015910224438902745,-0.008157206674309794,
0.01596009975062344,-0.030543071746497903,
0.01600997506234414,-0.015191004262331713,
0.01605985037406484,0.0017057584085350304,
0.016109725685785538,-0.03180774194004391,
0.016159600997506234,-0.016715545649667814,
0.016209476309226933,-0.013015664154070853,
0.016259351620947632,-0.00680728903789324,
0.016309226932668328,-0.03667941200216114,
0.016359102244389027,0.0020852460471911423,
0.016408977556109726,-0.007264387500223254,
0.016458852867830425,-0.015407774011900213,
0.01650872817955112,0.008800080948805845,
0.01655860349127182,-0.02466439271823559,
0.01660847880299252,0.0011022149421856323,
0.01665835411471322,-0.009186726219799459,
0.016708229426433914,-0.023361530638740267,
0.016758104738154613,-0.006590124844170866,
0.016807980049875312,-0.04162516438114849,
0.01685785536159601,-0.03828372318632995,
0.016907730673316707,-0.0268716617671114,
0.016957605985037406,-0.028731754237719377,
0.017007481296758106,-0.04424630739466185,
0.0170573566084788,-0.02224042099986503,
0.0171072319201995,-0.019771193582265617,
0.0171571072319202,-0.0010902633546094522,
0.0172069825436409,0.00020130082782629684,
0.017256857855361595,-0.010665235266646663,
0.017306733167082294,-0.021921287690276577,
0.017356608478802993,-0.009674400920911316,
0.017406483790523692,-0.002414016581329795,
0.017456359102244388,-0.0502366335336895,
0.017506234413965087,-0.029436286328890046,
0.017556109725685786,-0.029975224606788798,
0.017605985037406485,0.01028741994462834,
0.01765586034912718,-0.02059591989576813,
0.01770573566084788,-0.006268761395984281,
0.01775561097256858,-0.030950948155510326,
0.01780548628428928,-0.03117139692650629,
0.017855361596009974,-0.020427514645506493,
0.017905236907730673,-0.018442235918888848,
0.017955112219451373,-0.03511546415527769,
0.018004987531172068,-0.005052092615067386,
0.018054862842892767,-0.011219486886812978,
0.018104738154613467,0.014557003000050446,
0.018154613466334166,0.00737601672790307,
0.01820448877805486,0.005748830260527679,
0.01825436408977556,0.009464155030694433,
0.01830423940149626,-0.03304200729810843,
0.01835411471321696,0.00016774416696752233,
0.018403990024937655,-0.0024933540802125464,
0.018453865336658354,-0.012609338751556615,
0.018503740648379053,0.007480986457088237,
0.018553615960099752,-0.022620307760053002,
0.018603491271820448,0.0015371186368748815,
0.018653366583541147,-0.018716667032142344,
0.018703241895261846,-0.009114654759724068,
0.018753117206982542,0.0003258947019061627,
0.01880299251870324,-0.035113210906739294,
0.01885286783042394,0.005164696126500581,
0.01890274314214464,0.010851571278044668,
0.018952618453865335,0.001423155679791282,
0.019002493765586034,-0.011269485351094472,
0.019052369077306733,-0.02377351721919088,
0.019102244389027433,-0.030877836139010392,
0.01915211970074813,-0.009666541041153024,
0.019201995012468828,0.01945687258895478,
0.019251870324189527,0.001975860245949983,
0.019301745635910226,-0.013231046727457375,
0.01935162094763092,-0.0071284564544548314,
0.01940149625935162,-0.037399258284461986,
0.01945137157107232,0.008305023970821513,
0.01950124688279302,-0.013603448627837265,
0.019551122194513715,-0.006392390630696136,
0.019600997506234414,0.011785928427600307,
0.019650872817955113,0.021906551433047382,
0.01970074812967581,-0.005714931789547035,
0.019750623441396508,0.023584490329906747,
0.019800498753117207,-0.0036432236850392026,
0.019850374064837906,0.023204889234252637,
0.019900249376558602,-0.03142753334707117,
0.0199501246882793,-0.007877164624555245,
0.02,-0.022190476727652682,
0.0200498753117207,-0.005007929259398735,
0.020099750623441395,0.0035897906895847502,
0.020149625935162094,0.007027197165539752,
0.020199501246882794,-0.0030782698359462122,
0.020249376558603493,0.029246046381973288,
0.02029925187032419,0.01176500630196922,
0.020349127182044888,0.022144106329586105,
0.020399002493765587,-0.011064160976370342,
0.020448877805486283,0.0020889451365976096,
0.02049875311720698,-0.009529702245226824,
0.02054862842892768,-0.014788315245694846,
0.02059850374064838,0.00703902345378344,
0.020648379052369076,-0.0022055415752064867,
0.020698254364089775,0.006019568566996451,
0.020748129675810474,0.01842424210862266,
0.020798004987531173,0.03231292908067082,
0.02084788029925187,-0.009418014243679183,
0.020897755610972568,0.009867156071473843,
0.020947630922693267,0.0030553423153896267,
0.020997506234413967,0.02828500748846779,
0.021047381546134662,-0.0012039578365884845,
0.02109725685785536,0.019238913596389528,
0.02114713216957606,0.025389368560710862,
0.02119700748129676,0.011593243098890453,
0.021246882793017455,-0.003202670612143823,
0.021296758104738155,-0.0034249106117078074,
0.021346633416458854,0.014678967997611921,
0.02139650872817955,0.006909585186409075,
0.02144638403990025,0.0322762398150529,
0.021496259351620948,-0.0020430546214980864,
0.021546134663341647,0.01003073626918263,
0.021596009975062343,0.007237654619174767,
0.021645885286783042,0.011910491263584037,
0.02169576059850374,0.01764754552484309,
0.02174563591022444,0.0258016059027609,
0.021795511221945136,0.020313783911393372,
0.021845386533665835,0.02015849730753278,
0.021895261845386534,0.025944517405220163,
0.021945137157107233,0.010849762357479583,
0.02199501246882793,0.02776806389529279,
0.02204488778054863,-0.004640230570298555,
0.022094763092269327,-0.0024975186011202723,
0.022144638403990027,0.02821662793880294,
0.022194513715710722,-0.011661569471740999,
0.02224438902743142,0.0471258245759243,
0.02229426433915212,0.02532965273976536,
0.022344139650872816,0.0075811593647144935,
0.022394014962593516,0.02721054639801313,
0.022443890274314215,0.008275316967159888,
0.022493765586034914,0.030075363484703754,
0.02254364089775561,0.02332710182140156,
0.02259351620947631,0.01920243508393922,
0.022643391521197008,0.012439382770430654,
0.022693266832917707,0.010062742930489456,
0.022743142144638403,0.03332172295411083,
0.022793017456359102,0.030353587050484326,
0.0228428927680798,0.029480080735990184,
0.0228927680798005,0.02220582936415657,
0.022942643391521196,0.018193588911966336,
0.022992518703241895,0.015662241754832166,
0.023042394014962594,0.012243237919960823,
0.02309226932668329,0.02947399025029046,
0.02314214463840399,0.02175318193895661,
0.02319201995012469,0.03429534599184482,
0.023241895261845388,0.04768992082817386,
0.023291770573566083,0.0044900044608665035,
0.023341645885286783,0.03831607092390793,
0.02339152119700748,0.011679209216064898,
0.02344139650872818,0.03178746878815084,
0.023491271820448877,0.033676448240828445,
0.023541147132169576,0.02008576755102718,
0.023591022443890275,0.020816557085893708,
0.023640897755610974,0.034189913963327864,
0.02369077306733167,0.010558699903687527,
0.02374064837905237,0.015521649840049771,
0.023790523690773068,0.03968779609699245,
0.023840399002493767,0.009297845434565532,
0.023890274314214463,-0.025050399199827787,
0.023940149625935162,0.019360937775445994,
0.02399002493765586,0.020579610765254396,
0.024039900249376557,0.003628371393567177,
0.024089775561097256,0.039449448843317914,
0.024139650872817955,0.021531167380051633,
0.024189526184538655,0.025769224885817392,
0.02423940149625935,0.038988326862712995,
0.02428927680798005,0.017491313883429768,
0.02433915211970075,0.04173775183601214,
0.024389027431421448,0.04292384381264243,
0.024438902743142144,0.04021641287022637,
0.024488778054862843,0.03375021864543275,
0.024538653366583542,0.04125269784150871,
0.02458852867830424,0.051937246502725645,
0.024638403990024937,0.03128202111895816,
0.024688279301745636,0.04931690620097423,
0.024738154613466335,0.03289037499904374,
0.02478802992518703,0.020289809806749073,
0.02483790523690773,0.013954765584702709,
0.02488778054862843,0.006590245580083712,
0.02493765586034913,0.01591049335753221,
0.024987531172069824,0.046116852931763846,
0.025037406483790523,0.02702511890385244,
0.025087281795511222,0.04033647030705334,
0.02513715710723192,0.028421297722051226,
0.025187032418952617,0.020371518542914458,
0.025236907730673316,0.022951214675176485,
0.025286783042394016,0.01436378438618518,
0.025336658354114715,0.0076791916780043,
0.02538653366583541,0.033688279059325164,
0.02543640897755611,0.016666539251314928,
0.02548628428927681,0.04575217297088022,
0.025536159600997508,0.02104194828631777,
0.025586034912718204,0.012326362854167274,
0.025635910224438903,0.01669989515114798,
0.025685785536159602,0.0371122106139488,
0.025735660847880298,0.013410456140089904,
0.025785536159600997,0.0354640654199329,
0.025835411471321696,-0.006579861977920976,
0.025885286783042395,0.0012504934899083345,
0.02593516209476309,0.015190465619648423,
0.02598503740648379,0.02558950695198172,
0.02603491271820449,0.013529211716962891,
0.02608478802992519,0.04467052895774497,
0.026134663341645884,0.0036615021859883468,
0.026184538653366583,0.01797444310534338,
0.026234413965087282,0.008665048187791673,
0.02628428927680798,0.01226218534631558,
0.026334164588528677,0.023016559548555235,
0.026384039900249377,0.014431638634571916,
0.026433915211970076,0.013911151445103472,
0.02648379052369077,0.0160630537192592,
0.02653366583541147,0.03574706400381181,
0.02658354114713217,0.008619696200575181,
0.02663341645885287,0.026729972743016917,
0.026683291770573565,0.015132183878371286,
0.026733167082294264,0.010617570691463943,
0.026783042394014963,0.0404217015224491,
0.026832917705735662,0.041879613362535206,
0.026882793017456358,0.00785535701759957,
0.026932668329177057,0.008487083630582305,
0.026982543640897756,0.012659095969054464,
0.027032418952618455,0.019140685164495044,
0.02708229426433915,0.004601479677973459,
0.02713216957605985,0.019410970682571253,
0.02718204488778055,-0.003250354066775929,
0.02723192019950125,0.024515235295667168,
0.027281795511221944,0.03210519166498295,
0.027331670822942643,0.020759143398067885,
0.027381546134663343,0.0006770421181929547,
0.02743142144638404,0.01283632325968437,
0.027481296758104738,-0.011699010917283623,
0.027531172069825437,0.023016989911336157,
0.027581047381546136,0.030405736569419077,
0.02763092269326683,0.017516214637303424,
0.02768079800498753,0.02849612297041455,
0.02773067331670823,0.025063745940613443,
0.02778054862842893,0.013945965289925961,
0.027830423940149625,0.04406393774943368,
0.027880299251870324,-0.006336458115801547,
0.027930174563591023,0.02206050810924763,
0.027980049875311722,0.02858544108002678,
0.028029925187032418,0.02911708299531212,
0.028079800498753117,0.0025590580710104956,
0.028129675810473816,0.016472999497030866,
0.028179551122194512,0.02532926322746948,
0.02822942643391521,0.00949631775393783,
0.02827930174563591,-0.020837285051217326,
0.02832917705735661,0.0168900782507005,
0.028379052369077305,0.03945164068100293,
0.028428927680798004,-0.004418428130967966,
0.028478802992518704,0.02139355223337095,
0.028528678304239403,0.012281738847435641,
0.0285785536159601,0.013104004964389541,
0.028628428927680798,0.01550152086611091,
0.028678304239401497,0.021602005458250535,
0.028728179551122196,0.004371314735971805,
0.02877805486284289,-0.00847394647125912,
0.02882793017456359,0.018492166488187453,
0.02887780548628429,-0.011054820080150279,
0.02892768079800499,0.03159037031887946,
0.028977556109725685,-0.0073791640686461,
0.029027431421446384,-0.0054784573362917695,
0.029077306733167083,-0.002128164428872226,
0.02912718204488778,0.0005987624721792229,
0.029177057356608478,0.003424300852082655,
0.029226932668329177,0.007020058017284523,
0.029276807980049877,0.017644839846357327,
0.029326683291770572,0.0018362189206304396,
0.02937655860349127,-0.012740714747946847,
0.02942643391521197,0.001383202053987038,
0.02947630922693267,0.0027068833995423855,
0.029526184538653365,-0.005436714214341007,
0.029576059850374065,0.01893244284888957,
0.029625935162094764,0.036427975474701405,
0.029675810473815463,-0.0065190717663502875,
0.02972568578553616,-0.005446767458596259,
0.029775561097256858,0.015759330279455756,
0.029825436408977557,0.00351691045310211,
0.029875311720698253,-0.026158454294681478,
0.029925187032418952,-0.00020308156841533816,
0.02997506234413965,0.02066595159993942,
0.03002493765586035,-0.004003167536847772,
0.030074812967581046,0.004540440000547265,
0.030124688279301745,0.014108122145913629,
0.030174563591022444,0.017155434073886963,
0.030224438902743143,-0.009260014252380155,
0.03027431421446384,-0.008286414251219678,
0.03032418952618454,-0.01868419885518567,
0.030374064837905237,0.007837777215579088,
0.030423940149625937,0.00900321755350534,
0.030473815461346632,-0.0031188625514601974,
0.03052369077306733,-0.004182223509507737,
0.03057356608478803,-0.01651528077631063,
0.03062344139650873,0.02316769122908274,
0.030673316708229426,-0.031143157902811972,
0.030723192019950125,0.007826123939104767,
0.030773067331670824,0.00279791585518537,
0.03082294264339152,0.014941874329852698,
0.03087281795511222,0.001669218728283856,
0.030922693266832918,0.02427858622791088,
0.030972568578553617,-0.008704944180942423,
0.031022443890274313,-0.0027534200406290114,
0.031072319201995012,0.02044821200539934,
0.03112219451371571,-0.014365712687877941,
0.03117206982543641,0.013863391179310475,
0.031221945137157106,0.006042748578896343,
0.03127182044887781,-9.212192826950263e-05,
0.031321695760598504,-0.03490415693665015,
0.0313715710723192,0.0043001997308159245,
0.0314214463840399,0.005589409523795785,
0.0314713216957606,-0.0402254439426349,
0.031521197007481294,-0.0014251449336751734,
0.031571072319202,0.00727085944413354,
0.03162094763092269,-0.06221311553190645,
0.03167082294264339,-0.00683344554953269,
0.03172069825436409,-0.02281956313143081,
0.03177057356608479,0.008319364869347375,
0.03182044887780549,-0.011598792515999611,
0.031870324189526185,0.02801545235591915,
0.03192019950124688,-0.002090864551395821,
0.03197007481296758,-0.02802695882534425,
0.03201995012468828,-0.013288095299613226,
0.032069825436408975,-0.011765746867522377,
0.03211970074812968,-0.03236515557513201,
0.03216957605985037,-0.0008288711994694983,
0.032219451371571076,0.015357398692556624,
0.03226932668329177,-0.03127364774973459,
0.03231920199501247,0.0069040371860321584,
0.03236907730673317,-0.006855991532455611,
0.032418952618453865,-0.011902446677338639,
0.03246882793017456,-0.01305790978297308,
0.032518703241895264,-0.005983987007563091,
0.03256857855361596,-0.010189187362578565,
0.032618453865336655,-0.0019489123020439512,
0.03266832917705736,-0.007399844594855893,
0.032718204488778053,-0.026475325426184998,
0.032768079800498756,-0.011929079348119825,
0.03281795511221945,-0.003694674437802999,
0.03286783042394015,-0.01948110328824067,
0.03291770573566085,-0.026217777159604203,
0.032967581047381546,-0.015786417384548564,
0.03301745635910224,-0.032418047274435376,
0.033067331670822944,-0.004842055371785654,
0.03311720698254364,-0.006590638719747064,
0.03316708229426434,-0.03729249208802127,
0.03321695760598504,-0.023711579668532552,
0.033266832917705734,-0.03258476781328429,
0.03331670822942644,-0.027054666118790906,
0.03336658354114713,-0.01026652813156283,
0.03341645885286783,-0.0009736143322273422,
0.03346633416458853,-0.0373201815633242,
0.033516209476309226,-0.03894696637836221,
0.03356608478802992,-0.03788461258762171,
0.033615960099750625,-0.027608605172549955,
0.03366583541147132,0.007096810239833572,
0.03371571072319202,-0.004690491939315155,
0.03376558603491272,-0.003375660565026707,
0.033815461346633414,0.0018943451146560125,
0.03386533665835412,-0.006635942478623584,
0.03391521197007481,-0.016174818920816805,
0.03396508728179551,-0.014330368395094677,
0.03401496259351621,-0.008857727877251705,
0.03406483790523691,-0.021205035656968206,
0.0341147132169576,-0.05940585534375757,
0.034164588528678305,-0.0008426909199357492,
0.034214463840399,-0.020400050324973433,
0.034264339152119704,-0.0213229846242315,
0.0343142144638404,-0.022090113479214354,
0.034364089775561095,0.000594090533315831,
0.0344139650872818,-0.017151446456877002,
0.03446384039900249,-0.03373902413510574,
0.03451371571072319,-0.015019042352668028,
0.03456359102244389,-0.005609247151423533,
0.03461346633416459,-0.0226926699742106,
0.03466334164588529,-0.039889583084485494,
0.034713216957605986,0.008210929989623875,
0.03476309226932668,-0.0007728285550137742,
0.034812967581047384,-0.020568626682417934,
0.03486284289276808,-0.02078530861861085,
0.034912718204488775,-0.018458884112457663,
0.03496259351620948,-0.010610258421106331,
0.035012468827930174,-0.0005726209147802648,
0.03506234413965087,-0.010167490200923677,
0.03511221945137157,-0.01589244255784818,
0.03516209476309227,-0.007722122666954342,
0.03521197007481297,-0.019803308878184926,
0.035261845386533666,-0.017868860852203055,
0.03531172069825436,-0.0245905144483376,
0.035361596009975065,-0.03923241844433836,
0.03541147132169576,-0.014574034749228333,
0.035461346633416456,-0.021381886448494213,
0.03551122194513716,-0.019798194214123953,
0.035561097256857854,-0.0007035281080819758,
0.03561097256857856,-0.015914224220428753,
0.03566084788029925,-0.011833624900538776,
0.03571072319201995,-0.0011502493025433835,
0.03576059850374065,-0.03562911781495193,
0.03581047381546135,0.0186592061335697,
0.03586034912718204,-0.02701075226510822,
0.035910224438902745,-0.021047789803162992,
0.03596009975062344,0.010043751253466085,
0.036009975062344136,-0.028319750249537583,
0.03605985037406484,-0.017014587217184754,
0.036109725685785535,-0.007260961440374282,
0.03615960099750624,-0.018376422427767672,
0.03620947630922693,-0.022724861664322173,
0.03625935162094763,0.0006742274732208908,
0.03630922693266833,-0.014075452276384508,
0.03635910224438903,-0.02464349047086136,
0.03640897755610972,-0.05345963301778378,
0.036458852867830426,-0.030023198437715164,
0.03650872817955112,-0.004183242710422599,
0.036558603491271824,-0.009243688199476506,
0.03660847880299252,-0.022323335289707768,
0.036658354114713215,-0.022489949753227073,
0.03670822942643392,-0.007950658010068855,
0.036758104738154614,-0.011399628308090066,
0.03680798004987531,-0.044343437069944716,
0.03685785536159601,-0.008731087640108132,
0.03690773067331671,-0.018505624448320067,
0.0369576059850374,0.016830577829749817,
0.037007481296758106,-0.02724362932928973,
0.0370573566084788,-0.03186298430335579,
0.037107231920199504,-0.0061854469824096986,
0.0371571072319202,-0.022146838618757807,
0.037206982543640896,-0.010234761010040986,
0.0372568578553616,-0.008942274479144785,
0.037306733167082294,-0.007465582746992178,
0.03735660847880299,-0.014630482782661259,
0.03740648379052369,-0.03665723329022545,
0.03745635910224439,0.017887488532555965,
0.037506234413965084,-0.01194563086090786,
0.037556109725685786,0.0027211814251790287,
0.03760598503740648,-0.04722373464464143,
0.037655860349127185,-0.050587498588422375,
0.03770573566084788,-0.025177878649294133,
0.037755610972568576,-0.03454364059682052,
0.03780548628428928,-0.013566645279397866,
0.037855361596009975,0.019833367157723363,
0.03790523690773067,-0.016491111794050883,
0.03795511221945137,-0.0010830472794205025,
0.03800498753117207,-0.028973063664982646,
0.03805486284289277,0.004864615120817357,
0.03810473815461347,0.0019912054600096287,
0.03815461346633416,-0.03299706658307039,
0.038204488778054865,0.009545585035658426,
0.03825436408977556,0.008622604291028693,
0.03830423940149626,-0.0012313380186426675,
0.03835411471321696,-0.010482923288790382,
0.038403990024937655,-0.004531729218681246,
0.03845386533665835,-0.029208230010398545,
0.03850374064837905,-0.020888185461661712,
0.03855361596009975,-0.004549846881348954,
0.03860349127182045,0.012240100387345812,
0.03865336658354115,-0.0016779970950759325,
0.03870324189526184,-0.00521369964157838,
0.038753117206982546,0.010490917143999133,
0.03880299251870324,0.025995669948163082,
0.03885286783042394,-0.03022910215138938,
0.03890274314214464,0.0011967124481352788,
0.038952618453865336,0.007289934115011935,
0.03900249376558604,-0.04328317307767909,
0.039052369077306734,-0.0018395363028317156,
0.03910224438902743,-0.006315738973121805,
0.03915211970074813,0.017992376114364463,
0.03920199501246883,-0.010320215239332834,
0.039251870324189524,-0.008094959326106045,
0.039301745635910226,0.019530573179784478,
0.03935162094763092,0.019273338049894582,
0.03940149625935162,0.005637902984911819,
0.03945137157107232,0.013984185714609831,
0.039501246882793016,-0.009429126846614965,
0.03955112219451372,0.0060402126759085805,
0.039600997506234414,0.011198425853841804,
0.03965087281795511,-0.011363356699485965,
0.03970074812967581,-0.0026238575611745793,
0.03975062344139651,-0.0026291185413067526,
0.039800498753117204,0.007531157743704829,
0.03985037406483791,-0.004872874617699693,
0.0399002493765586,0.02218263594910693,
0.039950124688279305,-0.02117236891509874,
0.04,-0.00210492034692257,
0.0400498753117207,-0.020644754906013967,
0.0400997506234414,0.0005260168738490121,
0.040149625935162095,0.024625679656772516,
0.04019950124688279,0.013513790572336641,
0.04024937655860349,0.006220538612675959,
0.04029925187032419,0.018907812232112704,
0.040349127182044885,-0.03651209635837904,
0.04039900249376559,0.014940431335823923,
0.04044887780548628,0.018263082331579427,
0.040498753117206986,-0.020501168031676127,
0.04054862842892768,-0.020926492029260044,
0.04059850374064838,0.020556517770827527,
0.04064837905236908,-0.0022257002224756618,
0.040698254364089775,-0.002344653613357236,
0.04074812967581047,-0.0034041516640001754,
0.040798004987531174,0.004342016730985901,
0.04084788029925187,-0.0029366669253438043,
0.040897755610972565,0.019435965428192366,
0.04094763092269327,-0.010566001949240823,
0.04099750623441396,0.005137770771281364,
0.041047381546134666,-0.006655156198383782,
0.04109725685785536,0.0017028809760471116,
0.04114713216957606,0.008622454661838447,
0.04119700748129676,0.02554480221642468,
0.041246882793017456,0.0027328897421204004,
0.04129675810473815,0.04352919181624296,
0.041346633416458854,0.01802256132769493,
0.04139650872817955,0.01811104922724607,
0.04144638403990025,0.01621821149732384,
0.04149625935162095,0.015881631078486908,
0.041546134663341644,0.014158167532740257,
0.04159600997506235,0.01030048441849198,
0.04164588528678304,-0.00919958948722343,
0.04169576059850374,0.0007047893200086124,
0.04174563591022444,0.0010599501610809858,
0.041795511221945136,0.012669225252458179,
0.04184538653366583,0.027392415333280025,
0.041895261845386535,0.023071573935174523,
0.04194513715710723,0.04570528947714101,
0.04199501246882793,0.02682986591035382,
0.04204488778054863,0.016586278703581807,
0.042094763092269324,0.01037067801408018,
0.04214463840399003,0.004323170919959967,
0.04219451371571072,0.027814609528701587,
0.04224438902743142,0.022364255140423134,
0.04229426433915212,0.046656693958106836,
0.04234413965087282,0.014774138957295048,
0.04239401496259352,0.016447101047012715,
0.042443890274314215,0.033873718253459285,
0.04249376558603491,0.0038365156575362463,
0.042543640897755614,0.024601091440165316,
0.04259351620947631,0.013230624974787423,
0.042643391521197005,0.01281498576344304,
0.04269326683291771,0.031585455435891314,
0.0427431421446384,0.010533455288227708,
0.0427930174563591,0.020983316830849114,
0.0428428927680798,0.04008791635444167,
0.0428927680798005,0.021329676238258266,
0.0429426433915212,0.02162070298949721,
0.042992518703241896,0.00512762543014229,
0.04304239401496259,-0.01883445291557819,
0.043092269326683294,0.021711748977184017,
0.04314214463840399,0.045377298593059195,
0.043192019950124685,0.04062011730488163,
0.04324189526184539,0.027206132200561835,
0.043291770573566084,0.04855731170754708,
0.043341645885286786,0.060674517838463074,
0.04339152119700748,0.046565844843882064,
0.04344139650872818,0.015877252740866328,
0.04349127182044888,0.040228067659383124,
0.043541147132169576,0.025389955842320417,
0.04359102244389027,0.003206192556859947,
0.043640897755610975,0.019710606176265112,
0.04369077306733167,0.0256462162674223,
0.043740648379052366,0.031990162918369515,
0.04379052369077307,0.025937241150817924,
0.043840399002493764,0.03070856537898632,
0.04389027431421447,-0.015679807520946984,
0.04394014962593516,0.027686433340868268,
0.04399002493765586,0.01935327760389994,
0.04403990024937656,-0.012920454496565769,
0.04408977556109726,0.017088966812135793,
0.04413965087281795,0.02642160187281521,
0.044189526184538655,0.01403459534006818,
0.04423940149625935,0.03616249541448885,
0.04428927680798005,0.021831967899445137,
0.04433915211970075,0.03556620752570377,
0.044389027431421445,0.019775770384041397,
0.04443890274314215,0.03366798951350564,
0.04448877805486284,0.01571481164974772,
0.04453865336658354,0.03791618631538294,
0.04458852867830424,0.007678289136508157,
0.04463840399002494,0.0324888250598895,
0.04468827930174563,0.024773253500915512,
0.044738154613466335,0.006223085925155039,
0.04478802992518703,0.04854527570931024,
0.044837905236907734,0.02397532786618249,
0.04488778054862843,0.0467220501381106,
0.044937655860349125,0.011259601246933343,
0.04498753117206983,0.04311006209455304,
0.045037406483790524,0.012616984597290696,
0.04508728179551122,0.025066307576120828,
0.04513715710723192,0.02110691569117839,
0.04518703241895262,0.023804014082482287,
0.04523690773067331,0.03288028256273975,
0.045286783042394016,0.030569171992489035,
0.04533665835411471,0.012523455683609809,
0.045386533665835414,0.046722225033222084,
0.04543640897755611,-0.0006414329023989654,
0.045486284289276806,0.019184047204892994,
0.04553615960099751,0.026421856323583886,
0.045586034912718204,0.026195957947083973,
0.0456359102244389,0.015010528874362732,
0.0456857855361596,0.03870328297644521,
0.0457356608478803,0.03012047255196948,
0.045785536159601,0.020232045082352868,
0.045835411471321696,0.029059222474632523,
0.04588528678304239,0.0061317762271032306,
0.045935162094763095,0.048548628021106134,
0.04598503740648379,0.024245291831483887,
0.046034912718204486,0.04472693403628843,
0.04608478802992519,0.03629025478713076,
0.046134663341645885,-0.00041885582013506326,
0.04618453865336658,0.008315614248942237,
0.04623441396508728,0.03945654444628441,
0.04628428927680798,0.023569450164080387,
0.04633416458852868,-0.0044388892424627145,
0.04638403990024938,0.03259639529884881,
0.04643391521197007,0.017353589350520417,
0.046483790523690775,0.023268627547450908,
0.04653366583541147,0.03360721734767846,
0.04658354114713217,0.015831965537331315,
0.04663341645885287,0.01826203410313143,
0.046683291770573565,-0.0008886004963198774,
0.04673316708229427,0.01445499700997448,
0.04678304239401496,0.04247667901810791,
0.04683291770573566,0.010135519460567248,
0.04688279301745636,0.027168915669165628,
0.04693266832917706,0.03350425706346601,
0.04698254364089775,0.05230200013126235,
0.047032418952618456,-0.0015651957755159172,
0.04708229426433915,0.030270563820169898,
0.04713216957605985,0.0332876604528134,
0.04718204488778055,0.020498240147183096,
0.047231920199501246,0.008687730243126683,
0.04728179551122195,0.03790468219755672,
0.047331670822942644,0.024694735277104363,
0.04738154613466334,0.02808530223317276,
0.04743142144638404,0.012864274257902049,
0.04748129675810474,0.018176142054351606,
0.047531172069825434,0.03525772616859947,
0.047581047381546136,0.01499649614449063,
0.04763092269326683,0.02116857205055564,
0.047680798004987535,0.010333235163861837,
0.04773067331670823,0.030445079664599806,
0.047780548628428926,0.01514238008376763,
0.04783042394014963,0.008549414519873462,
0.047880299251870324,-0.008929801744403928,
0.04793017456359102,-0.02001099190168976,
0.04798004987531172,0.053832370427648824,
0.04802992518703242,0.014901397162513663,
0.048079800498753114,0.013656476545615333,
0.04812967581047382,0.014488105250164501,
0.04817955112219451,0.038687241636989514,
0.048229426433915215,0.0009920422715699456,
0.04827930174563591,0.029763980975606466,
0.048329177057356607,0.023065851887006997,
0.04837905236907731,0.012268335544707746,
0.048428927680798005,0.0037385089501288573,
0.0484788029925187,0.023823970847747296,
0.0485286783042394,0.02644043615456395,
0.0485785536159601,-0.003784621928747848,
0.048628428927680795,0.008757525461955759,
0.0486783042394015,0.001977268457423114,
0.04872817955112219,-0.005570850646564384,
0.048778054862842896,0.0029356398138304356,
0.04882793017456359,0.007908324611169203,
0.04887780548628429,0.030929674271311335,
0.04892768079800499,0.006003656596393584,
0.048977556109725685,-0.0018607597216360496,
0.04902743142144638,0.00943791845821254,
0.049077306733167084,0.0024037662320529193,
0.04912718204488778,0.01825597475195022,
0.04917705735660848,0.03548171927680506,
0.04922693266832918,0.024167637473563257,
0.04927680798004987,0.03316758430517036,
0.049326683291770576,0.043843956431731834,
0.04937655860349127,0.021756064545951276,
0.04942643391521197,0.013948567800022571,
0.04947630922693267,0.03606295009476389,
0.049526184538653366,-0.002660717503807036,
0.04957605985037406,0.02788551074347556,
0.049625935162094764,-0.02108761980217387,
0.04967581047381546,0.012994613327590452,
0.04972568578553616,0.0053367749267971025,
0.04977556109725686,-0.011069004370904263,
0.049825436408977554,0.011459537982838754,
0.04987531172069826,0.004407554798321879,
0.04992518703241895,0.0037441633911941205,
0.04997506234413965,-0.0032005207626255045,
0.05002493765586035,0.016607891850450415,
0.050074812967581046,-0.03392557548921456,
0.05012468827930175,-0.01401356016941498,
0.050174563591022445,-0.03876659887151707,
0.05022443890274314,0.02084729059040607,
0.05027431421446384,-0.006784429487138455,
0.05032418952618454,0.022412883696522883,
0.050374064837905234,0.016124377162174703,
0.05042394014962594,-0.00348251172374295,
0.05047381546134663,0.003376089484650725,
0.05052369077306733,-0.005203747861580782,
0.05057356608478803,0.013579156417800685,
0.05062344139650873,-0.018671112288160843,
0.05067331670822943,-0.014142762746114606,
0.050723192019950125,-0.001555914166425532,
0.05077306733167082,0.0029440295081815146,
0.050822942643391524,-0.0197009161704964,
0.05087281795511222,-0.02347585104663678,
0.050922693266832915,0.014767338020639504,
0.05097256857855362,0.010149413450640346,
0.05102244389027431,0.0017312542047980784,
0.051072319201995016,-0.010671370075536864,
0.05112219451371571,-0.027300631758185343,
0.05117206982543641,0.02298443766081063,
0.05122194513715711,-0.011618150141178297,
0.051271820448877806,0.004636705208496782,
0.0513216957605985,-0.023779427647464813,
0.051371571072319204,0.00602120912776017,
0.0514214463840399,-0.007345529724491729,
0.051471321695760595,-0.01154682892313447,
0.0515211970074813,0.012265640924349123,
0.051571072319201994,0.004076982920325264,
0.051620947630922696,-0.00023058186323720014,
0.05167082294264339,-0.002568716705569044,
0.05172069825436409,0.0022164637912088277,
0.05177057356608479,-0.021284719316312966,
0.051820448877805486,-0.0009385627358968317,
0.05187032418952618,-0.0016675206234470974,
0.051920199501246884,0.01571540321945283,
0.05197007481296758,-0.010001466401968823,
0.052019950124688276,-0.01876390774009786,
0.05206982543640898,-0.01427360456855108,
0.052119700748129674,0.00022725791980594476,
0.05216957605985038,-0.009659633229774294,
0.05221945137157107,-0.018780720477699485,
0.05226932668329177,-0.02376183931848748,
0.05231920199501247,-0.012175442689687635,
0.05236907730673317,-0.025152569820941086,
0.05241895261845386,-0.02808547388682461,
0.052468827930174565,0.0016578250465518161,
0.05251870324189526,0.003958186639724168,
0.05256857855361596,-0.03306918441568216,
0.05261845386533666,-0.023513460005426645,
0.052668329177057355,-0.016515490267808672,
0.05271820448877806,-0.024148507759273897,
0.05276807980049875,0.0059062060279132175,
0.05281795511221945,-0.013238720882046202,
0.05286783042394015,0.00682706841208623,
0.05291770573566085,-0.021804007825766043,
0.05296758104738154,-0.02552526347113944,
0.053017456359102245,-0.00439322588245466,
0.05306733167082294,-0.01597932343549034,
0.053117206982543644,0.0013614665613413332,
0.05316708229426434,-0.005490414117680442,
0.053216957605985035,0.01120737184553703,
0.05326683291770574,-0.04304483183383708,
0.053316708229426434,-0.032181342326670886,
0.05336658354114713,-0.036659548040472195,
0.05341645885286783,-0.007334221278455588,
0.05346633416458853,-0.0027207673080919866,
0.05351620947630923,-0.02306248669401522,
0.053566084788029926,-0.008136262472124308,
0.05361596009975062,-0.0336902908011015,
0.053665835411471324,-0.012030919847422935,
0.05371571072319202,-0.019852184092048676,
0.053765586034912716,-0.02744905159748745,
0.05381546134663342,8.913004032188969e-05,
0.053865336658354114,-0.011197847255730548,
0.05391521197007481,-0.0396084969995812,
0.05396508728179551,-0.0009103916316570287,
0.05401496259351621,-0.0039883763376483035,
0.05406483790523691,0.013664499735501837,
0.054114713216957606,-0.01978876657802681,
0.0541645885286783,-0.0035299438507580497,
0.054214463840399005,-0.006335032108999239,
0.0542643391521197,-0.017959333738507086,
0.054314214463840396,-0.021209683672658294,
0.0543640897755611,0.009370077247911033,
0.054413965087281795,-0.04105492712759283,
0.0544638403990025,-0.023392069819266406,
0.05451371571072319,-0.013433999357233835,
0.05456359102244389,-0.041601562141452914,
0.05461346633416459,-0.026369950904100995,
0.05466334164588529,-0.013825119225291912,
0.05471321695760598,-0.03807968360163942,
0.054763092269326685,-0.017035480047883668,
0.05481296758104738,-0.02285050756860795,
0.05486284289276808,-0.011138367981180746,
0.05491271820448878,-0.03452634847537533,
0.054962593516209475,-0.005008641287962953,
0.05501246882793018,-0.020554949121096653,
0.05506234413965087,-0.027643315139049766,
0.05511221945137157,-0.02609972051655541,
0.05516209476309227,0.0006218106348709722,
0.05521197007481297,-0.006040166273553693,
0.05526184538653366,-0.018029393568378016,
0.055311720698254366,-0.01647274882864643,
0.05536159600997506,-0.00893704766839298,
0.05541147132169576,0.0032736579457700553,
0.05546134663341646,-0.017666784911642197,
0.055511221945137156,0.007811376184739736,
0.05556109725685786,-0.013019001791428557,
0.055610972568578554,-0.014633682217678242,
0.05566084788029925,-0.021016264147682293,
0.05571072319201995,0.024975803911959076,
0.05576059850374065,-0.029343202289334742,
0.055810473815461344,-0.02037871698749727,
0.055860349127182046,-0.01944811167079384,
0.05591022443890274,-0.010287632724116168,
0.055960099750623445,-0.006717379468945945,
0.05600997506234414,0.0013342021125665182,
0.056059850374064836,-0.03758266317239557,
0.05610972568578554,0.0035395063257785877,
0.056159600997506234,0.016085801635662998,
0.05620947630922693,-0.023871549552264996,
0.05625935162094763,-0.0008946348257430747,
0.05630922693266833,-0.021655810669163174,
0.056359102244389024,-0.042500164680922665,
0.05640897755610973,0.006876626148673903,
0.05645885286783042,0.0021611442650183027,
0.056508728179551125,-0.006223112199890144,
0.05655860349127182,-0.005551481464761145,
0.056608478802992516,-0.012982640730524667,
0.05665835411471322,-0.03511628773071307,
0.056708229426433915,0.0027476937855138855,
0.05675810473815461,-0.01831579712247829,
0.05680798004987531,-0.015008036482506183,
0.05685785536159601,-0.0036042657886034696,
0.05690773067331671,-0.01874576626975601,
0.05695760598503741,-0.003221950133696855,
0.0570074812967581,-0.018501927238265787,
0.057057356608478806,-0.022980686845764757,
0.0571072319201995,-0.023375728214614665,
0.0571571072319202,-0.028399220142391813,
0.0572069825436409,0.0049174535049725954,
0.057256857855361595,-0.001847883063130577,
0.05730673316708229,-0.011698994313866133,
0.057356608478802994,-0.002563383405354009,
0.05740648379052369,-0.010006129315518107,
0.05745635910224439,-0.010639864503420719,
0.05750623441396509,-0.014104490314443531,
0.05755610972568578,0.005676314596009337,
0.057605985037406486,-0.02956440358297228,
0.05765586034912718,-0.03170073440539779,
0.05770573566084788,-0.0025228755629290575,
0.05775561097256858,0.007193616914636642,
0.057805486284289276,-0.015556268018682647,
0.05785536159600998,0.0004996992203328433,
0.057905236907730674,-0.00906172831650246,
0.05795511221945137,-0.00638708309113859,
0.05800498753117207,-0.01257520901771063,
0.05805486284289277,0.012143175186962906,
0.058104738154613464,-0.02864955083842554,
0.05815461346633417,0.025782153300109197,
0.05820448877805486,-0.03141405886558143,
0.05825436408977556,0.010735929671238278,
0.05830423940149626,0.012886294085910174,
0.058354114713216956,-0.015430419684900259,
0.05840399002493766,-0.02161129299853325,
0.058453865336658355,-0.021261483192452805,
0.05850374064837905,0.00680095112734875,
0.05855361596009975,0.014553112241368233,
0.05860349127182045,0.017175866575504437,
0.058653366583541144,-0.004426992576438725,
0.05870324189526185,0.011678901485098123,
0.05875311720698254,0.0031030616055599657,
0.05880299251870324,0.002328419927308382,
0.05885286783042394,-0.006380635780140003,
0.05890274314214464,0.0016270204770773822,
0.05895261845386534,0.0018192365182178693,
0.059002493765586035,-0.009663365384581003,
0.05905236907730673,-0.006124914004291818,
0.059102244389027433,0.02679049058674203,
0.05915211970074813,0.004092681732541365,
0.059201995012468825,0.004032901875425191,
0.05925187032418953,-0.009163075596243239,
0.05930174563591022,0.002636999873195999,
0.059351620947630926,-0.016446304722432914,
0.05940149625935162,-0.02650091749951797,
0.05945137157107232,-0.011898365995771707,
0.05950124688279302,-0.01931958231315174,
0.059551122194513716,-0.014477511230890514,
0.05960099750623441,0.0013503195617799856,
0.059650872817955114,0.01753020375989125,
0.05970074812967581,0.029698216334277328,
0.059750623441396505,-0.010581132136564569,
0.05980049875311721,0.0021088963654771167,
0.059850374064837904,-0.018937702455278493,
0.059900249376558606,-0.0038991218265675438,
0.0599501246882793,-0.0006925187340042138,
0.06,0.03127175157801324,
0.0600498753117207,-0.022545231531107334,
0.060099750623441396,-0.004301273514757713,
0.06014962593516209,0.020472872744259442,
0.060199501246882794,0.0007773303879916489,
0.06024937655860349,0.0038841393323047844,
0.06029925187032419,-0.006939118389455901,
0.06034912718204489,0.025209945312650035,
0.060399002493765584,0.011589471916721748,
0.06044887780548629,0.00074983300257746,
0.06049875311720698,0.031188164578743363,
0.06054862842892768,0.010686527504926163,
0.06059850374064838,0.01682260671059823,
0.06064837905236908,0.012083407530945396,
0.06069825436408977,0.016940773392046294,
0.060748129675810475,0.0219259836200859,
0.06079800498753117,0.007328069366273385,
0.06084788029925187,0.0017142810670115784,
0.06089775561097257,0.03910151736173386,
0.060947630922693265,0.028810709751320735,
0.06099750623441397,0.034217626010984464,
0.06104738154613466,0.021138296203354293,
0.06109725685785536,0.012839354400697122,
0.06114713216957606,-0.00010520920577106359,
0.06119700748129676,0.013441416153877714,
0.06124688279301746,-0.003015290346682461,
0.061296758104738155,0.001146568912172399,
0.06134663341645885,-0.0028211524488513245,
0.061396508728179554,0.02129290095077381,
0.06144638403990025,0.008994974180577667,
0.061496259351620945,0.019954389595767792,
0.06154613466334165,-0.0019298578282878794,
0.061596009975062344,0.02197565615330984,
0.06164588528678304,0.025458430488735792,
0.06169576059850374,0.017964628886465453,
0.06174563591022444,0.011768446079198348,
0.06179551122194514,0.03209943645369062,
0.061845386533665836,0.0067248962581505315,
0.06189526184538653,0.010927878796527003,
0.061945137157107234,0.030664425589008004,
0.06199501246882793,0.0008714493003142733,
0.062044887780548626,0.012973910944595764,
0.06209476309226933,0.02899281712729808,
0.062144638403990024,0.00414563276044165,
0.06219451371571072,0.03568046193097639,
0.06224438902743142,0.016249644737891176,
0.06229426433915212,0.029100794865772696,
0.06234413965087282,0.032741694038349055,
0.062394014962593516,-0.0019321776537348234,
0.06244389027431421,0.016438915334291176,
0.062493765586034915,-0.0061005328189960815,
0.06254364089775562,0.029778641935334048,
0.06259351620947631,0.01347045959867262,
0.06264339152119701,0.007877199714521664,
0.0626932668329177,0.022503023661597458,
0.0627431421446384,0.0014828375406137906,
0.0627930174563591,0.05050869070795836,
0.0628428927680798,0.04344011619530925,
0.0628927680798005,0.005659062729204778,
0.0629426433915212,0.01903611871518316,
0.06299251870324189,-0.0013395524842426294,
0.06304239401496259,0.01156800258390106,
0.0630922693266833,0.03008433565472631,
0.063142144638404,-0.002851988914692672,
0.06319201995012469,0.024043999797473008,
0.06324189526184539,0.02273940312113067,
0.06329177057356608,0.032396327158638695,
0.06334164588528678,0.03344152587365909,
0.06339152119700749,0.049344110930575696,
0.06344139650872818,0.03618218580350149,
0.06349127182044888,-0.0007281621604666617,
0.06354114713216957,0.017222630061624562,
0.06359102244389027,0.01811108613885731,
0.06364089775561098,0.036612026868638084,
0.06369077306733167,0.03884908203565509,
0.06374064837905237,0.03869617516257903,
0.06379052369077307,0.01400241931608523,
0.06384039900249376,0.0033953147880907524,
0.06389027431421446,0.015987769333794595,
0.06394014962593517,0.05248895602006637,
0.06399002493765586,0.026444955151788525,
0.06403990024937656,0.01826293276018051,
0.06408977556109725,0.04515134196622825,
0.06413965087281795,0.03971858713486881,
0.06418952618453866,0.008103220102211373,
0.06423940149625935,0.010049841518924766,
0.06428927680798005,0.012651292695006491,
0.06433915211970075,0.008982732456183215,
0.06438902743142144,0.023100656079321606,
0.06443890274314215,0.02908723569322065,
0.06448877805486285,0.048301898548525714,
0.06453865336658354,0.040935552166804626,
0.06458852867830424,0.010112209790966744,
0.06463840399002493,0.05042042030459178,
0.06468827930174563,0.007365451693853425,
0.06473815461346634,0.021429861798099296,
0.06478802992518704,0.030798209036650932,
0.06483790523690773,0.018062760932254306,
0.06488778054862843,0.02534706819910294,
0.06493765586034912,0.02331366078238097,
0.06498753117206983,-5.792925499514476e-05,
0.06503740648379053,0.021541127681294327,
0.06508728179551122,0.014892783433127322,
0.06513715710723192,0.05435315437303305,
0.06518703241895261,0.01984362315498101,
0.06523690773067331,0.02202705903572667,
0.06528678304239402,0.021849654138382458,
0.06533665835411472,0.030970089047737417,
0.06538653366583541,0.021793076146320006,
0.06543640897755611,0.026114863571216836,
0.0654862842892768,-0.009768807099073386,
0.06553615960099751,0.026884000333224523,
0.06558603491271821,0.017714924552975984,
0.0656359102244389,0.025402358578597708,
0.0656857855361596,0.031727259313345635,
0.0657356608478803,0.026314746330809137,
0.06578553615960099,0.010534926039099796,
0.0658354114713217,0.03515803063816583,
0.0658852867830424,0.04405679045527048,
0.06593516209476309,0.012793132739267769,
0.06598503740648379,0.009854819970536822,
0.06603491271820448,0.0015632005984380255,
0.06608478802992519,0.012162474811853608,
0.06613466334164589,0.03132888196782081,
0.06618453865336658,0.005870741007448128,
0.06623441396508728,0.0398680421026735,
0.06628428927680798,0.02437989913261593,
0.06633416458852869,0.0414020651072944,
0.06638403990024938,0.009938373104711308,
0.06643391521197008,0.021464516553099455,
0.06648379052369077,0.00881236455571021,
0.06653366583541147,0.02716857646605554,
0.06658354114713216,0.046838815664478284,
0.06663341645885287,0.027210902930345855,
0.06668329177057357,0.027669579365782227,
0.06673316708229426,0.02628493921002104,
0.06678304239401496,0.012704327923228497,
0.06683291770573566,0.027456955163325764,
0.06688279301745637,0.029915043307749634,
0.06693266832917706,0.01828183623656115,
0.06698254364089776,0.047607311821318624,
0.06703241895261845,0.024721172932190418,
0.06708229426433915,0.007204680355685703,
0.06713216957605984,0.07109428951254768,
0.06718204488778055,0.018345581188611366,
0.06723192019950125,0.010837341394541362,
0.06728179551122195,0.007082610597169777,
0.06733167082294264,0.02017876852425534,
0.06738154613466334,0.034917391425939394,
0.06743142144638405,0.007418305111873911,
0.06748129675810474,0.022056722266897102,
0.06753117206982544,0.03604016190417968,
0.06758104738154613,0.021233663254548202,
0.06763092269326683,0.027132799608690757,
0.06768079800498752,0.017125931748317603,
0.06773067331670823,0.022594714491196335,
0.06778054862842893,0.004670127849023341,
0.06783042394014963,0.01706274023991652,
0.06788029925187032,-0.00033915226050372504,
0.06793017456359102,0.02516690618327433,
0.06798004987531173,0.024435534614844764,
0.06802992518703242,0.03505042936007326,
0.06807980049875312,0.02082687682215583,
0.06812967581047381,0.01263135387935738,
0.06817955112219451,0.02669481140023102,
0.0682294264339152,0.009594500769652993,
0.06827930174563591,0.024817996066881433,
0.06832917705735661,0.020464749790111727,
0.0683790523690773,0.024082222726967813,
0.068428927680798,0.022403221835299615,
0.0684788029925187,0.01280681397107631,
0.06852867830423941,0.030133853920655734,
0.0685785536159601,0.03143747908919882,
0.0686284289276808,0.004044400749922539,
0.0686783042394015,0.026263235296482612,
0.06872817955112219,0.006982822163577832,
0.0687780548628429,-0.018159243371457398,
0.0688279301745636,0.01571815009670101,
0.06887780548628429,0.0021418999004660256,
0.06892768079800499,0.022293910113326328,
0.06897755610972568,0.014353504026205312,
0.06902743142144638,0.02262264886246399,
0.06907730673316709,0.030853719456622783,
0.06912718204488778,0.00271875363217415,
0.06917705735660848,-0.004537433740646104,
0.06922693266832917,-0.0007640712130985439,
0.06927680798004987,0.02460010207317429,
0.06932668329177058,0.005254771105917369,
0.06937655860349128,0.000800763175405235,
0.06942643391521197,0.035608734900473116,
0.06947630922693267,0.001439000015738873,
0.06952618453865336,-0.007455754356322487,
0.06957605985037406,0.022119518668843558,
0.06962593516209477,0.008687164306507579,
0.06967581047381546,-0.0012187903301568237,
0.06972568578553616,-0.0046335395290504735,
0.06977556109725686,-0.013192016339664814,
0.06982543640897755,-0.00623055924271063,
0.06987531172069826,0.03456537791856546,
0.06992518703241896,-0.004494894272369287,
0.06997506234413965,0.0051502833154414155,
0.07002493765586035,0.01596648054252285,
0.07007481296758104,0.017067008262678422,
0.07012468827930174,0.014407488652295141,
0.07017456359102245,0.008029087288377135,
0.07022443890274314,-0.007815585307399541,
0.07027431421446384,0.007679764373903303,
0.07032418952618454,0.00471073871839863,
0.07037406483790523,0.024711966960346048,
0.07042394014962594,-0.0044546683809996695,
0.07047381546134664,0.010730041199538881,
0.07052369077306733,0.012518368307614495,
0.07057356608478803,-0.010309357175503919,
0.07062344139650872,0.018855302333693133,
0.07067331670822943,-0.004290893175273885,
0.07072319201995013,-0.01146566992142254,
0.07077306733167082,-0.0018026162723023906,
0.07082294264339152,-0.017641684124895397,
0.07087281795511222,-0.01033291986915823,
0.07092269326683291,-0.012784016269536104,
0.07097256857855362,-0.0002195903202719437,
0.07102244389027432,0.008199994714853633,
0.07107231920199501,-0.002533859569927268,
0.07112219451371571,0.00011382353176310738,
0.0711720698254364,-0.019602407323877996,
0.07122194513715711,-0.0014589859930356321,
0.07127182044887781,0.01423985022603207,
0.0713216957605985,0.010789404590427043,
0.0713715710723192,-0.034508576728048156,
0.0714214463840399,0.0062854747526499425,
0.07147132169576059,0.000861005797542393,
0.0715211970074813,-0.0071676538267561925,
0.071571072319202,0.025465664047488963,
0.0716209476309227,-0.005210575611371902,
0.07167082294264339,-0.007333741742941627,
0.07172069825436408,0.013386980609017392,
0.0717705735660848,0.008249728632061635,
0.07182044887780549,0.0010256061519029946,
0.07187032418952619,0.02619827233722479,
0.07192019950124688,-0.012140662376912753,
0.07197007481296758,0.014667415760854011,
0.07201995012468827,-0.010990186142956458,
0.07206982543640898,0.002396065067296251,
0.07211970074812968,0.019745442710015344,
0.07216957605985037,-0.0031388817740763382,
0.07221945137157107,-0.016951970358032406,
0.07226932668329177,-0.014644424755359587,
0.07231920199501247,-0.006792585947174264,
0.07236907730673317,0.014798719042584136,
0.07241895261845387,-0.0014161770184429366,
0.07246882793017456,-0.025760670435518367,
0.07251870324189526,-0.021296010677929526,
0.07256857855361595,-0.00463026640580966,
0.07261845386533666,-0.013141712209441915,
0.07266832917705736,-0.005411802317018785,
0.07271820448877805,-0.02261259245605381,
0.07276807980049875,-0.03237629228886438,
0.07281795511221945,-0.018416846484932616,
0.07286783042394016,-0.006796322563802216,
0.07291770573566085,-0.024727604531252955,
0.07296758104738155,-0.004183759146202206,
0.07301745635910224,-0.01778645513175159,
0.07306733167082294,-0.017486810471428582,
0.07311720698254365,-0.02370625691985708,
0.07316708229426434,0.00013026653420362445,
0.07321695760598504,-0.037328775308523604,
0.07326683291770573,-0.0007343032089047793,
0.07331670822942643,-0.003029227690938101,
0.07336658354114713,-0.03190691668086229,
0.07341645885286784,-0.022904773945369675,
0.07346633416458853,0.007888300467930306,
0.07351620947630923,0.011079691489999682,
0.07356608478802992,-0.02702663843086725,
0.07361596009975062,0.009250467794767667,
0.07366583541147133,0.0064331091448538505,
0.07371571072319202,-0.047935580232815175,
0.07376558603491272,0.01767774708395638,
0.07381546134663342,-0.017960034445924186,
0.07386533665835411,-0.012129359679359913,
0.0739152119700748,-0.012939323565161203,
0.07396508728179552,-0.03563907524158716,
0.07401496259351621,-0.022159191765704973,
0.07406483790523691,-0.008584462054515206,
0.0741147132169576,0.004761432128773824,
0.0741645885286783,-0.010227516182488528,
0.07421446384039901,-0.006299687350397468,
0.0742643391521197,-0.014533567623149828,
0.0743142144638404,-0.0008682132797214956,
0.0743640897755611,0.006180664376935775,
0.07441396508728179,-0.046803429631246375,
0.07446384039900249,-0.013172694016911266,
0.0745137157107232,-0.008874376767954807,
0.07456359102244389,-0.02186250393036126,
0.07461346633416459,-0.0036034545527817794,
0.07466334164588528,-0.007680635080238131,
0.07471321695760598,-0.04759210832205238,
0.07476309226932669,-0.0024318239134918703,
0.07481296758104738,-0.02904020025574313,
0.07486284289276808,0.0028936268159638,
0.07491271820448878,-0.007976130491842513,
0.07496259351620947,0.01615541400650901,
0.07501246882793017,-0.024596988850477654,
0.07506234413965088,-0.0027778861262994017,
0.07511221945137157,-0.005611806365005124,
0.07516209476309227,-0.007309644387736253,
0.07521197007481296,-0.01586032539934154,
0.07526184538653366,-0.024173398526497483,
0.07531172069825437,0.015116336036695408,
0.07536159600997507,0.014392340627995626,
0.07541147132169576,-0.027869489189280186,
0.07546134663341646,0.01347365576174905,
0.07551122194513715,-0.0058836953527296,
0.07556109725685786,0.00215848384909997,
0.07561097256857856,-0.012392819549743816,
0.07566084788029925,-0.019811072479021617,
0.07571072319201995,0.00022096986660213522,
0.07576059850374064,-0.010319979515671875,
0.07581047381546134,-0.01712530087909431,
0.07586034912718205,0.008191419225014351,
0.07591022443890275,0.0006136924238904461,
0.07596009975062344,-0.016848764311752265,
0.07600997506234414,-0.05942850318816896,
0.07605985037406483,-0.019924467451057297,
0.07610972568578554,-0.036562481966284185,
0.07615960099750624,0.010615846409414344,
0.07620947630922693,-0.003234734134961661,
0.07625935162094763,-0.016852413526224713,
0.07630922693266833,0.004764931395074716,
0.07635910224438902,-0.01274064055840427,
0.07640897755610973,-0.009718475049400283,
0.07645885286783043,-0.03645446813418678,
0.07650872817955112,0.005253634520977558,
0.07655860349127182,-0.0036378872458829453,
0.07660847880299251,-0.028804166715240002,
0.07665835411471322,-0.01825619563693102,
0.07670822942643392,-0.01826807026813162,
0.07675810473815461,-0.034499738099750835,
0.07680798004987531,0.002817182048568635,
0.076857855361596,0.002654110981085426,
0.0769077306733167,0.012645273525048517,
0.07695760598503741,-0.0010702107786012983,
0.0770074812967581,-0.01865483706020564,
0.0770573566084788,-0.026536709823697727,
0.0771072319201995,-0.06354297633091709,
0.0771571072319202,-0.008662121011406043,
0.0772069825436409,0.02268198474675543,
0.0772568578553616,-0.031009489322862103,
0.0773067331670823,-0.013259679666455321,
0.07735660847880299,0.008304983484816444,
0.07740648379052369,-0.007046004357056098,
0.0774563591022444,-0.008769966572410257,
0.07750623441396509,-0.017570633143872284,
0.07755610972568579,-0.007148508858770027,
0.07760598503740648,-0.013408475847131316,
0.07765586034912718,-0.011799730521647317,
0.07770573566084787,-0.01709853135718309,
0.07775561097256858,0.011056499929925068,
0.07780548628428928,-0.02380398310377315,
0.07785536159600998,-0.027495880383554765,
0.07790523690773067,-0.04192409307368121,
0.07795511221945137,-0.008992230818954384,
0.07800498753117208,0.016048568069395558,
0.07805486284289277,0.014672951619959896,
0.07810473815461347,-0.015157677262598125,
0.07815461346633416,-0.002808342173070425,
0.07820448877805486,0.0066205722395241825,
0.07825436408977555,-0.025583147339132955,
0.07830423940149626,-0.0051373513184468315,
0.07835411471321696,-0.0042232677048192665,
0.07840399002493766,-0.006419887624504546,
0.07845386533665835,-0.027242600071868787,
0.07850374064837905,-0.013146472716973655,
0.07855361596009976,0.04165725808839133,
0.07860349127182045,-0.011063414413294916,
0.07865336658354115,-0.0002838918230994281,
0.07870324189526184,0.002271823738081581,
0.07875311720698254,-0.0033554801638618955,
0.07880299251870324,-0.004515511715174498,
0.07885286783042394,0.019548452593565125,
0.07890274314214464,0.015513222482154154,
0.07895261845386534,-0.00380666513535603,
0.07900249376558603,-0.02157412367819123,
0.07905236907730673,0.03048215781685952,
0.07910224438902744,-0.013632894464695896,
0.07915211970074813,0.006764413954347259,
0.07920199501246883,0.012382543726185899,
0.07925187032418952,0.01698450369325789,
0.07930174563591022,0.007987721148063266,
0.07935162094763092,-0.002440405655765705,
0.07940149625935163,-0.00036735633026901623,
0.07945137157107232,0.05555841152007491,
0.07950124688279302,0.0025122719305377293,
0.07955112219451371,0.01080277997391734,
0.07960099750623441,-0.0005048334930365795,
0.07965087281795512,0.0125740369092858,
0.07970074812967581,0.010637795725774928,
0.07975062344139651,-0.009685701274591223,
0.0798004987531172,0.006378225699263674,
0.0798503740648379,0.03482697337917994,
0.07990024937655861,-0.014963636341325273,
0.0799501246882793,0.032919470511205425,
0.08,0.014525212554006248,
0.0800498753117207,0.005396974137096503,
0.0800997506234414,0.012770435842139938,
0.08014962593516209,0.022184134971551653,
0.0801995012468828,0.025548982611419243,
0.0802493765586035,-0.005275715710149056,
0.08029925187032419,0.004879349645782457,
0.08034912718204489,0.008046369683700916,
0.08039900249376558,0.017910926111358895,
0.08044887780548629,-0.004297467350023095,
0.08049875311720699,-0.0044755325756306325,
0.08054862842892768,0.02702177178814734,
0.08059850374064838,0.02667501514982826,
0.08064837905236907,0.016397691972947687,
0.08069825436408977,0.0019023086642772045,
0.08074812967581048,0.04018455638564791,
0.08079800498753117,0.009781671968993178,
0.08084788029925187,0.02802807287230806,
0.08089775561097257,-0.002634985010541102,
0.08094763092269326,0.01778895474150419,
0.08099750623441397,0.0055877201247488606,
0.08104738154613467,-0.01644297417723591,
0.08109725685785536,-0.008897180663419726,
0.08114713216957606,0.01071766551462946,
0.08119700748129675,0.017592926813358858,
0.08124688279301745,0.0068533077518818306,
0.08129675810473816,0.024805091499573148,
0.08134663341645886,0.013185486413724497,
0.08139650872817955,0.009732769600014526,
0.08144638403990025,-0.00203085775866514,
0.08149625935162094,-0.011036364385327464,
0.08154613466334165,0.023393417737877155,
0.08159600997506235,0.012691605446707175,
0.08164588528678304,0.004480937512094593,
0.08169576059850374,0.010610560078645468,
0.08174563591022443,0.005626100403688359,
0.08179551122194513,0.04212357405442663,
0.08184538653366584,0.025129447251359988,
0.08189526184538654,-0.007481772262828774,
0.08194513715710723,0.018302476030351882,
0.08199501246882793,0.004466547718128941,
0.08204488778054862,-0.0074849273446228985,
0.08209476309226933,0.047808963888918775,
0.08214463840399003,0.04564283517924387,
0.08219451371571072,0.018488992190074,
0.08224438902743142,0.014553245519900174,
0.08229426433915212,0.03082476284266096,
0.08234413965087282,0.01834091954390781,
0.08239401496259352,0.03645586119777655,
0.08244389027431422,0.023057435986993644,
0.08249376558603491,0.021674229471157953,
0.08254364089775561,0.030269263730622074,
0.0825935162094763,0.007642479358029119,
0.08264339152119701,0.041995579495033075,
0.08269326683291771,0.005004667673261,
0.0827431421446384,0.0069588606169994904,
0.0827930174563591,0.03749785242305302,
0.0828428927680798,0.0034230336588650587,
0.0828927680798005,0.019711371820319006,
0.0829426433915212,0.025744032187214935,
0.0829925187032419,0.02491680053044651,
0.08304239401496259,0.035007983434299006,
0.08309226932668329,0.013491416884326509,
0.08314214463840398,0.05034597291632715,
0.0831920199501247,0.013670389866395315,
0.08324189526184539,0.021894882111547685,
0.08329177057356608,0.030487436874876622,
0.08334164588528678,0.04106031817556996,
0.08339152119700748,0.0158464381033407,
0.08344139650872819,0.021908415973358252,
0.08349127182044888,0.03290425181539411,
0.08354114713216958,0.012322736998307373,
0.08359102244389027,0.03846348122486577,
0.08364089775561097,0.03636063475886615,
0.08369077306733166,0.047484297462169436,
0.08374064837905237,0.022785362996023562,
0.08379052369077307,0.03816365885801483,
0.08384039900249377,0.013214009738186356,
0.08389027431421446,0.016442166067644766,
0.08394014962593516,0.029895857105170242,
0.08399002493765587,0.013089183175137917,
0.08403990024937656,-0.005059018858424472,
0.08408977556109726,0.019040494979925108,
0.08413965087281795,0.02065281328428249,
0.08418952618453865,0.02896345068398416,
0.08423940149625936,0.01941868230829024,
0.08428927680798005,0.0049915640720741734,
0.08433915211970075,0.029740672105687132,
0.08438902743142145,0.02973303466946126,
0.08443890274314214,0.03576044666693458,
0.08448877805486284,0.03965557597567382,
0.08453865336658355,0.033606885204437345,
0.08458852867830424,0.015999315396360094,
0.08463840399002494,0.0173054475153598,
0.08468827930174563,0.05364732026311872,
0.08473815461346633,0.010434982522531559,
0.08478802992518704,0.005846985168621411,
0.08483790523690773,0.007972405681290817,
0.08488778054862843,0.028747825390576676,
0.08493765586034913,0.045135275877869065,
0.08498753117206982,0.03201989267980619,
0.08503740648379052,0.03206240327601327,
0.08508728179551123,0.04189594842456225,
0.08513715710723192,0.04772864056234872,
0.08518703241895262,0.019123039156953615,
0.08523690773067331,0.045479443049795815,
0.08528678304239401,0.024772695187125902,
0.08533665835411472,0.018010607866421467,
0.08538653366583542,0.03320638124826003,
0.08543640897755611,0.038886491314803415,
0.0854862842892768,0.006512006577165538,
0.0855361596009975,0.010903976393114101,
0.0855860349127182,0.007818784284488574,
0.08563591022443891,0.004642503474251575,
0.0856857855361596,0.028408141265875913,
0.0857356608478803,0.027101104951999418,
0.085785536159601,0.01294242773390508,
0.08583541147132169,0.028607727179461778,
0.0858852867830424,0.03389168262244996,
0.0859351620947631,0.028885338068200175,
0.08598503740648379,0.050658596109689286,
0.08603491271820449,0.038637241940070614,
0.08608478802992518,0.05013753565330566,
0.08613466334164588,0.02708933287383883,
0.08618453865336659,0.02686233509930134,
0.08623441396508728,0.020874624291258834,
0.08628428927680798,0.0422691686491616,
0.08633416458852868,0.021114188709904842,
0.08638403990024937,0.03655936916845209,
0.08643391521197008,0.045257383413145016,
0.08648379052369078,-0.01294820580437496,
0.08653366583541147,0.005434343818550156,
0.08658354114713217,0.004760307552075491,
0.08663341645885286,0.03243902581727305,
0.08668329177057357,0.008928862402499724,
0.08673316708229427,0.03475099526709459,
0.08678304239401496,0.04519861145831233,
0.08683291770573566,0.0052121365563805415,
0.08688279301745636,-0.003946947534952196,
0.08693266832917705,0.03707739662651973,
0.08698254364089776,0.03060840175379639,
0.08703241895261846,0.02457342053868757,
0.08708229426433915,0.021076247567346582,
0.08713216957605985,0.02156390605282513,
0.08718204488778054,0.01863677426954029,
0.08723192019950125,0.01246921603325513,
0.08728179551122195,0.04275937891125462,
0.08733167082294264,-0.004752870342966665,
0.08738154613466334,0.0014150364257475116,
0.08743142144638404,0.021872856780088396,
0.08748129675810473,0.023189393306974046,
0.08753117206982544,0.012113694210767674,
0.08758104738154614,0.01195005138085827,
0.08763092269326683,0.021672844629714864,
0.08768079800498753,0.001294711885390487,
0.08773067331670822,0.023280884912299224,
0.08778054862842893,0.04296642475532357,
0.08783042394014963,0.050215696101013244,
0.08788029925187033,0.02787893307828129,
0.08793017456359102,0.013542097552078245,
0.08798004987531172,0.007566448022760873,
0.08802992518703241,0.0293096718928857,
0.08807980049875312,0.0614670961140103,
0.08812967581047382,0.005297864965811047,
0.08817955112219451,0.003959400361895,
0.08822942643391521,0.020500363385128593,
0.0882793017456359,0.015513601269533727,
0.08832917705735661,0.06380232459322524,
0.08837905236907731,-0.02487123650070486,
0.088428927680798,0.018685684743843932,
0.0884788029925187,0.029074766458589085,
0.0885286783042394,-0.01487225706089429,
0.0885785536159601,0.0333575653496567,
0.0886284289276808,0.0009237029727908984,
0.0886783042394015,0.009458619311778637,
0.0887281795511222,0.022658331419420606,
0.08877805486284289,0.027384617938604035,
0.08882793017456359,0.02420909131850516,
0.0888778054862843,0.029664274622142266,
0.08892768079800499,0.00677636270091451,
0.08897755610972569,0.009184026448038523,
0.08902743142144638,0.026098266479236673,
0.08907730673316708,0.0077413348114220406,
0.08912718204488779,-0.0017005514171706988,
0.08917705735660848,0.026707167940807117,
0.08922693266832918,0.01685544473718022,
0.08927680798004987,0.02117682177676556,
0.08932668329177057,-0.010292616214095558,
0.08937655860349127,0.005589246784475894,
0.08942643391521198,0.02336579158997727,
0.08947630922693267,0.0230058680391466,
0.08952618453865337,0.01618348312466375,
0.08957605985037406,0.009141223886478353,
0.08962593516209476,0.018984097136193888,
0.08967581047381547,0.026487417299632082,
0.08972568578553616,0.006993744472495451,
0.08977556109725686,0.02294854985607666,
0.08982543640897755,0.025746472400130952,
0.08987531172069825,0.01951277495569021,
0.08992518703241895,0.004395629852127994,
0.08997506234413966,-0.0023421141325115132,
0.09002493765586035,0.008572736558562447,
0.09007481296758105,-0.00864409390642832,
0.09012468827930174,0.018910099805113295,
0.09017456359102244,-0.003963958336810438,
0.09022443890274315,0.02383929933827046,
0.09027431421446384,0.012897711336788397,
0.09032418952618454,0.007807072105933132,
0.09037406483790524,0.007067062332338394,
0.09042394014962593,0.016534668573920185,
0.09047381546134663,-0.0010547932058200481,
0.09052369077306734,-0.022708091689162314,
0.09057356608478803,-0.011319771545620243,
0.09062344139650873,-0.01732127892968105,
0.09067331670822942,-0.012279087884071005,
0.09072319201995012,-0.022492127192994406,
0.09077306733167083,0.010616949213596925,
0.09082294264339152,-0.00926079449235108,
0.09087281795511222,-0.005881941082312864,
0.09092269326683292,0.002240269269318167,
0.09097256857855361,-0.007871398854294241,
0.09102244389027432,-0.002330447559149019,
0.09107231920199502,-0.00456427554907414,
0.09112219451371571,0.013769731476936477,
0.09117206982543641,-0.048340509369207904,
0.0912219451371571,-0.009413439820937598,
0.0912718204488778,-0.000782022304487503,
0.09132169576059851,0.013261677272603398,
0.0913715710723192,0.030867707414198052,
0.0914214463840399,-0.020319581721869144,
0.0914713216957606,0.007170872118155229,
0.09152119700748129,-0.0012991742780058212,
0.091571072319202,0.014865021627696052,
0.0916209476309227,-0.009128611941957167,
0.09167082294264339,0.005172583401955966,
0.09172069825436409,0.012513890534718356,
0.09177057356608478,0.012968227337380074,
0.09182044887780548,-0.0010361024074279036,
0.09187032418952619,-0.01065374015688389,
0.09192019950124689,-0.012003507068159173,
0.09197007481296758,-0.006090842166870671,
0.09201995012468828,-9.166016500225353e-06,
0.09206982543640897,-0.023609515703693587,
0.09211970074812968,0.0183263631345384,
0.09216957605985038,0.01711226946780931,
0.09221945137157107,0.007086795369694797,
0.09226932668329177,-0.02953252869382026,
0.09231920199501246,-0.006926868082531049,
0.09236907730673316,-0.00480509060714062,
0.09241895261845387,-0.029544537599248154,
0.09246882793017457,0.00914719787832688,
0.09251870324189526,-0.0037017726021016458,
0.09256857855361596,-0.017717710260540875,
0.09261845386533665,-0.018202442059892455,
0.09266832917705736,-0.024022351348583253,
0.09271820448877806,0.03020320666015927,
0.09276807980049875,0.0011730001003361998,
0.09281795511221945,0.0029245759577523657,
0.09286783042394015,-0.009928136686785277,
0.09291770573566084,-0.005409097879779029,
0.09296758104738155,-0.017020776207411416,
0.09301745635910225,-0.018673133979773146,
0.09306733167082294,-0.005901392775704143,
0.09311720698254364,-0.009872560305067078,
0.09316708229426433,0.0014882649021240955,
0.09321695760598504,-0.01493435840136631,
0.09326683291770574,0.0009495273157441413,
0.09331670822942643,-0.0028834393386611276,
0.09336658354114713,-0.024770259408135757,
0.09341645885286783,-0.03020060118572942,
0.09346633416458854,0.007285182612130795,
0.09351620947630923,-0.010074254932352427,
0.09356608478802993,-0.003970090990696982,
0.09361596009975062,0.0025998320809533064,
0.09366583541147132,0.0021047024444205593,
0.09371571072319201,-0.03289146717380631,
0.09376558603491272,-0.0218837853289775,
0.09381546134663342,-0.03413353246317988,
0.09386533665835411,-0.004472535080982301,
0.09391521197007481,-0.029588673343664263,
0.0939650872817955,0.013393503826731625,
0.09401496259351622,-0.04326319993942773,
0.09406483790523691,0.01224226937518595,
0.09411471321695761,-0.02060194338922281,
0.0941645885286783,-0.0063855000444630735,
0.094214463840399,-0.010614534665941764,
0.0942643391521197,-0.014722670968811464,
0.0943142144638404,-0.005498928753518182,
0.0943640897755611,0.0002529651725341926,
0.0944139650872818,-0.006993536163844549,
0.09446384039900249,-0.021248820881854168,
0.09451371571072319,-0.02384095586244809,
0.0945635910224439,-0.04085803098923168,
0.09461346633416459,-0.048201519437162374,
0.09466334164588529,0.006845684560274672,
0.09471321695760598,-0.020055516209988127,
0.09476309226932668,-0.02392450236281345,
0.09481296758104737,-0.0026465052496643156,
0.09486284289276808,-0.02239578926425368,
0.09491271820448878,0.012643242527118317,
0.09496259351620948,0.013925344832855362,
0.09501246882793017,-0.005801229920791075,
0.09506234413965087,-0.025785088325994,
0.09511221945137158,0.0005840034999468422,
0.09516209476309227,0.0018484272658751966,
0.09521197007481297,-0.03532079432603703,
0.09526184538653366,-0.01968107205002799,
0.09531172069825436,-0.013386821529376073,
0.09536159600997507,-0.019796112632904282,
0.09541147132169576,-0.008769833928848263,
0.09546134663341646,-0.010742122180417438,
0.09551122194513716,-0.024738312787051478,
0.09556109725685785,-0.016409330081496268,
0.09561097256857855,-0.025165216152140867,
0.09566084788029926,0.001427227431528998,
0.09571072319201995,-0.011663760901766646,
0.09576059850374065,-0.009123506998378123,
0.09581047381546134,-0.0060379072445743585,
0.09586034912718204,0.019587496279018044,
0.09591022443890275,0.01343084877299163,
0.09596009975062345,-0.03407326839411028,
0.09600997506234414,-0.040814935746573223,
0.09605985037406484,-0.01881514583646387,
0.09610972568578553,-0.018017531145312952,
0.09615960099750623,-0.005806329989596325,
0.09620947630922694,-0.024076065564952884,
0.09625935162094763,-0.027605574582074462,
0.09630922693266833,-0.027779107419386953,
0.09635910224438902,-0.018231604290787382,
0.09640897755610972,-0.007506561754765955,
0.09645885286783043,-0.050986259274763274,
0.09650872817955113,-0.030102205046787737,
0.09655860349127182,0.018886071950218145,
0.09660847880299252,-0.0052578190217994775,
0.09665835411471321,-0.0017691972400225662,
0.09670822942643391,-0.0014829931516387122,
0.09675810473815462,-0.02093580902155718,
0.09680798004987531,-0.0052419810655871925,
0.09685785536159601,-0.02236847764139093,
0.0969077306733167,-0.03390505002552982,
0.0969576059850374,-0.01586351550465259,
0.09700748129675811,-0.024689643629187054,
0.0970573566084788,-0.030347891106992275,
0.0971072319201995,-0.005191627281588211,
0.0971571072319202,-0.009653345331938954,
0.0972069825436409,-0.0007509113160853054,
0.09725685785536159,-0.03491721870731218,
0.0973067331670823,-0.028421701379403724,
0.097356608478803,-0.026119558534820675,
0.09740648379052369,0.011135367865288216,
0.09745635910224439,0.005242142431710207,
0.09750623441396508,0.0049424771708403035,
0.09755610972568579,-0.025848553431823334,
0.09760598503740649,-0.03513282473546812,
0.09765586034912718,0.000705402320588782,
0.09770573566084788,-0.016296270329527386,
0.09775561097256857,0.001003408780564723,
0.09780548628428928,-1.9383358224795734e-05,
0.09785536159600998,0.0009094147053321077,
0.09790523690773068,0.004887461824369543,
0.09795511221945137,0.013252798538359577,
0.09800498753117207,-0.03783896398648987,
0.09805486284289276,-0.011495339216377878,
0.09810473815461347,0.023051895901354195,
0.09815461346633417,0.00672544723802139,
0.09820448877805486,-0.010052761209873837,
0.09825436408977556,0.014632350107210569,
0.09830423940149625,-0.004871821720763177,
0.09835411471321696,0.006922718183301897,
0.09840399002493766,0.007617119653208656,
0.09845386533665836,-0.007188099309426535,
0.09850374064837905,-0.010791863281380083,
0.09855361596009975,-0.009269849179124432,
0.09860349127182044,-0.036566394083100466,
0.09865336658354115,0.026450262340798787,
0.09870324189526185,-0.017105337098092758,
0.09875311720698254,0.005554799052088556,
0.09880299251870324,-0.019201828841763715,
0.09885286783042393,0.02247042335616416,
0.09890274314214464,0.00582823510492231,
0.09895261845386534,-0.013137986726818311,
0.09900249376558604,-0.01893136764243784,
0.09905236907730673,0.018508332244580098,
0.09910224438902743,0.0184911691399209,
0.09915211970074812,-0.020135344453066237,
0.09920199501246883,0.014111412269961541,
0.09925187032418953,0.0050361251162382055,
0.09930174563591022,0.015960621536108298,
0.09935162094763092,0.02392910751300033,
0.09940149625935162,0.002235955757032273,
0.09945137157107233,-0.019584327576501432,
0.09950124688279302,0.003165280250057584,
0.09955112219451372,0.008934902538195386,
0.09960099750623441,-0.02100113494246769,
0.09965087281795511,0.01915577740526119,
0.0997007481296758,0.021742805496401816,
0.09975062344139651,0.01902214197757189,
0.09980049875311721,0.009863249093979062,
0.0998503740648379,0.01330904315503967,
0.0999002493765586,0.018275271573156348,
0.0999501246882793,0.011010058506417845,
0.1,0.02327353414773988,
0.1000498753117207,-0.002045134744385807,
0.1000997506234414,-0.022882590675422282,
0.10014962593516209,-0.0053501302092158875,
0.10019950124688279,-0.008645600751068603,
0.1002493765586035,0.017169993604335278,
0.1002992518703242,0.008221341663935212,
0.10034912718204489,0.016670294162138135,
0.10039900249376559,0.015461032922432666,
0.10044887780548628,0.012784179801854145,
0.10049875311720698,0.0265710324239049,
0.10054862842892769,0.028256850304341007,
0.10059850374064838,0.026698532058645336,
0.10064837905236908,0.01397759547005404,
0.10069825436408977,0.009214160641873533,
0.10074812967581047,0.005065257883032304,
0.10079800498753118,0.018276551307087517,
0.10084788029925187,0.008165008951577674,
0.10089775561097257,0.024554122527782395,
0.10094763092269327,0.03631816054000146,
0.10099750623441396,0.023338261296257625,
0.10104738154613466,-0.014070337525718613,
0.10109725685785537,0.014461935556067902,
0.10114713216957606,0.0007820881857570853,
0.10119700748129676,0.016470983685923687,
0.10124688279301745,0.03825793996563492,
0.10129675810473815,0.001158181205357437,
0.10134663341645886,0.022867129451131903,
0.10139650872817955,0.015517489235477286,
0.10144638403990025,0.017498299637338295,
0.10149625935162095,0.03853255952295849,
0.10154613466334164,0.01683900664333671,
0.10159600997506234,0.012699659182829486,
0.10164588528678305,0.008864659657460647,
0.10169576059850374,0.015999119685102925,
0.10174563591022444,0.023622545858447544,
0.10179551122194513,0.011644791587304599,
0.10184538653366583,0.023817686716003515,
0.10189526184538654,0.0345535713571711,
0.10194513715710724,0.0445159717207122,
0.10199501246882793,0.005491029316577382,
0.10204488778054863,0.005480602370484701,
0.10209476309226932,0.0067275411618431605,
0.10214463840399003,0.031165244594610016,
0.10219451371571073,0.008042479744686441,
0.10224438902743142,0.028786887617596936,
0.10229426433915212,0.03964211922500202,
0.10234413965087281,0.028064461328938813,
0.10239401496259351,0.016826541085960163,
0.10244389027431422,0.009578289576651352,
0.10249376558603492,-0.0015070748900427554,
0.10254364089775561,0.019459621215937327,
0.10259351620947631,0.01117771180507897,
0.102643391521197,0.03305503964430269,
0.10269326683291771,-0.0019148990233459617,
0.10274314214463841,0.03318551970180318,
0.1027930174563591,0.04372572621636806,
0.1028428927680798,0.04014997663525351,
0.1028927680798005,0.03236942844805782,
0.10294264339152119,0.05133813686155503,
0.1029925187032419,0.03715826371162126,
0.1030423940149626,0.006954988086688301,
0.10309226932668329,0.05667314265802053,
0.10314214463840399,0.026492522009346004,
0.10319201995012468,0.016091436636694677,
0.10324189526184539,0.026406626060291347,
0.10329177057356609,0.040981966327280926,
0.10334164588528678,-0.0073209339335126335,
0.10339152119700748,0.03210430034850653,
0.10344139650872818,0.030285409780594963,
0.10349127182044887,0.008942361010568525,
0.10354114713216958,0.011905639741569305,
0.10359102244389028,0.014197158134006722,
0.10364089775561097,-0.015798585988713608,
0.10369077306733167,0.0022798258505212707,
0.10374064837905236,0.003217346535329648,
0.10379052369077307,0.02973248736745544,
0.10384039900249377,0.0010940958527687061,
0.10389027431421446,0.005863367760501236,
0.10394014962593516,0.02581900224483936,
0.10399002493765586,-0.004200144794018357,
0.10403990024937655,0.039406759763792966,
0.10408977556109726,0.0386628589031796,
0.10413965087281796,0.046437380909085176,
0.10418952618453865,0.03530795727518275,
0.10423940149625935,0.001032833685500667,
0.10428927680798004,0.036373984515534016,
0.10433915211970075,0.03391749082110642,
0.10438902743142145,0.03924948260417254,
0.10443890274314215,0.016513333178069176,
0.10448877805486284,0.01926022051682391,
0.10453865336658354,0.039452014468759414,
0.10458852867830425,0.009207866406647874,
0.10463840399002494,0.030391617140160237,
0.10468827930174564,0.04687144234216333,
0.10473815461346633,0.03286386045417443,
0.10478802992518703,0.02975711717571349,
0.10483790523690772,0.02863544344989508,
0.10488778054862843,0.03611199846383392,
0.10493765586034913,0.027286378957039847,
0.10498753117206983,0.035450051524381465,
0.10503740648379052,0.02467811957326452,
0.10508728179551122,0.01244704753663706,
0.10513715710723193,0.041795517879242114,
0.10518703241895262,0.01915030304981604,
0.10523690773067332,0.027292686289481,
0.10528678304239401,0.01965723084432109,
0.10533665835411471,0.020133494335616592,
0.1053865336658354,0.0069143814325982565,
0.10543640897755611,0.05113755767100759,
0.10548628428927681,0.018110818866254663,
0.1055361596009975,0.06656587165636818,
0.1055860349127182,0.026334389128653362,
0.1056359102244389,0.05559030993191773,
0.10568578553615961,0.03996053975096259,
0.1057356608478803,0.022400145155876478,
0.105785536159601,0.0161135425695804,
0.1058354114713217,0.03340120763299576,
0.10588528678304239,0.029819088963424195,
0.10593516209476309,0.0333314507485871,
0.1059850374064838,0.035946144158316554,
0.10603491271820449,0.018444752608566355,
0.10608478802992519,0.036871810955912424,
0.10613466334164588,0.02713982080685616,
0.10618453865336658,0.05594589872097257,
0.10623441396508729,0.020882243926204008,
0.10628428927680798,-0.003480314847592019,
0.10633416458852868,0.038623695597172145,
0.10638403990024937,0.04693908617036044,
0.10643391521197007,0.028995316151715002,
0.10648379052369077,0.03391235255356406,
0.10653366583541148,0.026523964171340585,
0.10658354114713217,0.012442841268488814,
0.10663341645885287,0.007002039647326475,
0.10668329177057356,0.023669839220822633,
0.10673316708229426,0.027502361263768395,
0.10678304239401497,0.033382081687907156,
0.10683291770573566,0.041658086932357924,
0.10688279301745636,0.006828760215115869,
0.10693266832917706,0.013013166338477237,
0.10698254364089775,0.03274035275422111,
0.10703241895261846,0.010809498601275442,
0.10708229426433916,-7.337274022691659e-05,
0.10713216957605985,0.018849728446613742,
0.10718204488778055,0.03248474723832685,
0.10723192019950124,0.04021865915079222,
0.10728179551122194,0.028455271429748366,
0.10733167082294265,0.032888310676931036,
0.10738154613466334,0.06554523735462944,
0.10743142144638404,0.028622117402914166,
0.10748129675810474,0.019573969698766683,
0.10753117206982543,0.029863190674754035,
0.10758104738154614,0.009959723652198679,
0.10763092269326684,0.03303478723861947,
0.10768079800498753,0.02302629460421255,
0.10773067331670823,0.05037663275466536,
0.10778054862842892,0.018446251167225865,
0.10783042394014962,-0.010056254877159276,
0.10788029925187033,-0.010696935960595715,
0.10793017456359102,0.02207864231731993,
0.10798004987531172,0.04042538830816038,
0.10802992518703242,0.006008282794839772,
0.10807980049875311,0.019508197622170532,
0.10812967581047382,-0.011230747818141918,
0.10817955112219452,0.013185555124605008,
0.10822942643391521,0.022865462571873996,
0.10827930174563591,0.01796941616268874,
0.1083291770573566,0.010452435506529236,
0.1083790523690773,-0.00025024030880814105,
0.10842892768079801,0.007857708634894685,
0.1084788029925187,0.01612345273857587,
0.1085286783042394,0.0008221180293100684,
0.1085785536159601,-0.00919959693270703,
0.10862842892768079,0.014387890673887068,
0.1086783042394015,0.016867078537960718,
0.1087281795511222,0.0010248235243292044,
0.1087780548628429,0.01838225423103722,
0.10882793017456359,0.004973318680435242,
0.10887780548628428,0.008144988674776952,
0.108927680798005,-0.005158313374661872,
0.10897755610972569,0.007381561311640884,
0.10902743142144639,0.01004880066355119,
0.10907730673316708,-0.004307852246517627,
0.10912718204488778,0.007685355015728233,
0.10917705735660847,0.02617116714224332,
0.10922693266832918,0.02663348486349172,
0.10927680798004988,0.028819318682791008,
0.10932668329177057,0.017423634700875032,
0.10937655860349127,-0.0219935154066212,
0.10942643391521197,0.025851430025557363,
0.10947630922693267,0.025984200074821946,
0.10952618453865337,0.031766242690221096,
0.10957605985037407,0.052419570871025625,
0.10962593516209476,0.02412917295901086,
0.10967581047381546,0.01851668066818557,
0.10972568578553615,0.012044081836034823,
0.10977556109725686,0.007853947541461714,
0.10982543640897756,0.029109192104893565,
0.10987531172069825,7.5796863973401e-05,
0.10992518703241895,-0.019378849143066843,
0.10997506234413965,0.019020968302232613,
0.11002493765586036,-0.017123832447998054,
0.11007481296758105,0.020654019982193843,
0.11012468827930175,0.02463578794224535,
0.11017456359102244,0.01228185207790013,
0.11022443890274314,0.02669221216429817,
0.11027431421446383,0.033175756424860356,
0.11032418952618454,-0.01435224616225526,
0.11037406483790524,0.012635830492108136,
0.11042394014962593,0.009795610127238709,
0.11047381546134663,-0.018428616059863557,
0.11052369077306733,-0.0077228637461682365,
0.11057356608478804,-0.0037913779756639197,
0.11062344139650873,0.0014065730367376654,
0.11067331670822943,0.008948620517270939,
0.11072319201995012,0.01791405794600125,
0.11077306733167082,0.0075257201955066366,
0.11082294264339151,0.010224063673799,
0.11087281795511222,0.00031097919653503593,
0.11092269326683292,-0.008348651944662416,
0.11097256857855362,-0.0018794488309636717,
0.11102244389027431,-0.010028503373157084,
0.111072319201995,-0.008602688720027804,
0.11112219451371572,-0.003249061855885714,
0.11117206982543641,-0.009241399769956913,
0.11122194513715711,-0.04133275949861414,
0.1112718204488778,-0.03498138872288201,
0.1113216957605985,-0.014897097718398433,
0.11137157107231921,-0.003550249314086714,
0.1114214463840399,-0.009374530920153883,
0.1114713216957606,-0.013801447351758615,
0.1115211970074813,-0.01381764156203821,
0.11157107231920199,0.021391842054813374,
0.11162094763092269,0.007024297170429985,
0.1116708229426434,0.009527090388811846,
0.11172069825436409,0.012134693666818972,
0.11177057356608479,0.0015295012836399474,
0.11182044887780548,-0.01786363997867373,
0.11187032418952618,-0.0021433714469335,
0.11192019950124689,-0.016299175416088125,
0.11197007481296758,-0.024868266295203972,
0.11201995012468828,0.0206933624983755,
0.11206982543640898,0.023169773343047144,
0.11211970074812967,-0.01746273639260959,
0.11216957605985037,-0.034287787101581264,
0.11221945137157108,-0.0108495084639499,
0.11226932668329177,0.014138830622296546,
0.11231920199501247,-0.007633340634237795,
0.11236907730673316,-0.025716041982065355,
0.11241895261845386,-0.014295005623884468,
0.11246882793017457,-0.01505204095044384,
0.11251870324189527,-0.005913551282925906,
0.11256857855361596,0.01843176984695872,
0.11261845386533666,-0.014042312725875208,
0.11266832917705735,-0.012953744916802828,
0.11271820448877805,-0.030177075882390707,
0.11276807980049876,-0.016930357530527452,
0.11281795511221945,0.013367778547495898,
0.11286783042394015,-0.014582408121144577,
0.11291770573566084,-0.023847685902193543,
0.11296758104738154,0.00957683001351534,
0.11301745635910225,0.012409701389058447,
0.11306733167082295,-0.0020502307143647966,
0.11311720698254364,-0.010548575537334997,
0.11316708229426434,-0.010882059991911407,
0.11321695760598503,0.009508339057970674,
0.11326683291770574,0.005163812880290407,
0.11331670822942644,0.009095045284657549,
0.11336658354114713,-0.00034907036090986443,
0.11341645885286783,-0.017818816796972413,
0.11346633416458853,-0.0023525020455982667,
0.11351620947630922,-0.0056238720600512064,
0.11356608478802993,-0.021513497162619993,
0.11361596009975063,0.005311372346146889,
0.11366583541147132,0.010241702392330725,
0.11371571072319202,0.010786162394621891,
0.11376558603491271,-0.0020090382604515886,
0.11381546134663342,-0.0163839680964262,
0.11386533665835412,-0.03047066952755966,
0.11391521197007481,0.01597663977393315,
0.11396508728179551,-0.023228529740144867,
0.1140149625935162,-0.01568482635220829,
0.1140648379052369,-0.007856631865679604,
0.11411471321695761,0.012845613544813454,
0.1141645885286783,-0.027954542736319664,
0.114214463840399,-0.016563998506835008,
0.1142643391521197,-0.027460321669987405,
0.1143142144638404,-0.016992902823531143,
0.1143640897755611,-0.011102438545592614,
0.1144139650872818,0.015939962419694757,
0.1144638403990025,-0.03372505871287308,
0.11451371571072319,-0.02336208379154884,
0.11456359102244389,-0.021108558638053162,
0.11461346633416458,0.008242996426210687,
0.11466334164588529,-0.014588571380137999,
0.11471321695760599,-0.014903692919117726,
0.11476309226932668,-0.023595116361567837,
0.11481296758104738,-0.014700260151393222,
0.11486284289276807,-0.045132351442541394,
0.11491271820448878,-0.016990240782494125,
0.11496259351620948,-0.007978133478844815,
0.11501246882793018,-0.023468063116938588,
0.11506234413965087,-0.003962570870242799,
0.11511221945137157,-0.010319874637983452,
0.11516209476309226,-0.00962035076432275,
0.11521197007481297,-0.000945430260139029,
0.11526184538653367,0.00047364643490761284,
0.11531172069825436,-0.02245260237185985,
0.11536159600997506,0.0016482488700098608,
0.11541147132169575,0.00945450154942286,
0.11546134663341646,-0.009174930717604703,
0.11551122194513716,0.01857276829908679,
0.11556109725685786,-0.007044010455395918,
0.11561097256857855,-0.003119129711375181,
0.11566084788029925,0.01153238205572589,
0.11571072319201996,-0.03617892370465025,
0.11576059850374065,-0.0016913127248480726,
0.11581047381546135,-0.011621536459920232,
0.11586034912718204,0.00044536499748129045,
0.11591022443890274,-0.003501780782870105,
0.11596009975062344,-0.007687917793008343,
0.11600997506234415,-0.012203260482039301,
0.11605985037406484,-0.01002911741719226,
0.11610972568578554,-0.007524497373443193,
0.11615960099750623,-0.021865753087629794,
0.11620947630922693,-0.01152740043805383,
0.11625935162094764,0.002728024103975886,
0.11630922693266833,-0.011597821099987192,
0.11635910224438903,-0.007514415129393949,
0.11640897755610972,-0.031247942608386765,
0.11645885286783042,0.009669558756893622,
0.11650872817955112,-0.037191021654954456,
0.11655860349127183,-0.031195488501597667,
0.11660847880299252,-0.002316843886198322,
0.11665835411471322,0.0015488310306605146,
0.11670822942643391,0.026909396952517702,
0.11675810473815461,-0.00021656448534354208,
0.11680798004987532,-0.02972779133758638,
0.11685785536159601,0.004926087091670009,
0.11690773067331671,-0.029186506665029914,
0.1169576059850374,-0.006519403635797664,
0.1170074812967581,-0.0001303855124214501,
0.1170573566084788,0.016107399727483554,
0.1171072319201995,0.026314989926304374,
0.1171571072319202,-0.02216551250533978,
0.1172069825436409,-0.0016658520416745646,
0.1172568578553616,-0.02983560473991397,
0.11730673316708229,0.006485621178127432,
0.117356608478803,0.004920284554673204,
0.1174064837905237,0.006573887515279736,
0.11745635910224439,-0.0020299180336381235,
0.11750623441396509,-0.03782934320570895,
0.11755610972568578,-0.016244354358139788,
0.11760598503740648,0.013717872429744175,
0.11765586034912719,-0.023223366897939163,
0.11770573566084788,0.0026652187659764364,
0.11775561097256858,0.002843746940224702,
0.11780548628428927,0.026813341397920375,
0.11785536159600997,-0.019607441859574234,
0.11790523690773068,-0.006406580563479861,
0.11795511221945137,-0.0015438235188217904,
0.11800498753117207,0.0022306451313713173,
0.11805486284289277,-0.002209533587327289,
0.11810473815461346,-0.03998318921223486,
0.11815461346633417,0.003400126700382096,
0.11820448877805487,0.01333132915589856,
0.11825436408977556,0.015472957875069358,
0.11830423940149626,-0.006171171750637456,
0.11835411471321695,-0.0264169170282891,
0.11840399002493765,-0.004599367134533579,
0.11845386533665836,0.013313179325963457,
0.11850374064837906,0.0026383606788247405,
0.11855361596009975,0.0026043070495711776,
0.11860349127182045,0.03285508220956404,
0.11865336658354114,0.010935865650329562,
0.11870324189526185,-0.00711613349138716,
0.11875311720698255,-0.004057440028124444,
0.11880299251870324,0.006169402968851425,
0.11885286783042394,-0.002106305746786349,
0.11890274314214463,-0.01019759322612257,
0.11895261845386533,0.024220210821753345,
0.11900249376558604,-0.017525505071157972,
0.11905236907730674,-0.005895145911111253,
0.11910224438902743,0.00841434564195533,
0.11915211970074813,0.02355077705734367,
0.11920199501246882,0.01863314050284947,
0.11925187032418953,-0.01635634813544687,
0.11930174563591023,0.017505044591632678,
0.11935162094763092,0.017960007814418272,
0.11940149625935162,0.02407699017984225,
0.11945137157107232,-0.0082130686801885,
0.11950124688279301,-0.0004928636041131038,
0.11955112219451372,0.002252502088368977,
0.11960099750623442,0.007870926624848536,
0.11965087281795511,0.019734995731975024,
0.11970074812967581,0.030440911962233592,
0.1197506234413965,0.0017275637005121375,
0.11980049875311721,-0.024837506950256914,
0.11985037406483791,0.01664341691467576,
0.1199002493765586,0.029030468407806993,
0.1199501246882793,-0.002267060623841839,
0.12,0.011796196928900365,
0.1200498753117207,0.005164577249163994,
0.1200997506234414,0.00817895634031464,
0.1201496259351621,0.011233740566336322,
0.12019950124688279,0.009678358153203889,
0.12024937655860349,0.003238970149608263,
0.12029925187032418,0.002650133703450488,
0.1203491271820449,0.03720597587770388,
0.12039900249376559,0.03086153713029824,
0.12044887780548628,0.02120107713720136,
0.12049875311720698,0.0017843941301447109,
0.12054862842892768,0.003481445102389683,
0.12059850374064839,0.021649693185004544,
0.12064837905236908,0.021175967180136764,
0.12069825436408978,0.020854488997733286,
0.12074812967581047,-0.006849439172874561,
0.12079800498753117,0.005486929523539245,
0.12084788029925186,0.014165515179332204,
0.12089775561097257,-0.013457523250274854,
0.12094763092269327,0.02248082556742726,
0.12099750623441397,0.010868258288241957,
0.12104738154613466,0.026848329595728,
0.12109725685785536,0.02732287222910018,
0.12114713216957607,0.02829495261899477,
0.12119700748129676,0.02349133151071719,
0.12124688279301746,-0.005840387991525767,
0.12129675810473815,0.00845310663111153,
0.12134663341645885,0.015800838147096537,
0.12139650872817954,0.003073008194890415,
0.12144638403990025,0.013192636807745791,
0.12149625935162095,0.035949304025609814,
0.12154613466334165,0.0060645424324316174,
0.12159600997506234,0.013277228214682569,
0.12164588528678304,0.007986820276148337,
0.12169576059850375,0.013352447948943155,
0.12174563591022444,0.01084121418070213,
0.12179551122194514,-0.022146870386482515,
0.12184538653366583,0.018630024834016466,
0.12189526184538653,0.03202415368801596,
0.12194513715710723,0.0017815657307159762,
0.12199501246882793,0.035492146692128294,
0.12204488778054863,0.034347597535557085,
0.12209476309226933,0.029825399017183576,
0.12214463840399002,0.01112279737634095,
0.12219451371571072,0.015474807368717829,
0.12224438902743143,0.03278580067286668,
0.12229426433915212,0.04299185776078823,
0.12234413965087282,0.023494836184900517,
0.12239401496259351,0.0015083755660029452,
0.12244389027431421,0.02910760499388166,
0.12249376558603492,0.019098186257741605,
0.12254364089775562,0.02073614390722691,
0.12259351620947631,0.04231998856487579,
0.122643391521197,0.014216733744505645,
0.1226932668329177,0.029419763992170438,
0.1227431421446384,0.017666444880971965,
0.12279301745635911,0.022758063007402785,
0.1228428927680798,0.029815325574426076,
0.1228927680798005,0.017408810686162946,
0.1229426433915212,0.031792939321924674,
0.12299251870324189,0.021072934026168045,
0.1230423940149626,0.03497764767178901,
0.1230922693266833,0.032251578407230454,
0.12314214463840399,0.03277925004637899,
0.12319201995012469,0.011201692754678099,
0.12324189526184538,0.011941562263971842,
0.12329177057356608,0.002645809295076851,
0.12334164588528679,0.02998931580097445,
0.12339152119700748,0.04838264781059715,
0.12344139650872818,0.025150818748631884,
0.12349127182044888,0.023032721384445003,
0.12354114713216957,0.011835523545227935,
0.12359102244389028,0.00735208883663566,
0.12364089775561098,-0.00928247316569986,
0.12369077306733167,0.04043653097568275,
0.12374064837905237,0.050240361164118466,
0.12379052369077306,0.023459711179731044,
0.12384039900249376,0.03594421729447418,
0.12389027431421447,0.03202483954781282,
0.12394014962593516,0.029001647355081636,
0.12399002493765586,0.03084543460371915,
0.12403990024937656,0.019788751993905913,
0.12408977556109725,0.018974883196211226,
0.12413965087281796,0.039464411172204464,
0.12418952618453866,0.026909961422994004,
0.12423940149625935,0.028470800669597875,
0.12428927680798005,0.03190915678773006,
0.12433915211970074,0.027839779390655923,
0.12438902743142144,0.02670016095180652,
0.12443890274314215,-0.006547780078488993,
0.12448877805486284,0.04442712496670573,
0.12453865336658354,0.06572053791321775,
0.12458852867830424,0.013467149378316452,
0.12463840399002493,0.04120293471297527,
0.12468827930174564,0.015300941567370633,
0.12473815461346634,0.0020289925469843192,
0.12478802992518703,0.027977818997211044,
0.12483790523690773,0.03892440306796077,
0.12488778054862842,0.017086872817302083,
0.12493765586034913,0.044588831317741176,
0.12498753117206983,0.011733942117416012,
0.12503740648379053,0.010737673350058752,
0.12508728179551123,-0.010594146198239167,
0.12513715710723192,0.018184511129966222,
0.12518703241895263,0.038658310669076316,
0.1252369077306733,0.03575379460848821,
0.12528678304239402,0.011216905455293035,
0.1253366583541147,0.025382865829509924,
0.1253865336658354,0.03210992393858048,
0.12543640897755612,0.025988487821394454,
0.1254862842892768,0.03851790825162169,
0.1255361596009975,0.024286212529247973,
0.1255860349127182,0.013209692036007296,
0.1256359102244389,0.04658641994690466,
0.1256857855361596,0.01906544224689486,
0.1257356608478803,0.04023620451150296,
0.125785536159601,0.013639030118141271,
0.12583541147132168,0.0419963186935265,
0.1258852867830424,0.026814485291599167,
0.1259351620947631,0.013610698722609857,
0.12598503740648379,0.0497195631068169,
0.1260349127182045,-0.0014242896505827496,
0.12608478802992518,0.04460866336112268,
0.1261346633416459,0.01614043366712467,
0.1261845386533666,0.03854796660278246,
0.12623441396508728,0.036181435915301714,
0.126284289276808,0.018972229501841076,
0.12633416458852867,0.0445816475897859,
0.12638403990024938,0.029160655923935606,
0.1264339152119701,0.03291902837855686,
0.12648379052369077,0.03395146101406983,
0.12653366583541148,0.026566295387669202,
0.12658354114713216,0.030382395075153563,
0.12663341645885287,0.04249738548383093,
0.12668329177057355,0.008104104544893888,
0.12673316708229426,0.01425986225113804,
0.12678304239401497,0.040332774879502944,
0.12683291770573565,0.03376269411315776,
0.12688279301745636,0.02626844002803011,
0.12693266832917705,0.021478731928484658,
0.12698254364089775,0.005141927602264583,
0.12703241895261846,0.001710844991060237,
0.12708229426433915,0.03953669301183004,
0.12713216957605986,0.026866844326243415,
0.12718204488778054,0.024306690102245704,
0.12723192019950125,0.030548643039452702,
0.12728179551122196,0.017846290066323912,
0.12733167082294264,0.034286366326055,
0.12738154613466335,0.007293809912154975,
0.12743142144638403,0.02818076412904433,
0.12748129675810474,0.05007761750346457,
0.12753117206982545,0.019132334592214806,
0.12758104738154613,0.006343818168980601,
0.12763092269326684,0.04221558721362481,
0.12768079800498752,0.044914646327910174,
0.12773067331670823,0.0032433916305078907,
0.1277805486284289,0.007065250947407103,
0.12783042394014962,0.01667914932588597,
0.12788029925187033,0.033637203511036065,
0.12793017456359101,0.027872983920749068,
0.12798004987531172,-0.01323215764317925,
0.1280299251870324,0.02023169985348437,
0.12807980049875312,0.009773923529775703,
0.12812967581047383,0.03555480483530842,
0.1281795511221945,0.035185140109434174,
0.12822942643391522,-0.0036080916595445066,
0.1282793017456359,0.04235059983347077,
0.1283291770573566,0.019050029905261407,
0.12837905236907732,0.010442171810873226,
0.128428927680798,0.04366542785688171,
0.1284788029925187,0.008192203222536932,
0.1285286783042394,-0.0005849577862232815,
0.1285785536159601,0.012373464843209551,
0.1286284289276808,0.018688836507787576,
0.1286783042394015,0.013960447358148702,
0.1287281795511222,0.03378155854923029,
0.12877805486284288,0.02124823001831109,
0.1288279301745636,-0.004161521115440638,
0.1288778054862843,0.0012538475204836915,
0.12892768079800498,0.036656817394290636,
0.1289775561097257,-0.019699463537182847,
0.12902743142144638,0.0060639110842207,
0.12907730673316709,0.04143374432803457,
0.12912718204488777,-0.003581180332456222,
0.12917705735660848,0.018406181252935742,
0.1292269326683292,0.007365112510418005,
0.12927680798004987,-0.0030022234400829337,
0.12932668329177058,0.03456177505549837,
0.12937655860349126,-0.004376505023010627,
0.12942643391521197,0.032862944584882425,
0.12947630922693268,0.04346545928539855,
0.12952618453865336,-0.004438395281114147,
0.12957605985037407,0.030480098030228987,
0.12962593516209475,0.02003494991095982,
0.12967581047381546,0.014731206318268691,
0.12972568578553617,0.011207580218553406,
0.12977556109725685,-0.013127943151584153,
0.12982543640897756,0.0009019360661652858,
0.12987531172069824,0.0006842080595482816,
0.12992518703241895,0.018833042786476406,
0.12997506234413966,0.02420666807125859,
0.13002493765586035,9.968401654958034e-05,
0.13007481296758105,-0.00992653512937508,
0.13012468827930174,0.017696219263241948,
0.13017456359102245,0.022224138447024054,
0.13022443890274316,0.021409720926772586,
0.13027431421446384,0.04718076460120765,
0.13032418952618455,0.005531737900847084,
0.13037406483790523,0.009175571421175364,
0.13042394014962594,0.008040507435357145,
0.13047381546134662,0.0018374939613369657,
0.13052369077306733,0.008290182902689243,
0.13057356608478804,0.001006502006344825,
0.13062344139650872,-0.004185155063980255,
0.13067331670822943,0.015439802516777016,
0.1307231920199501,0.025906385566881195,
0.13077306733167082,0.015205758895650276,
0.13082294264339153,0.0049896152385699895,
0.13087281795511221,0.003184071301432892,
0.13092269326683292,0.01931709501561234,
0.1309725685785536,-0.022617737674603323,
0.13102244389027431,-0.00181608416814654,
0.13107231920199502,-0.02313230174146982,
0.1311221945137157,-0.0089927973718343,
0.13117206982543642,0.005380464904175612,
0.1312219451371571,0.010014589277250296,
0.1312718204488778,0.019822137966372687,
0.13132169576059852,0.0076853193317196955,
0.1313715710723192,-0.001780982082512279,
0.1314214463840399,-0.0012585055126298362,
0.1314713216957606,0.0191168359526375,
0.1315211970074813,-0.0026277264332485607,
0.13157107231920198,0.009213905632806036,
0.1316209476309227,-0.005013528133766569,
0.1316708229426434,0.0031062850210035135,
0.13172069825436408,-0.00513520321869659,
0.1317705735660848,-0.01721927397426063,
0.13182044887780547,-0.0181607922708315,
0.13187032418952618,0.008444535318572957,
0.1319201995012469,-0.04022483596655993,
0.13197007481296757,0.0029846045567684274,
0.13201995012468828,0.003478934539853217,
0.13206982543640897,-0.004082586345992581,
0.13211970074812968,0.023898403350713276,
0.13216957605985039,-0.01847626189083451,
0.13221945137157107,-0.023867227578758414,
0.13226932668329178,0.011963296449495094,
0.13231920199501246,-0.001922030339165842,
0.13236907730673317,-0.01770898381651636,
0.13241895261845388,0.010091970027057551,
0.13246882793017456,0.011210265411259376,
0.13251870324189527,-0.03156874017535519,
0.13256857855361595,0.017054326198311747,
0.13261845386533666,-0.02719795759893535,
0.13266832917705737,0.009372500975350617,
0.13271820448877805,-0.01843255122755489,
0.13276807980049876,-0.0018884065673779216,
0.13281795511221944,-0.03722089204804477,
0.13286783042394015,-0.011066602026053994,
0.13291770573566083,-0.0005354332118990739,
0.13296758104738154,0.005002955501308021,
0.13301745635910225,0.0032929740123633765,
0.13306733167082294,-0.012065363744403463,
0.13311720698254365,-0.028954845674190266,
0.13316708229426433,-0.028111879829900842,
0.13321695760598504,-0.00047717178130233465,
0.13326683291770575,-0.01098961877391547,
0.13331670822942643,0.004774705590201576,
0.13336658354114714,-0.0040903950097705526,
0.13341645885286782,-0.016941782450853957,
0.13346633416458853,-0.021030486416579793,
0.13351620947630924,-0.021401031056075243,
0.13356608478802992,0.009663707481487881,
0.13361596009975063,0.011492392623952732,
0.1336658354114713,-0.026021152892916406,
0.13371571072319202,0.004179432105130283,
0.13376558603491273,0.022938638519949647,
0.1338154613466334,-0.05170573657527738,
0.13386533665835412,-0.026852897017098636,
0.1339152119700748,-0.003320805850545276,
0.13396508728179551,-0.026192473085449385,
0.1340149625935162,-0.004673215028279027,
0.1340648379052369,-0.005287101063275555,
0.13411471321695762,0.005783905060439442,
0.1341645885286783,-0.011135255976486026,
0.134214463840399,-0.01961008992462676,
0.1342643391521197,0.012860283648301883,
0.1343142144638404,0.009313422261601615,
0.1343640897755611,0.021054874979042605,
0.1344139650872818,-0.026073666773168195,
0.1344638403990025,-0.012402753261332247,
0.13451371571072318,-0.006423910122669031,
0.1345635910224439,-0.031937416559340875,
0.1346134663341646,-0.015771816056139334,
0.13466334164588528,0.02784021303014966,
0.134713216957606,0.01100196616617891,
0.13476309226932667,-0.018365394969752945,
0.13481296758104738,-0.00400111930825923,
0.1348628428927681,0.006237652642096345,
0.13491271820448877,0.003264219332738426,
0.13496259351620948,-0.01907043427478449,
0.13501246882793017,-0.019340311382593352,
0.13506234413965088,-0.026333892758261687,
0.13511221945137158,-0.013743274794238376,
0.13516209476309227,0.00435244168128378,
0.13521197007481298,-0.018471927973242097,
0.13526184538653366,-0.025208128940270413,
0.13531172069825437,0.0017457720047821344,
0.13536159600997505,0.002316512618082722,
0.13541147132169576,0.006480736624247908,
0.13546134663341647,-0.009666077403952774,
0.13551122194513715,-0.006987580693994978,
0.13556109725685786,-0.03496680960017384,
0.13561097256857854,-0.022181208478400865,
0.13566084788029925,0.0034358636939672265,
0.13571072319201996,0.000981875728603119,
0.13576059850374064,-0.023625384238872008,
0.13581047381546135,-0.02216196865485969,
0.13586034912718203,-0.002198163575909848,
0.13591022443890274,-0.00041244635663775266,
0.13596009975062345,-0.00479482009603146,
0.13600997506234414,-0.004315870171829968,
0.13605985037406484,0.01465356998102651,
0.13610972568578553,0.0028422374283255166,
0.13615960099750624,-0.02815297619772826,
0.13620947630922695,0.0008131739510269676,
0.13625935162094763,0.017905446703256996,
0.13630922693266834,0.004535610061486757,
0.13635910224438902,-0.015286310173847786,
0.13640897755610973,0.001747432586594249,
0.1364588528678304,-0.016123292283650642,
0.13650872817955112,-0.002024706817686672,
0.13655860349127183,0.001795507139242163,
0.1366084788029925,-0.0032124390472781745,
0.13665835411471322,-0.009711779388547937,
0.1367082294264339,-0.01845218518954491,
0.1367581047381546,0.01853279617768589,
0.13680798004987532,0.0017746468608399908,
0.136857855361596,-0.03648676883904397,
0.1369077306733167,-0.006604639181075084,
0.1369576059850374,-0.016624203198467215,
0.1370074812967581,-0.016393691761923526,
0.13705735660847881,-0.034529162886284166,
0.1371072319201995,-0.0002977624041493815,
0.1371571072319202,-0.0029540899219341237,
0.1372069825436409,-0.04154808865607276,
0.1372568578553616,-0.021142548432581572,
0.1373067331670823,-0.0023872555326341642,
0.137356608478803,-0.0034467315453681206,
0.1374064837905237,0.004779013926110071,
0.13745635910224438,-0.020478563220448984,
0.1375062344139651,0.004050795525044064,
0.1375561097256858,-0.015433743337040583,
0.13760598503740648,-0.009400786480841816,
0.1376558603491272,0.027938111249841614,
0.13770573566084787,0.005726950960014939,
0.13775561097256858,-0.006667987125444001,
0.13780548628428926,-0.0008106947581895479,
0.13785536159600997,-0.0008700096522777675,
0.13790523690773068,0.0048482397436602175,
0.13795511221945136,-0.014211570360021016,
0.13800498753117207,-0.00041329530581481774,
0.13805486284289276,-0.013258017926112687,
0.13810473815461347,0.0002507941529484636,
0.13815461346633418,0.015883889859774736,
0.13820448877805486,-0.016113792902972254,
0.13825436408977557,0.001143590427536389,
0.13830423940149625,0.013798688145672585,
0.13835411471321696,0.03662565756365821,
0.13840399002493767,0.017152084825804374,
0.13845386533665835,0.011618283780348704,
0.13850374064837906,-0.012339793554121441,
0.13855361596009974,0.014264770292438386,
0.13860349127182045,0.002369604076946004,
0.13865336658354116,-0.014196349039886178,
0.13870324189526184,-0.0037704898096354083,
0.13875311720698255,-0.028781592508227313,
0.13880299251870323,-0.007572896073958589,
0.13885286783042394,0.01884223450440062,
0.13890274314214462,0.018355612431623244,
0.13895261845386533,0.010941495204512916,
0.13900249376558604,0.006792615636889744,
0.13905236907730673,-0.010328465448383405,
0.13910224438902744,-0.022771176523980002,
0.13915211970074812,0.028614141605921784,
0.13920199501246883,-0.0041491509976881915,
0.13925187032418954,-0.003856969575401422,
0.13930174563591022,-0.02153429387462767,
0.13935162094763093,0.00821119156315672,
0.1394014962593516,0.024515198519413847,
0.13945137157107232,0.012283453541338411,
0.13950124688279303,0.008704510882636438,
0.1395511221945137,-0.004300339194446385,
0.13960099750623442,0.040951124793726576,
0.1396508728179551,0.024657550986494844,
0.1397007481296758,0.015006928116546497,
0.13975062344139652,0.006203675276436267,
0.1398004987531172,0.0031464470363885043,
0.1398503740648379,-0.0031430366714776184,
0.1399002493765586,0.020894344168323774,
0.1399501246882793,0.04032746435273164,
0.14,0.02281989423674268,
0.1400498753117207,0.012039125879776067,
0.1400997506234414,0.018877049231755073,
0.1401496259351621,0.006688581740451434,
0.1401995012468828,0.0008073977180342602,
0.14024937655860348,0.002465468778810478,
0.1402992518703242,0.015504520172685714,
0.1403491271820449,0.021566577196482632,
0.14039900249376558,0.01851698617376051,
0.1404488778054863,0.010383576886425425,
0.14049875311720697,0.001507682247479174,
0.14054862842892768,0.016208411635617443,
0.1405985037406484,-0.010924191245797557,
0.14064837905236907,0.01295669932674525,
0.14069825436408978,0.0223433289665046,
0.14074812967581046,-0.007795295944815112,
0.14079800498753117,0.0029846220411046624,
0.14084788029925188,0.024430378132007092,
0.14089775561097256,0.01332344475484905,
0.14094763092269327,0.011179129861815337,
0.14099750623441396,0.03344744748943332,
0.14104738154613466,0.0011132830828274008,
0.14109725685785537,0.045903531017489736,
0.14114713216957606,0.009049204699237935,
0.14119700748129677,0.005867089743994641,
0.14124688279301745,0.018877840911585533,
0.14129675810473816,0.03636733273330192,
0.14134663341645887,0.01363131557305149,
