time,amplitude,label
0.0,0.005484225115479113,
4.987531172069826e-05,0.00915300902672519,
9.975062344139652e-05,0.009126295554008018,
0.00014962593516209475,-0.006192659388780896,
0.00019950124688279303,-0.030086184290435775,
0.00024937655860349125,0.0012464177489177402,
0.0002992518703241895,0.0068882589587203405,
0.00034912718204488776,-0.00781251913521191,
0.00039900249376558606,0.00044681933091785946,
0.0004488778054862843,0.010610769645254604,
0.0004987531172069825,0.004802074167325115,
0.0005486284289276808,-0.03745045629543383,
0.000598503740648379,-0.007055346011053802,
0.0006483790523690773,-0.007275626085949513,
0.0006982543640897755,-0.01853460495691882,
0.0007481296758104738,-0.0018099608035071345,
0.0007980049875311721,-0.0010669914822903728,
0.0008478802992518703,-0.0043854793321376085,
0.0008977556109725686,0.021627617116156538,
0.0009476309226932668,0.0019340969029633748,
0.000997506234413965,-0.0053241740385153455,
0.0010473815461346633,-0.0006073005554541569,
0.0010972568578553616,-0.04451413712673924,
0.00114713216957606,-0.006956700601452834,
0.001197007481296758,-0.0060698588739514885,
0.0012468827930174563,-0.013513865986472917,
0.0012967581047381546,0.0016091226859728837,
0.001346633416458853,0.01109321025959629,
0.001396508728179551,0.0016069024765634219,
0.0014463840399002493,-0.019274768720036823,
0.0014962593516209476,0.000768755072109475,
0.001546134663341646,-0.0007466869666491842,
0.0015960099750623442,0.007398408763547269,
0.0016458852867830423,0.0021558467097354695,
0.0016957605985037406,-0.016465377333915586,
0.001745635910224439,-0.01497398772720478,
0.0017955112219451373,-0.012509972399900492,
0.0018453865336658353,-0.023965394831890294,
0.0018952618453865336,-0.023700311876141335,
0.001945137157107232,0.005259743529367431,
0.00199501246882793,-0.025108242662395815,
0.0020448877805486283,-0.0329398549215177,
0.0020947630922693266,-0.02852784771495187,
0.002144638403990025,-0.016401390690150917,
0.0021945137157107233,0.003909680283791482,
0.0022443890274314216,-0.013122288563599304,
0.00229426433915212,-0.018710432236075304,
0.0023441396508728177,-0.0038850391626138016,
0.002394014962593516,0.0027415101689258637,
0.0024438902743142144,-0.020141029458363074,
0.0024937655860349127,-0.014110446432559438,
0.002543640897755611,-0.018124697999208444,
0.0025935162094763093,0.00371652008323938,
0.0026433915211970076,-0.02361003604391726,
0.002693266832917706,-0.018873376135022882,
0.002743142144638404,-0.026241163213252074,
0.002793017456359102,-0.012585693463404532,
0.0028428927680798004,-0.013599030236611777,
0.0028927680798004987,-0.02975774979064489,
0.002942643391521197,-0.011132264501860736,
0.0029925187032418953,0.0047912669223853285,
0.0030423940149625936,-0.005115626163120146,
0.003092269326683292,-0.007192845459374327,
0.00314214463840399,0.0008514868095408981,
0.0031920199501246885,-0.02692065792630581,
0.0032418952618453864,-0.021682827844562012,
0.0032917705735660847,-0.00026153357684830826,
0.003341645885286783,-0.02666350122172846,
0.0033915211970074813,0.008673155942717635,
0.0034413965087281796,0.0005400952401860455,
0.003491271820448878,-0.026182924166753167,
0.003541147132169576,-0.0118181651290366,
0.0035910224438902745,-0.00840480244516966,
0.0036408977556109724,-0.005818386658482996,
0.0036907730673316707,-0.004850373887935529,
0.003740648379052369,-0.0013473797100841574,
0.0037905236907730673,-0.02328730104199935,
0.0038403990024937656,-0.00014864829989314973,
0.003890274314214464,-0.029281157085238853,
0.003940149625935162,-0.03661434722296582,
0.00399002493765586,-0.011138124109984968,
0.004039900249376558,-0.007223042455161369,
0.004089775561097257,0.0037309610315186675,
0.004139650872817955,-0.02308655040631142,
0.004189526184538653,-0.01375564579180585,
0.004239401496259352,-0.012951857505498517,
0.00428927680798005,-0.0035922209647395262,
0.004339152119700748,-0.03888199321969813,
0.0043890274314214465,-0.034181437878408175,
0.004438902743142145,-0.023017309506892247,
0.004488778054862843,-0.014473628088168232,
0.004538653366583541,-0.008320071408810591,
0.00458852867830424,-0.011246314271635546,
0.004638403990024938,-0.013530594779198487,
0.0046882793017456355,-0.01876625363454268,
0.004738154613466334,-0.01707973999438018,
0.004788029925187032,-0.01709995589705456,
0.00483790523690773,-0.04030028051840609,
0.004887780548628429,-0.024221142770029104,
0.004937655860349127,-0.017656374418844805,
0.004987531172069825,-0.012154731517031666,
0.005037406483790524,-0.017067757904232084,
0.005087281795511222,-0.011219508806437241,
0.00513715710723192,-0.013216042720009563,
0.0051870324189526185,-0.03138096776172472,
0.005236907730673317,-0.009490251024895285,
0.005286783042394015,-0.012326380293639829,
0.0053366583541147134,-0.012866622119081775,
0.005386533665835412,-0.01805845900704279,
0.00543640897755611,-0.03477783612171709,
0.005486284289276808,-0.010292328475766842,
0.005536159600997507,-0.027597310019120292,
0.005586034912718204,0.007692319800154064,
0.005635910224438902,-0.014337221540845869,
0.005685785536159601,-0.020426161816341024,
0.005735660847880299,-0.023872113999572387,
0.005785536159600997,-0.0036174197825492166,
0.005835411471321696,-0.017177090031426142,
0.005885286783042394,-0.014589371918969871,
0.005935162094763092,0.0005269050640641232,
0.0059850374064837905,-0.007854837265310898,
0.006034912718204489,-0.0016356159565899288,
0.006084788029925187,-0.021054158318338193,
0.0061346633416458855,-0.03758684620554725,
0.006184538653366584,-0.05344662440678898,
0.006234413965087282,-0.0040616335057221745,
0.00628428927680798,-0.013711434774723034,
0.006334164588528679,-0.016338647382070092,
0.006384039900249377,-0.018225394672061978,
0.006433915211970074,-0.012794654274698657,
0.006483790523690773,-0.008129341077718837,
0.006533665835411471,-0.032840896069978115,
0.006583541147132169,-0.011565085721635107,
0.006633416458852868,-0.002510157826340141,
0.006683291770573566,-0.04272806150767968,
0.006733167082294264,-0.006087245086909814,
0.0067830423940149626,-0.0267132031500183,
0.006832917705735661,-0.028228527123418175,
0.006882793017456359,-0.019563575873935594,
0.0069326683291770575,-0.012505786984563004,
0.006982543640897756,-0.04080660563499444,
0.007032418952618454,-0.00427885304883225,
0.007082294264339152,-0.023520123173491402,
0.007132169576059851,-0.014860808383396033,
0.007182044887780549,-0.0099899467822261,
0.007231920199501247,-0.030453456449522735,
0.007281795511221945,-0.01771941337090425,
0.007331670822942643,-0.013634447418097695,
0.007381546134663341,-0.007263407936588907,
0.00743142144638404,-0.004076323062673718,
0.007481296758104738,-0.024647071676110015,
0.007531172069825436,0.0007374267960715015,
0.007581047381546135,-0.02756427845581666,
0.007630922693266833,-0.025276312082496786,
0.007680798004987531,-0.022924117911370077,
0.0077306733167082295,-0.011832361449702802,
0.007780548628428928,-0.013937465432487361,
0.007830423940149626,0.00040663842091301534,
0.007880299251870324,0.0029140548082042545,
0.007930174563591023,-0.03273077615085125,
0.00798004987531172,-0.015567093062383384,
0.00802992518703242,-0.014813927777879796,
0.008079800498753117,-0.005881797841255009,
0.008129675810473816,-0.03639300310834492,
0.008179551122194513,-0.004467279295600708,
0.008229426433915213,-0.006574785741304297,
0.00827930174563591,0.002946538796626711,
0.00832917705735661,-0.00700453064920657,
0.008379052369077307,-0.027682751385606778,
0.008428927680798006,-0.02310556314480984,
0.008478802992518703,-0.01100402561302786,
0.0085286783042394,0.010449712494778832,
0.0085785536159601,-0.027641972746348067,
0.008628428927680797,-0.005598543310543835,
0.008678304239401496,0.002535373713999858,
0.008728179551122194,-0.01867509048511435,
0.008778054862842893,-0.021604243072142912,
0.00882793017456359,0.01933188318057115,
0.00887780548628429,-0.028271043675773558,
0.008927680798004987,-0.0025040154823441517,
0.008977556109725686,0.014527485564481041,
0.009027431421446384,-0.022047960193402154,
0.009077306733167083,-0.031345863527888894,
0.00912718204488778,0.004477569091511409,
0.00917705735660848,-0.042330207072596764,
0.009226932668329177,-0.001652024849682728,
0.009276807980049876,0.019555375807803768,
0.009326683291770574,0.004256714518455409,
0.009376558603491271,-0.005186046397426672,
0.00942643391521197,-0.0018106132039951593,
0.009476309226932668,-0.014317194617210276,
0.009526184538653367,-0.006658001964285367,
0.009576059850374064,-0.008060040406214436,
0.009625935162094763,-0.010074648659259156,
0.00967581047381546,-0.01474395963173456,
0.00972568578553616,-0.019440814090285304,
0.009775561097256857,0.0067058011224084,
0.009825436408977557,0.0138962131344204,
0.009875311720698254,0.0180646733527321,
0.009925187032418953,0.009140978375796692,
0.00997506234413965,-0.001515706114230451,
0.01002493765586035,0.02885522679334159,
0.010074812967581047,-0.0037732341091290074,
0.010124688279301746,-0.012083982408201764,
0.010174563591022444,-0.01207996990136688,
0.010224438902743141,-0.004441032129842279,
0.01027431421446384,0.001864710471492732,
0.010324189526184538,0.002588890957731357,
0.010374064837905237,-0.01993523967402397,
0.010423940149625935,-0.0066338711360208955,
0.010473815461346634,-0.011786128877550093,
0.010523690773067331,-0.0036402815360227704,
0.01057356608478803,0.002387366774392909,
0.010623441396508728,0.002915212166351643,
0.010673316708229427,-0.005389666789081732,
0.010723192019950124,0.013575597022072124,
0.010773067331670824,-0.009353502949361504,
0.010822942643391521,-0.003657852548095211,
0.01087281795511222,0.021154144513772333,
0.010922693266832918,0.01134394373468069,
0.010972568578553617,0.021730145969728852,
0.011022443890274314,0.010279490276962514,
0.011072319201995013,-0.009972031802327447,
0.01112219451371571,0.024742489112451464,
0.011172069825436408,0.016730634634362723,
0.011221945137157107,0.0047370150151683915,
0.011271820448877805,-0.002362269871427015,
0.011321695760598504,0.010465893495966732,
0.011371571072319201,0.017194364815394724,
0.0114214463840399,0.014274877421513912,
0.011471321695760598,0.016975051245629556,
0.011521197007481297,0.002854818623775475,
0.011571072319201995,0.015179331785547014,
0.011620947630922694,0.0037015606315658027,
0.011670822942643391,0.016244028981806047,
0.01172069825436409,-0.002941698724874278,
0.011770573566084788,0.0010027330743018143,
0.011820448877805487,0.005125960086925505,
0.011870324189526184,0.023929284583998733,
0.011920199501246884,-0.004985751284201581,
0.011970074812967581,0.02517006902700471,
0.012019950124688279,-0.023014050003934125,
0.012069825436408978,0.008557820527119531,
0.012119700748129675,0.017764102419252775,
0.012169576059850374,-0.004952644009467022,
0.012219451371571072,0.011036426084845827,
0.012269326683291771,0.00021644300373672813,
0.012319201995012468,-0.007130511692539334,
0.012369077306733168,0.005596330298845608,
0.012418952618453865,0.03338291825376189,
0.012468827930174564,0.008349216748277459,
0.012518703241895262,0.01254226508926331,
0.01256857855361596,0.0076274097395767,
0.012618453865336658,0.03219143418565649,
0.012668329177057357,-0.0027907124514610793,
0.012718204488778055,0.0016136048618081832,
0.012768079800498754,0.009504626960760171,
0.012817955112219451,0.0009069612429648474,
0.012867830423940149,0.035678099840135834,
0.012917705735660848,-0.007059928593305516,
0.012967581047381545,0.010616828876684073,
0.013017456359102245,0.0339047883438173,
0.013067331670822942,0.023443330893356384,
0.013117206982543641,-0.0009619679556320503,
0.013167082294264339,-0.010732970254128026,
0.013216957605985038,0.02947713955788406,
0.013266832917705735,0.0196034026437702,
0.013316708229426434,0.018179420084269003,
0.013366583541147132,0.019880834763234382,
0.013416458852867831,0.034173682250945615,
0.013466334164588529,0.009400823551866489,
0.013516209476309228,0.034423363986823746,
0.013566084788029925,0.023944075989374924,
0.013615960099750624,0.030175894745546723,
0.013665835411471322,0.011848674788457862,
0.01371571072319202,0.016901164905857385,
0.013765586034912718,0.015640056838257397,
0.013815461346633416,0.005997751685166849,
0.013865336658354115,0.0188664975197553,
0.013915211970074812,-0.013937625264149142,
0.013965087281795512,0.022728504930965888,
0.014014962593516209,0.02777581458510079,
0.014064837905236908,0.016565974457663033,
0.014114713216957606,0.03132188003683891,
0.014164588528678305,0.037652308407025145,
0.014214463840399002,0.026786211430845627,
0.014264339152119701,0.03066140933352418,
0.014314214463840399,0.010179348974279457,
0.014364089775561098,0.010235604617200005,
0.014413965087281795,0.02109899250804375,
0.014463840399002495,0.013068000450366773,
0.014513715710723192,0.03308495929479307,
0.01456359102244389,0.01334471837045758,
0.014613466334164589,0.03827332399011599,
0.014663341645885286,0.019585758024152248,
0.014713216957605985,0.0069261636015242115,
0.014763092269326683,0.015069742986884377,
0.014812967581047382,0.04665239399387327,
0.01486284289276808,0.0041113745732849726,
0.014912718204488778,0.002633701295396248,
0.014962593516209476,0.028950406933748084,
0.015012468827930175,0.010878532786882571,
0.015062344139650873,0.023246602469189047,
0.015112219451371572,0.00315101725797564,
0.01516209476309227,0.02158550765256597,
0.015211970074812968,0.01866959512902199,
0.015261845386533666,0.034508894397569614,
0.015311720698254365,0.003894915442889453,
0.015361596009975062,0.043928613497383445,
0.01541147132169576,0.03737546335419618,
0.015461346633416459,0.04590886400956093,
0.015511221945137156,0.003784040765507004,
0.015561097256857856,0.03430680349053068,
0.015610972568578553,0.008462066466518132,
0.015660847880299252,0.033671767933936884,
0.01571072319201995,0.05594259019376302,
0.015760598503740647,0.010926546867711173,
0.015810473815461346,0.031212373705552514,
0.015860349127182045,0.02553036289206606,
0.015910224438902745,0.010292901836594218,
0.01596009975062344,0.029756292440275323,
0.01600997506234414,0.028975429067135315,
0.01605985037406484,0.04648993206069392,
0.016109725685785538,0.02692049977591536,
0.016159600997506234,-0.010268478134006252,
0.016209476309226933,0.02984136863163178,
0.016259351620947632,0.031839217418318466,
0.016309226932668328,0.018524399044340258,
0.016359102244389027,0.013815908529061628,
0.016408977556109726,0.030291676714518472,
0.016458852867830425,0.01599287377795895,
0.01650872817955112,0.024793600105335756,
0.01655860349127182,0.021159210177885662,
0.01660847880299252,0.012661056929992469,
0.01665835411471322,0.04265566120366095,
0.016708229426433914,0.03193548192305334,
0.016758104738154613,0.033597551722595556,
0.016807980049875312,0.0522544666497328,
0.01685785536159601,0.008026419661995191,
0.016907730673316707,0.02997828108942931,
0.016957605985037406,0.014164983120156932,
0.017007481296758106,0.036667963244052026,
0.0170573566084788,0.009825594036141434,
0.0171072319201995,0.0002231583379301641,
0.0171571072319202,0.0043023323922251645,
0.0172069825436409,0.021674511529012553,
0.017256857855361595,0.018142069907446927,
0.017306733167082294,0.04388518418629993,
0.017356608478802993,0.004861471559350581,
0.017406483790523692,0.03870952257538304,
0.017456359102244388,0.0046734788283015125,
0.017506234413965087,0.008479634776139583,
0.017556109725685786,-0.01877669963008652,
0.017605985037406485,0.04740212365908769,
0.01765586034912718,0.030856467027297177,
0.01770573566084788,-0.0035955575125966033,
0.01775561097256858,0.013931598734867994,
0.01780548628428928,-0.0019404748494957595,
0.017855361596009974,0.02192034391187464,
0.017905236907730673,0.03165581491153462,
0.017955112219451373,0.03173350173931032,
0.018004987531172068,-0.007957147780862595,
0.018054862842892767,0.013052596273872829,
0.018104738154613467,-0.019386164721742115,
0.018154613466334166,0.012607227074335606,
0.01820448877805486,0.03555720853143565,
0.01825436408977556,0.022398386229743734,
0.01830423940149626,0.025501401752410138,
0.01835411471321696,0.034238493287123195,
0.018403990024937655,-0.002830368860535039,
0.018453865336658354,0.0018456830630811695,
0.018503740648379053,-0.00929834786529071,
0.018553615960099752,0.018986261487090435,
0.018603491271820448,0.02561819914351639,
0.018653366583541147,0.009632587150366365,
0.018703241895261846,0.010804294649406139,
0.018753117206982542,0.0002824352450579281,
0.01880299251870324,-0.021916879162700843,
0.01885286783042394,0.002039496771646521,
0.01890274314214464,0.006507174006472319,
0.018952618453865335,0.005549709752320204,
0.019002493765586034,0.0026131556246116313,
0.019052369077306733,-0.015777624768662117,
0.019102244389027433,0.015517251196237834,
0.01915211970074813,0.02202006899085754,
0.019201995012468828,0.007396238242772565,
0.019251870324189527,0.012795922288781202,
0.019301745635910226,0.011668960660503849,
0.01935162094763092,-0.00010815115369361937,
0.01940149625935162,0.01027366407673841,
0.01945137157107232,0.009089493832931728,
0.01950124688279302,0.01726620886618639,
0.019551122194513715,-0.026654637956130288,
0.019600997506234414,-0.009408547763313749,
0.019650872817955113,-0.0032188375350834216,
0.01970074812967581,0.01776405090508608,
0.019750623441396508,0.017088676405949715,
0.019800498753117207,0.03874833875809017,
0.019850374064837906,0.02481930880126082,
0.019900249376558602,-0.011304287091893848,
0.0199501246882793,-0.0012975632451608758,
0.02,0.05414004133180507,
0.0200498753117207,0.0015763000897670355,
0.020099750623441395,0.012766665850870548,
0.020149625935162094,-0.008305195953960742,
0.020199501246882794,0.047931055952780154,
0.020249376558603493,0.006944679332400969,
0.02029925187032419,0.0009368310806811822,
0.020349127182044888,-0.011884123144321572,
0.020399002493765587,-0.012085504846182907,
0.020448877805486283,-0.005323527128659567,
0.02049875311720698,-0.0111059440782813,
0.02054862842892768,-0.0005754032481830444,
0.02059850374064838,0.003932473285097758,
0.020648379052369076,-0.0022517016907724918,
0.020698254364089775,0.013244375685660486,
0.020748129675810474,-0.016132788156979924,
0.020798004987531173,-0.0029782079918985144,
0.02084788029925187,0.01841782909668375,
0.020897755610972568,-0.01167849205090836,
0.020947630922693267,8.208657395791059e-05,
0.020997506234413967,-0.010277655349999734,
0.021047381546134662,-0.015605201059282045,
0.02109725685785536,0.03517221302359661,
0.02114713216957606,-0.014525466211837729,
0.02119700748129676,0.003871716406754167,
0.021246882793017455,0.006364930819555313,
0.021296758104738155,-0.0062145279333419325,
0.021346633416458854,0.004867893210363147,
0.02139650872817955,-0.023096052186133375,
0.02144638403990025,0.0075079551399923426,
0.021496259351620948,-0.031557806090817604,
0.021546134663341647,0.018306412779354554,
0.021596009975062343,-0.017473642957898966,
0.021645885286783042,-0.0024183732881523532,
0.02169576059850374,0.018867944508613115,
0.02174563591022444,0.005504015921207609,
0.021795511221945136,0.0046059192829683016,
0.021845386533665835,-0.01977391476725467,
0.021895261845386534,-0.0010285323622924551,
0.021945137157107233,-0.0009562608309697327,
0.02199501246882793,-0.006403451519485258,
0.02204488778054863,-0.005218494448468888,
0.022094763092269327,-0.00019040615048858574,
0.022144638403990027,0.004855959590347276,
0.022194513715710722,-0.024215723176478993,
0.02224438902743142,-0.04370105759328148,
0.02229426433915212,-0.022121555493367098,
0.022344139650872816,-0.004900297424650067,
0.022394014962593516,0.003321091592667979,
0.022443890274314215,-0.009225166516799941,
0.022493765586034914,0.0034976862239355627,
0.02254364089775561,-0.00516574198407053,
0.02259351620947631,0.008711639953837032,
0.022643391521197008,-0.0021804405671321473,
0.022693266832917707,-0.032802124862800756,
0.022743142144638403,-0.025508432630813926,
0.022793017456359102,0.005205226082819517,
0.0228428927680798,-0.011921176230616769,
0.0228927680798005,-0.022942007825655426,
0.022942643391521196,-0.02123698373335004,
0.022992518703241895,-0.03388198520271768,
0.023042394014962594,-0.019002348315348326,
0.02309226932668329,0.01263786129745063,
0.02314214463840399,-0.02421692010068284,
0.02319201995012469,0.0013348883512232755,
0.023241895261845388,-0.011379414445468479,
0.023291770573566083,-0.030796058901647213,
0.023341645885286783,0.0007059820548331978,
0.02339152119700748,-0.006490663766782867,
0.02344139650872818,-0.014794451242147278,
0.023491271820448877,-0.021966564525503,
0.023541147132169576,-0.025783192459119197,
0.023591022443890275,0.0029776818604753744,
0.023640897755610974,-0.03211216367169281,
0.02369077306733167,-0.00018217134411873184,
0.02374064837905237,-0.010067379831665106,
0.023790523690773068,-0.010088322533857722,
0.023840399002493767,0.019544308866792703,
0.023890274314214463,0.013539944389846407,
0.023940149625935162,0.002912850982031562,
0.02399002493765586,-0.03411445452735456,
0.024039900249376557,-0.018073053977256247,
0.024089775561097256,-0.03294763906076229,
0.024139650872817955,-0.0038686861382926825,
0.024189526184538655,-0.005100406735266898,
0.02423940149625935,-0.04475363437983679,
0.02428927680798005,-0.03521630352135484,
0.02433915211970075,-0.00872565941360327,
0.024389027431421448,-0.021717849213291174,
0.024438902743142144,-0.01647802892164759,
0.024488778054862843,-0.005289119082797779,
0.024538653366583542,0.008568232939347102,
0.02458852867830424,-0.035619345196096816,
0.024638403990024937,-0.012669273248165362,
0.024688279301745636,-0.016975474085073463,
0.024738154613466335,-0.009253650961382275,
0.02478802992518703,-0.010595500326602024,
0.02483790523690773,-0.02291171610217267,
0.02488778054862843,-0.015539032992963933,
0.02493765586034913,-0.011015996028145562,
0.024987531172069824,-0.01759725224771991,
0.025037406483790523,-0.010895347417511338,
0.025087281795511222,-0.0012423800069588861,
0.02513715710723192,-0.00805695216658488,
0.025187032418952617,0.0012025787421663901,
0.025236907730673316,-0.007787614213646923,
0.025286783042394016,-0.026160785807875377,
0.025336658354114715,-0.010209101918086822,
0.02538653366583541,-0.007635870489365655,
0.02543640897755611,-0.02936621476188834,
0.02548628428927681,-0.03227419908707212,
0.025536159600997508,-0.021784236006222136,
0.025586034912718204,-0.03721377119815195,
0.025635910224438903,-0.025374616340660884,
0.025685785536159602,-0.001995305245323424,
0.025735660847880298,-0.01990980594817323,
0.025785536159600997,-0.030263794749054607,
0.025835411471321696,-0.025164461959256788,
0.025885286783042395,-0.029246764323577944,
0.02593516209476309,-0.008761343089161325,
0.02598503740648379,-0.02872447485769306,
0.02603491271820449,-0.010414192138284123,
0.02608478802992519,-0.02781096653761806,
0.026134663341645884,-0.06009344069101673,
0.026184538653366583,-0.009414746154998948,
0.026234413965087282,-0.05366596704223902,
0.02628428927680798,-0.01476148855468702,
0.026334164588528677,-0.012676909641128695,
0.026384039900249377,-0.02311508323762353,
0.026433915211970076,-0.030938956272086614,
0.02648379052369077,0.0222045508624559,
0.02653366583541147,-0.0169507774916459,
0.02658354114713217,-0.028679522047749612,
0.02663341645885287,-0.036568674726322206,
0.026683291770573565,-0.022912375076976937,
0.026733167082294264,-0.02580988398076791,
0.026783042394014963,0.005992020160590531,
0.026832917705735662,-0.026353157026841212,
0.026882793017456358,-0.021362664290356423,
0.026932668329177057,-0.015942238861915044,
0.026982543640897756,0.01805236515547505,
0.027032418952618455,-0.012405400388542553,
0.02708229426433915,-0.01539967480089353,
0.02713216957605985,-0.00464994545609481,
0.02718204488778055,-0.026360852184631155,
0.02723192019950125,-0.03580705808095693,
0.027281795511221944,0.00503148178469754,
0.027331670822942643,-0.007560140718428029,
0.027381546134663343,-0.018208954722999993,
0.02743142144638404,-0.03174004655120041,
0.027481296758104738,-0.000354687784236413,
0.027531172069825437,-0.029260335022417632,
0.027581047381546136,-0.02861727841960493,
0.02763092269326683,-0.03230027137627427,
0.02768079800498753,0.0006503948320151689,
0.02773067331670823,0.014972290719638303,
0.02778054862842893,-0.014416499362605924,
0.027830423940149625,-0.008941920632659951,
0.027880299251870324,-0.003838494164516499,
0.027930174563591023,-0.025844556364320766,
0.027980049875311722,-0.037183265972072256,
0.028029925187032418,-0.048070055607977766,
0.028079800498753117,-0.02863295310981951,
0.028129675810473816,-0.014938297390611525,
0.028179551122194512,0.004239009126458162,
0.02822942643391521,-0.0005997189637033887,
0.02827930174563591,-0.01971324128398663,
0.02832917705735661,-0.013276911334445338,
0.028379052369077305,-0.025869489925282103,
0.028428927680798004,-0.02004082104710113,
0.028478802992518704,-0.012036213604780755,
0.028528678304239403,-0.007087115728095734,
0.0285785536159601,-0.01802339220051083,
0.028628428927680798,-0.005365164805893794,
0.028678304239401497,-0.010480529337364672,
0.028728179551122196,-0.006323453343269588,
0.02877805486284289,0.022766474800624645,
0.02882793017456359,-0.016315933428855886,
0.02887780548628429,0.00431243410580357,
0.02892768079800499,0.00880835091270556,
0.028977556109725685,0.0025206129497581256,
0.029027431421446384,0.002976946233043642,
0.029077306733167083,0.011895886869797093,
0.02912718204488778,-0.010587980772292498,
0.029177057356608478,-0.030580625555182046,
0.029226932668329177,-0.01669154706810418,
0.029276807980049877,-0.010435614187440007,
0.029326683291770572,-0.018082335791839786,
0.02937655860349127,-0.02231882180928727,
0.02942643391521197,-0.005736836703256703,
0.02947630922693267,0.002897233339596488,
0.029526184538653365,0.024813511992580306,
0.029576059850374065,-0.021471051198765172,
0.029625935162094764,0.015671684787848018,
0.029675810473815463,0.0035676883640668815,
0.02972568578553616,-0.013724398964879174,
0.029775561097256858,0.0007140324571881401,
0.029825436408977557,-0.019506689082210475,
0.029875311720698253,-0.01913495471397149,
0.029925187032418952,0.016286679182874207,
0.02997506234413965,0.022703598281391152,
0.03002493765586035,0.01612836293603509,
0.030074812967581046,-0.007835053187487756,
0.030124688279301745,-0.013125170543388891,
0.030174563591022444,-0.010988958058220024,
0.030224438902743143,0.016838333707119655,
0.03027431421446384,0.0015026419474959414,
0.03032418952618454,-0.00551699497887459,
0.030374064837905237,-0.019273615194217456,
0.030423940149625937,-0.011405545408368554,
0.030473815461346632,-0.011894855251980745,
0.03052369077306733,-0.0028778204635004317,
0.03057356608478803,0.003163390056661792,
0.03062344139650873,-0.000516003716226432,
0.030673316708229426,-0.008638252502495405,
0.030723192019950125,0.00303025044577222,
0.030773067331670824,0.017726693743325157,
0.03082294264339152,0.004930415482686194,
0.03087281795511222,0.03057856973716372,
0.030922693266832918,0.03542870277399677,
0.030972568578553617,0.003070468972885927,
0.031022443890274313,-0.0039684498564014625,
0.031072319201995012,0.010769401139334034,
0.03112219451371571,-0.004246817628914552,
0.03117206982543641,-0.0035220607559410394,
0.031221945137157106,0.01863385028585023,
0.03127182044887781,0.01658018537091984,
0.031321695760598504,0.00606688796491597,
0.0313715710723192,0.011380592208647546,
0.0314214463840399,0.004408960637506548,
0.0314713216957606,0.01047729651095191,
0.031521197007481294,-0.013175377192841484,
0.031571072319202,0.027010252249530853,
0.03162094763092269,0.008506463324781239,
0.03167082294264339,0.002138843810954777,
0.03172069825436409,0.015843822958644005,
0.03177057356608479,-0.0039052835732342663,
0.03182044887780549,0.028395238625063705,
0.031870324189526185,-0.0095598056918575,
0.03192019950124688,0.02277632016338358,
0.03197007481296758,0.03229565175893015,
0.03201995012468828,0.004338726862236121,
0.032069825436408975,-0.004414372568590003,
0.03211970074812968,0.015521730562870727,
0.03216957605985037,-0.009070091046162765,
0.032219451371571076,0.00468989076801609,
0.03226932668329177,0.007102478474745672,
0.03231920199501247,0.008747187848310323,
0.03236907730673317,0.038713069490385305,
0.032418952618453865,0.038761204336691474,
0.03246882793017456,0.016817439060744926,
0.032518703241895264,-0.006358442479924698,
0.03256857855361596,0.027579032761864648,
0.032618453865336655,-0.001139057636476537,
0.03266832917705736,0.04301843973917515,
0.032718204488778053,-0.0019500876370947082,
0.032768079800498756,0.01890566636803207,
0.03281795511221945,0.0004956910067881459,
0.03286783042394015,0.010226286152715432,
0.03291770573566085,0.003327674767253366,
0.032967581047381546,0.0062006762349274686,
0.03301745635910224,0.004049541171873948,
0.033067331670822944,0.023825620312090075,
0.03311720698254364,0.025719863081459928,
0.03316708229426434,0.029173171915012827,
0.03321695760598504,0.013179230969423021,
0.033266832917705734,0.03762772375637133,
0.03331670822942644,0.030364071925898684,
0.03336658354114713,0.011583783620784976,
0.03341645885286783,0.042131480774226265,
0.03346633416458853,0.018239208463648342,
0.033516209476309226,0.03132334292847499,
0.03356608478802992,0.024759846930145775,
0.033615960099750625,0.03352753301702,
0.03366583541147132,-0.001997394303741018,
0.03371571072319202,0.01896408428038438,
0.03376558603491272,0.008720543063080146,
0.033815461346633414,0.045157534730396236,
0.03386533665835412,0.03692893198738115,
0.03391521197007481,0.03561989965564112,
0.03396508728179551,0.03571630271461795,
0.03401496259351621,0.052917929081838996,
0.03406483790523691,0.009856958544673137,
0.0341147132169576,0.005300382672881621,
0.034164588528678305,0.008233459577035513,
0.034214463840399,0.01806450361782569,
0.034264339152119704,0.02746213379270582,
0.0343142144638404,0.029960198893610866,
0.034364089775561095,0.0006450229110750091,
0.0344139650872818,0.0187929690439801,
0.03446384039900249,0.015873329944021436,
0.03451371571072319,0.03984871188518946,
0.03456359102244389,0.02524187913745152,
0.03461346633416459,0.03807836042831521,
0.03466334164588529,0.025766583392438473,
0.034713216957605986,0.023226880434191022,
0.03476309226932668,0.02845198551318417,
0.034812967581047384,0.012601181506626943,
0.03486284289276808,0.04537126622744718,
0.034912718204488775,0.005996221433878436,
0.03496259351620948,-0.006749120140374206,
0.035012468827930174,0.02990424357512389,
0.03506234413965087,0.031800986246399154,
0.03511221945137157,0.02601011741090375,
0.03516209476309227,0.04151336130241003,
0.03521197007481297,0.022244426346528734,
0.035261845386533666,0.023456052706659344,
0.03531172069825436,0.02568746086771502,
0.035361596009975065,0.027893390721652565,
0.03541147132169576,0.021907936440782337,
0.035461346633416456,0.023777260911443727,
0.03551122194513716,0.035747593111608474,
0.035561097256857854,0.042240326980749525,
0.03561097256857856,0.027303525285425692,
0.03566084788029925,0.033952782859804895,
0.03571072319201995,0.04037581161650879,
0.03576059850374065,0.04496873585066151,
0.03581047381546135,0.028487245729560767,
0.03586034912718204,0.021224269728661503,
0.035910224438902745,0.04048026986997306,
0.03596009975062344,0.02633386185662518,
0.036009975062344136,0.006972975521704925,
0.03605985037406484,0.0144367074767111,
0.036109725685785535,0.03007633963405189,
0.03615960099750624,0.047902054953320755,
0.03620947630922693,0.005290012825209189,
0.03625935162094763,0.009704720271127058,
0.03630922693266833,0.020661506544011308,
0.03635910224438903,0.03291197577077698,
0.03640897755610972,0.03633320952163936,
0.036458852867830426,0.016976947288876235,
0.03650872817955112,0.04475711471285722,
0.036558603491271824,0.03511030748323682,
0.03660847880299252,0.011082188132882708,
0.036658354114713215,0.015576828964960378,
0.03670822942643392,0.02084565525245782,
0.036758104738154614,-0.002581262858856327,
0.03680798004987531,0.01291922399019568,
0.03685785536159601,0.020246113867909733,
0.03690773067331671,0.03059449513708722,
0.0369576059850374,0.025951503852758694,
0.037007481296758106,-0.004397057745008225,
0.0370573566084788,0.015388972398546662,
0.037107231920199504,0.007576346393581991,
0.0371571072319202,0.04818248629794135,
0.037206982543640896,-0.001056251427673193,
0.0372568578553616,0.009464606794609745,
0.037306733167082294,0.03738533677201774,
0.03735660847880299,0.03130917815967517,
0.03740648379052369,0.00961066926764551,
0.03745635910224439,0.0461319962644673,
0.037506234413965084,0.022387478900029626,
0.037556109725685786,-0.0014785143197733365,
0.03760598503740648,0.02620100331318476,
0.037655860349127185,0.008059486388739738,
0.03770573566084788,0.027399195744727482,
0.037755610972568576,0.014156774720710214,
0.03780548628428928,0.004722527458940147,
0.037855361596009975,-0.027791465249933388,
0.03790523690773067,0.003829032270611092,
0.03795511221945137,0.017138120057588517,
0.03800498753117207,0.015407026620645765,
0.03805486284289277,0.007175024078634976,
0.03810473815461347,-0.006423520917994845,
0.03815461346633416,0.02411801379135637,
0.038204488778054865,-0.009463544875089987,
0.03825436408977556,0.02080342554028901,
0.03830423940149626,0.049780341165040085,
0.03835411471321696,0.029637711849455163,
0.038403990024937655,0.011475341625067394,
0.03845386533665835,0.0024945403435357,
0.03850374064837905,0.03386183329345384,
0.03855361596009975,0.0034923449744220843,
0.03860349127182045,0.02327734748481905,
0.03865336658354115,0.02654694497481474,
0.03870324189526184,-0.020497248886251672,
0.038753117206982546,-0.0015850424965420402,
0.03880299251870324,0.01878061524107518,
0.03885286783042394,0.01876170986517505,
0.03890274314214464,0.006789216922663222,
0.038952618453865336,0.003216706598264391,
0.03900249376558604,0.01887219999122644,
0.039052369077306734,0.02393765455544998,
0.03910224438902743,0.026697648126722436,
0.03915211970074813,0.01225900287810335,
0.03920199501246883,0.002767176178120218,
0.039251870324189524,0.02394382066864893,
0.039301745635910226,0.023104236061782885,
0.03935162094763092,0.006525785268811431,
0.03940149625935162,-0.007763352113826146,
0.03945137157107232,-0.0230928449748717,
0.039501246882793016,-0.005578914546738955,
0.03955112219451372,0.013092226502824673,
0.039600997506234414,0.017740965036417845,
0.03965087281795511,0.018137549108638427,
0.03970074812967581,0.01098101899134321,
0.03975062344139651,0.0027080474837248092,
0.039800498753117204,0.025034050949839504,
0.03985037406483791,0.03311170582239055,
0.0399002493765586,-0.002314652505061198,
0.039950124688279305,0.010755825381409383,
0.04,0.008252097114807698,
0.0400498753117207,0.04592674566210589,
0.0400997506234414,-0.020269166866229954,
0.040149625935162095,-0.0026611832116258585,
0.04019950124688279,0.01528635803439371,
0.04024937655860349,0.02874569692077804,
0.04029925187032419,-0.020742933073587683,
0.040349127182044885,-0.016105140495575106,
0.04039900249376559,0.008286652973337097,
0.04044887780548628,-0.0017203184849412289,
0.040498753117206986,0.0026363126365085746,
0.04054862842892768,0.0038026730152294795,
0.04059850374064838,-0.013201544540013689,
0.04064837905236908,0.002035792259998671,
0.040698254364089775,0.0039374486440335085,
0.04074812967581047,0.012472092865275388,
0.040798004987531174,0.020037800597241615,
0.04084788029925187,-0.01239457836567257,
0.040897755610972565,0.0010803560740039924,
0.04094763092269327,0.0048546549411529055,
0.04099750623441396,-0.020185754497775116,
0.041047381546134666,-0.0015486744673284165,
0.04109725685785536,-0.010379702541530247,
0.04114713216957606,0.00861168567252746,
0.04119700748129676,0.007796854239937423,
0.041246882793017456,-0.005559646976218596,
0.04129675810473815,0.00020786168498739335,
0.041346633416458854,-0.019783624321502116,
0.04139650872817955,-0.005694949006923045,
0.04144638403990025,0.0067957981484156205,
0.04149625935162095,0.012154840993617867,
0.041546134663341644,0.007067746175427911,
0.04159600997506235,0.012593570478249107,
0.04164588528678304,-0.03249079334493774,
0.04169576059850374,0.0009009746801928609,
0.04174563591022444,-0.008677028516485306,
0.041795511221945136,0.004115535441583194,
0.04184538653366583,-0.014220134298568866,
0.041895261845386535,-0.012770883235470449,
0.04194513715710723,0.0037719143793198146,
0.04199501246882793,0.0006298130064328568,
0.04204488778054863,-0.00022109827490572782,
0.042094763092269324,0.007056143147164412,
0.04214463840399003,-0.005537237006948293,
0.04219451371571072,-0.029883856097579535,
0.04224438902743142,-0.03734596450509381,
0.04229426433915212,0.021021764313250993,
0.04234413965087282,-0.019688026324082786,
0.04239401496259352,-0.01279465992562137,
0.042443890274314215,-0.019047315696592865,
0.04249376558603491,-0.027254984341093934,
0.042543640897755614,0.007269546606273882,
0.04259351620947631,0.0013397762679380667,
0.042643391521197005,-0.03446395145659405,
0.04269326683291771,-0.01845863072488574,
0.0427431421446384,-0.021763117707191366,
0.0427930174563591,-0.055373483493796234,
0.0428428927680798,-0.026096164429459813,
0.0428927680798005,-0.02697743625517239,
0.0429426433915212,0.0004843139125753366,
0.042992518703241896,-0.013055712772614416,
0.04304239401496259,-0.012442093992700066,
0.043092269326683294,-0.010169608199761416,
0.04314214463840399,-0.04986558704937609,
0.043192019950124685,-0.00013108084144329568,
0.04324189526184539,-0.02237203475666886,
0.043291770573566084,-0.01183947350823248,
0.043341645885286786,-0.03733016821560584,
0.04339152119700748,-0.03715157354153246,
0.04344139650872818,0.008532648674734439,
0.04349127182044888,-0.04206288401057885,
0.043541147132169576,-0.01854163025214003,
0.04359102244389027,-0.01779323069140916,
0.043640897755610975,-0.029422258538286717,
0.04369077306733167,0.00017668141352695545,
0.043740648379052366,-0.010999293616755683,
0.04379052369077307,-0.011312025975143603,
0.043840399002493764,-0.006989546013738652,
0.04389027431421447,0.0014095834200502106,
0.04394014962593516,-0.0007976836481511963,
0.04399002493765586,-0.023421230782150974,
0.04403990024937656,-0.018611116747842174,
0.04408977556109726,-0.02677653231710208,
0.04413965087281795,-0.026716145094935962,
0.044189526184538655,-0.0037469356213872037,
0.04423940149625935,-0.029577995006079355,
0.04428927680798005,-0.039598584173346496,
0.04433915211970075,-0.006620945692035985,
0.044389027431421445,-0.015591310030647444,
0.04443890274314215,-0.0013374438681339855,
0.04448877805486284,-0.023472165629034872,
0.04453865336658354,0.0049401548239649505,
0.04458852867830424,-0.019760044288625586,
0.04463840399002494,-0.02201727016437013,
0.04468827930174563,-0.008424358484327328,
0.044738154613466335,-0.018869514603713135,
0.04478802992518703,-0.011373644741271225,
0.044837905236907734,-0.018528139945219298,
0.04488778054862843,-0.019302935437249053,
0.044937655860349125,-0.018370557505959076,
0.04498753117206983,-0.02456432180048677,
0.045037406483790524,-0.008004385436356537,
0.04508728179551122,0.0029916643698931905,
0.04513715710723192,-0.013741963446589105,
0.04518703241895262,-0.023601124522656763,
0.04523690773067331,-0.043633411510367315,
0.045286783042394016,-0.008387342294873708,
0.04533665835411471,0.006776232432722063,
0.045386533665835414,-0.024274280664371074,
0.04543640897755611,-0.008189107858905842,
0.045486284289276806,0.005336305364353557,
0.04553615960099751,-0.023566731025061627,
0.045586034912718204,-0.021821749135430422,
0.0456359102244389,-0.03170359927781722,
0.0456857855361596,-0.02283190718092415,
0.0457356608478803,-0.01703487517118971,
0.045785536159601,-0.027675423773943504,
0.045835411471321696,-0.016188074827767747,
0.04588528678304239,-0.02718980149206463,
0.045935162094763095,-0.015807072712207805,
0.04598503740648379,-0.003492949112055466,
0.046034912718204486,-0.00700776849531831,
0.04608478802992519,-0.013217002412265422,
0.046134663341645885,-0.031439130211705586,
0.04618453865336658,-0.003498064710951248,
0.04623441396508728,-0.011263327482345199,
0.04628428927680798,-0.029821234645337653,
0.04633416458852868,-0.008675086516407821,
0.04638403990024938,-0.0595889187431573,
0.04643391521197007,-0.014914254794773846,
0.046483790523690775,-0.03187233864241483,
0.04653366583541147,-0.008048493078847668,
0.04658354114713217,-0.03878062420468949,
0.04663341645885287,-0.015513310038413995,
0.046683291770573565,0.004994502210138229,
0.04673316708229427,-0.01393603560880836,
0.04678304239401496,0.0012476041388527603,
0.04683291770573566,-0.022637495046898715,
0.04688279301745636,-0.02163459014344115,
0.04693266832917706,-0.027134198418514596,
0.04698254364089775,0.005338795199578635,
0.047032418952618456,-0.0016130424103139047,
0.04708229426433915,-0.025868896145437706,
0.04713216957605985,-0.02129239289097966,
0.04718204488778055,-0.007555779020509257,
0.047231920199501246,-0.019133415292371808,
0.04728179551122195,-0.004641397158214766,
0.047331670822942644,-0.05378992262979693,
0.04738154613466334,-0.004881979317515751,
0.04743142144638404,0.0008847324307930601,
0.04748129675810474,-0.022108881965772657,
0.047531172069825434,0.0012790128115915816,
0.047581047381546136,0.005097981084365898,
0.04763092269326683,-0.0009641841632858066,
0.047680798004987535,-0.005594643937568228,
0.04773067331670823,-0.03584025278862997,
0.047780548628428926,-0.02601370721527925,
0.04783042394014963,-0.02957355234505682,
0.047880299251870324,-0.02330374417645547,
0.04793017456359102,-0.02389692418978021,
0.04798004987531172,0.013948329016058005,
0.04802992518703242,-0.013929652713005614,
0.048079800498753114,-0.007538658553220154,
0.04812967581047382,-0.013374961577063266,
0.04817955112219451,0.003220808909259928,
0.048229426433915215,0.009896073376197686,
0.04827930174563591,-0.024364414082038995,
0.048329177057356607,0.002774240541826763,
0.04837905236907731,-0.015842619472479103,
0.048428927680798005,0.009298210176695212,
0.0484788029925187,0.005300009692652152,
0.0485286783042394,0.016777602223934818,
0.0485785536159601,-0.016566271218449658,
0.048628428927680795,-0.02660475048781743,
0.0486783042394015,-0.020187923672009004,
0.04872817955112219,0.01608990518063197,
0.048778054862842896,-0.012380155053793772,
0.04882793017456359,-0.008630540533175298,
0.04887780548628429,-0.012018455623128099,
0.04892768079800499,-0.004654489556690513,
0.048977556109725685,0.03828234047140737,
0.04902743142144638,-0.03525318276966297,
0.049077306733167084,-0.00094909507800146,
0.04912718204488778,0.004268169524278097,
0.04917705735660848,0.0034857082242142874,
0.04922693266832918,0.0011044442009283005,
0.04927680798004987,-0.012627985218486761,
0.049326683291770576,-0.001947130904412474,
0.04937655860349127,0.005042011437410947,
0.04942643391521197,-0.00014767588304531861,
0.04947630922693267,-0.018807935028936993,
0.049526184538653366,-0.00967675622029508,
0.04957605985037406,0.003141306643079639,
0.049625935162094764,0.01574981942229921,
0.04967581047381546,-0.02004694205168571,
0.04972568578553616,0.0037790687590902147,
0.04977556109725686,-0.007476295784870969,
0.049825436408977554,-0.004605932498668696,
0.04987531172069826,-0.003965282680009145,
0.04992518703241895,-0.03004610983751748,
0.04997506234413965,-0.01658912608976817,
0.05002493765586035,0.013967194393035995,
0.050074812967581046,-0.004493926032845529,
0.05012468827930175,0.002774584709167383,
0.050174563591022445,0.00707625697618803,
0.05022443890274314,-0.016933073107369134,
0.05027431421446384,0.0062277180162394405,
0.05032418952618454,-0.004033352476265045,
0.050374064837905234,0.016109392353898536,
0.05042394014962594,-0.01693862473255374,
0.05047381546134663,0.022987284020829675,
0.05052369077306733,-0.001881787279128187,
0.05057356608478803,-0.017321594137230722,
0.05062344139650873,-0.004345229316758381,
0.05067331670822943,0.002446428783095789,
0.050723192019950125,-0.02192925702189335,
0.05077306733167082,-0.00160611401168462,
0.050822942643391524,0.015484035570780205,
0.05087281795511222,0.013243881443589511,
0.050922693266832915,-0.01938613521951196,
0.05097256857855362,0.020785676601153234,
0.05102244389027431,0.009523336304930286,
0.051072319201995016,0.00591290365839194,
0.05112219451371571,0.028621810398610448,
0.05117206982543641,0.020221364374850673,
0.05122194513715711,0.008460081016384267,
0.051271820448877806,0.012592134245460539,
0.0513216957605985,0.012847000654066295,
0.051371571072319204,-0.00423426652488737,
0.0514214463840399,0.0034664903954942225,
0.051471321695760595,0.006642966613748063,
0.0515211970074813,0.01041966300483762,
0.051571072319201994,-0.00944085414045808,
0.051620947630922696,0.01996096583640572,
0.05167082294264339,0.007305591030889786,
0.05172069825436409,0.008333856039604496,
0.05177057356608479,0.008300895280298232,
0.051820448877805486,0.018469123733312352,
0.05187032418952618,0.03408383723040997,
0.051920199501246884,-0.0031718066058885643,
0.05197007481296758,-0.0032633475319272763,
0.052019950124688276,0.001974715170198831,
0.05206982543640898,0.010176449166731842,
0.052119700748129674,0.0009644677080794025,
0.05216957605985038,-0.0050341144792327135,
0.05221945137157107,0.009527773640153284,
0.05226932668329177,0.0177261440814435,
0.05231920199501247,0.02225460761101327,
0.05236907730673317,0.006860914742025501,
0.05241895261845386,0.03744978861625254,
0.052468827930174565,-0.0045705654244865765,
0.05251870324189526,0.018842345956885685,
0.05256857855361596,-0.003396935575066075,
0.05261845386533666,-0.002946932580050708,
0.052668329177057355,0.015824157350575144,
0.05271820448877806,0.023017138477302863,
0.05276807980049875,-0.005462043789194342,
0.05281795511221945,0.0013774953176872995,
0.05286783042394015,0.034342173637480274,
0.05291770573566085,0.015394847693920431,
0.05296758104738154,0.030810154046457556,
0.053017456359102245,0.016670385881324936,
0.05306733167082294,0.023284849360213383,
0.053117206982543644,0.016302705289491046,
0.05316708229426434,0.0058423712574573496,
0.053216957605985035,0.03097469738902401,
0.05326683291770574,0.016757100083665495,
0.053316708229426434,0.014183398259083034,
0.05336658354114713,0.03475740431023923,
0.05341645885286783,0.025617525618874107,
0.05346633416458853,0.015938394166966297,
0.05351620947630923,0.019233249029608983,
0.053566084788029926,0.0029082517728970247,
0.05361596009975062,0.02545440038972656,
0.053665835411471324,0.025985196477948433,
0.05371571072319202,0.0433416971894891,
0.053765586034912716,0.045743177431014664,
0.05381546134663342,0.013392803812285232,
0.053865336658354114,0.01469839986002714,
0.05391521197007481,0.015212278943745116,
0.05396508728179551,0.031219617444780606,
0.05401496259351621,0.036982463534923876,
0.05406483790523691,0.06074993366869676,
0.054114713216957606,0.026622164286245982,
0.0541645885286783,0.021010120256558903,
0.054214463840399005,0.023070989971408287,
0.0542643391521197,0.01658819219032422,
0.054314214463840396,-0.005771923509693789,
0.0543640897755611,0.024394732700079753,
0.054413965087281795,0.01807372561404798,
0.0544638403990025,0.01593194293407319,
0.05451371571072319,-0.006399556850491216,
0.05456359102244389,0.038034803135987234,
0.05461346633416459,0.035524554876736884,
0.05466334164588529,0.03330803268954757,
0.05471321695760598,0.029846694645036642,
0.054763092269326685,0.025082077479065868,
0.05481296758104738,0.010995180302143139,
0.05486284289276808,0.028990383618822446,
0.05491271820448878,0.02757050100609686,
0.054962593516209475,0.005634935071866989,
0.05501246882793018,0.024196931375300375,
0.05506234413965087,0.03577911534876041,
0.05511221945137157,0.028008325512529245,
0.05516209476309227,0.030241492781080802,
0.05521197007481297,0.06650009550419937,
0.05526184538653366,0.05437149094734828,
0.055311720698254366,0.004571809522115312,
0.05536159600997506,0.026017023483729036,
0.05541147132169576,0.03256881901044105,
0.05546134663341646,0.03661206453803356,
0.055511221945137156,0.021594106932761807,
0.05556109725685786,0.035131819026754975,
0.055610972568578554,0.002144607053505339,
0.05566084788029925,0.017982827944225753,
0.05571072319201995,0.01904429787890597,
0.05576059850374065,0.03729779392520029,
0.055810473815461344,0.006113293805424511,
0.055860349127182046,0.04306623558127477,
0.05591022443890274,0.02175507724771,
0.055960099750623445,0.032275365575600685,
0.05600997506234414,0.03366249787366182,
0.056059850374064836,0.009297492691682395,
0.05610972568578554,0.030120434753491847,
0.056159600997506234,0.02442499978584769,
0.05620947630922693,0.03934674477761532,
0.05625935162094763,0.0251433010819938,
0.05630922693266833,0.027496289439680237,
0.056359102244389024,0.022730301346614766,
0.05640897755610973,0.0305096137597144,
0.05645885286783042,0.012633317728549809,
0.056508728179551125,0.004575691719576773,
0.05655860349127182,-0.003090513649998315,
0.056608478802992516,0.03200635170291829,
0.05665835411471322,0.016862960848523043,
0.056708229426433915,0.02200297415429933,
0.05675810473815461,0.02865838398325482,
0.05680798004987531,0.021207429937738304,
0.05685785536159601,0.02999653511332722,
0.05690773067331671,0.012447066334829964,
0.05695760598503741,0.05660531659984351,
0.0570074812967581,0.036905021659718276,
0.057057356608478806,-0.0025670005725308837,
0.0571072319201995,0.05611856546846283,
0.0571571072319202,0.04548669972679841,
0.0572069825436409,0.02976485542736558,
0.057256857855361595,0.0019962519711940498,
0.05730673316708229,0.03345148870085983,
0.057356608478802994,0.005824755476963591,
0.05740648379052369,0.013885610888175895,
0.05745635910224439,0.01794946385292897,
0.05750623441396509,0.006889375522465832,
0.05755610972568578,0.023674505272968233,
0.057605985037406486,0.004803900324034483,
0.05765586034912718,0.010504562947776245,
0.05770573566084788,-0.006987984571143566,
0.05775561097256858,0.025839828585561598,
0.057805486284289276,0.004482482191152833,
0.05785536159600998,-0.010008459775396425,
0.057905236907730674,0.013205157785977677,
0.05795511221945137,0.013514081392951998,
0.05800498753117207,0.023074300612689627,
0.05805486284289277,0.030066587658371648,
0.058104738154613464,0.027959050184066636,
0.05815461346633417,-0.006710374195585862,
0.05820448877805486,0.02602334486857101,
0.05825436408977556,0.005597439672328789,
0.05830423940149626,0.027938599312006675,
0.058354114713216956,0.02690455077020782,
0.05840399002493766,0.0033017834093576164,
0.058453865336658355,0.023797873322382073,
0.05850374064837905,0.01872877674501115,
0.05855361596009975,0.02106555311252736,
0.05860349127182045,0.001767089847108265,
0.058653366583541144,0.031735783609156985,
0.05870324189526185,0.01424118397671461,
0.05875311720698254,0.0007217683323164706,
0.05880299251870324,0.015601826277989438,
0.05885286783042394,0.028321866292857018,
0.05890274314214464,-0.010538203998627604,
0.05895261845386534,0.01970984254609235,
0.059002493765586035,0.008982187444646083,
0.05905236907730673,0.01346527213811964,
0.059102244389027433,0.010113027563021895,
0.05915211970074813,0.028643144739909816,
0.059201995012468825,0.007391932085584223,
0.05925187032418953,0.003357362203014717,
0.05930174563591022,0.03223441381056067,
0.059351620947630926,0.016313119123678638,
0.05940149625935162,0.004692877980810511,
0.05945137157107232,-0.008735038754467236,
0.05950124688279302,0.0021003500974561707,
0.059551122194513716,0.004040318569717121,
0.05960099750623441,-0.0015384403002703263,
0.059650872817955114,0.01586085466604719,
0.05970074812967581,0.010020730072544658,
0.059750623441396505,-0.010335857556844786,
0.05980049875311721,0.026012918847454,
0.059850374064837904,-0.01898535861253686,
0.059900249376558606,0.013526229242291505,
0.0599501246882793,-0.007736141502955466,
0.06,0.04286920863355035,
0.0600498753117207,0.009098369200189131,
0.060099750623441396,0.009254743944686544,
0.06014962593516209,0.015378262508634045,
0.060199501246882794,-0.003989100895996745,
0.06024937655860349,0.0016054118667592713,
0.06029925187032419,0.02302337311258929,
0.06034912718204489,-0.011303357833569925,
0.060399002493765584,8.034069297239901e-05,
0.06044887780548629,0.019656440928759476,
0.06049875311720698,-0.009967426798288333,
0.06054862842892768,0.0002151823734729448,
0.06059850374064838,0.042039639232434735,
0.06064837905236908,0.009919007775319276,
0.06069825436408977,-0.009156267712397543,
0.060748129675810475,-0.002961123632198979,
0.06079800498753117,0.017365261944025635,
0.06084788029925187,0.009991051038444318,
0.06089775561097257,0.022149247966001467,
0.060947630922693265,0.0007976286215386428,
0.06099750623441397,0.008282225052425953,
0.06104738154613466,-0.006368065191171677,
0.06109725685785536,-0.0062523157930659545,
0.06114713216957606,0.01581949570526983,
0.06119700748129676,-0.00018979514799985953,
0.06124688279301746,0.0006417748791274741,
0.061296758104738155,0.009241165086973872,
0.06134663341645885,0.007230489099093513,
0.061396508728179554,0.00557521622341608,
0.06144638403990025,0.0019207359733304668,
0.061496259351620945,-0.0038245891434042427,
0.06154613466334165,-0.00792234766677816,
0.061596009975062344,-0.004160401800907908,
0.06164588528678304,-0.008556522006060618,
0.06169576059850374,-0.008665418217318813,
0.06174563591022444,-0.004996361862812099,
0.06179551122194514,0.016069191780864335,
0.061845386533665836,-0.038905652691071546,
0.06189526184538653,-0.011221828382199145,
0.061945137157107234,-0.014372008823837008,
0.06199501246882793,-0.005468764673531398,
0.062044887780548626,-0.01534459860098317,
0.06209476309226933,-0.04226854011345962,
0.062144638403990024,-0.01104363164502742,
0.06219451371571072,-0.02935830167333315,
0.06224438902743142,-0.015452408171473902,
0.06229426433915212,-0.022124909597801966,
0.06234413965087282,-0.01386305817919993,
0.062394014962593516,-0.014002836436145074,
0.06244389027431421,0.009997212031998748,
0.062493765586034915,-0.02662552091885489,
0.06254364089775562,-0.05200667734458555,
0.06259351620947631,-0.023900496820695998,
0.06264339152119701,-0.04076555793415108,
0.0626932668329177,-0.0064917409731763635,
0.0627431421446384,-0.01758478083555653,
0.0627930174563591,-0.00869693142591486,
0.0628428927680798,-0.04519804055990361,
0.0628927680798005,-0.01593178278863259,
0.0629426433915212,-0.013608693989544531,
0.06299251870324189,-0.04008296322924891,
0.06304239401496259,-0.015290721673168117,
0.0630922693266833,-0.013153863622910399,
0.063142144638404,-0.007218528225871578,
0.06319201995012469,-0.03603069611128742,
0.06324189526184539,0.012335554629900151,
0.06329177057356608,-0.023225129850824568,
0.06334164588528678,-0.041972441950805614,
0.06339152119700749,-0.03990360661347182,
0.06344139650872818,-0.0184709946197525,
0.06349127182044888,-0.01771009431851839,
0.06354114713216957,-0.00972290203439547,
0.06359102244389027,-0.04192409539616552,
0.06364089775561098,-0.010026409590891024,
0.06369077306733167,-0.004501067259359492,
0.06374064837905237,-0.03579089720178273,
0.06379052369077307,-0.04559700166053059,
0.06384039900249376,-0.008459038437059647,
0.06389027431421446,-0.008810994425925105,
0.06394014962593517,-0.0019006246381601862,
0.06399002493765586,-0.009053891668219315,
0.06403990024937656,-0.022071649324774713,
0.06408977556109725,0.0157238137364863,
0.06413965087281795,-0.02982635627767942,
0.06418952618453866,-0.023850320964153546,
0.06423940149625935,-0.0038183160076029395,
0.06428927680798005,-0.01660931747027476,
0.06433915211970075,-0.00024605565007150207,
0.06438902743142144,-0.016456312723287833,
0.06443890274314215,-0.03377403008322798,
0.06448877805486285,-0.039497986748631725,
0.06453865336658354,-0.032636076275160984,
0.06458852867830424,-0.024057560166318406,
0.06463840399002493,-0.029657331695881903,
0.06468827930174563,-0.029831849620883862,
0.06473815461346634,-0.022814119555057227,
0.06478802992518704,-0.006701272681936574,
0.06483790523690773,-0.012833138573059476,
0.06488778054862843,0.018506192323340023,
0.06493765586034912,-0.00257780154691537,
0.06498753117206983,-0.012399495952363823,
0.06503740648379053,0.02249486937799764,
0.06508728179551122,-0.023405709649082083,
0.06513715710723192,-0.03145136075591595,
0.06518703241895261,-0.0053077208366160734,
0.06523690773067331,-0.01193980258113424,
0.06528678304239402,-0.03332379701038455,
0.06533665835411472,-0.005454798758315022,
0.06538653366583541,-0.009715403405532657,
0.06543640897755611,-0.03119212702650716,
0.0654862842892768,-0.032730843357268946,
0.06553615960099751,-0.01807634910960858,
0.06558603491271821,0.00480024232548959,
0.0656359102244389,0.002448259880540666,
0.0656857855361596,2.1105898453341668e-05,
0.0657356608478803,-0.05431591256903788,
0.06578553615960099,0.0018393848910610612,
0.0658354114713217,0.003988726636183992,
0.0658852867830424,0.0015148380265920403,
0.06593516209476309,-0.025900675654269754,
0.06598503740648379,-0.029907651554682266,
0.06603491271820448,-0.0443934492271411,
0.06608478802992519,-0.03450974301030736,
0.06613466334164589,-0.02670932067510415,
0.06618453865336658,-0.0035025706417573417,
0.06623441396508728,0.0026115018177588576,
0.06628428927680798,-0.03254176941984696,
0.06633416458852869,-0.018105952449133347,
0.06638403990024938,0.01340509420228575,
0.06643391521197008,-0.038822357148442954,
0.06648379052369077,0.011644303873836666,
0.06653366583541147,-0.0006707867109519931,
0.06658354114713216,-0.008902167485983423,
0.06663341645885287,-0.020896137206393613,
0.06668329177057357,0.014418445745643865,
0.06673316708229426,-0.013221253134470728,
0.06678304239401496,-0.00948913781587241,
0.06683291770573566,-0.007094018064735052,
0.06688279301745637,-0.01865452986951162,
0.06693266832917706,-0.028639660678818353,
0.06698254364089776,-0.01272589110424977,
0.06703241895261845,-1.827449988844182e-05,
0.06708229426433915,-0.007898755024112795,
0.06713216957605984,0.008916069513132781,
0.06718204488778055,-0.011791829791187553,
0.06723192019950125,-0.0327618459620011,
0.06728179551122195,-0.0331807955908075,
0.06733167082294264,-0.005052588048516705,
0.06738154613466334,-0.018597534453220304,
0.06743142144638405,-0.013603401205842539,
0.06748129675810474,-0.031132303285393743,
0.06753117206982544,-0.014786867969627587,
0.06758104738154613,-0.03157759414411028,
0.06763092269326683,0.01940402102841458,
0.06768079800498752,0.0013040720886063131,
0.06773067331670823,0.004690079023264822,
0.06778054862842893,-0.003430885934295606,
0.06783042394014963,-0.004317512567136758,
0.06788029925187032,0.005407122501211259,
0.06793017456359102,0.01010084999913271,
0.06798004987531173,-0.007770327465408647,
0.06802992518703242,-0.02031313322105229,
0.06807980049875312,-0.032823709425375526,
0.06812967581047381,-0.0073680199174651064,
0.06817955112219451,-0.0158200819322728,
0.0682294264339152,-0.0002545728379545146,
0.06827930174563591,0.0005154434995869031,
0.06832917705735661,-0.02223555588004361,
0.0683790523690773,0.0014949107794431883,
0.068428927680798,-0.004093959851310218,
0.0684788029925187,-0.02429319207979698,
0.06852867830423941,-0.011939720105607723,
0.0685785536159601,-0.007787839334759961,
0.0686284289276808,0.01508007512660216,
0.0686783042394015,-0.034708632201595556,
0.06872817955112219,-0.007571790649915351,
0.0687780548628429,-0.009488087980699953,
0.0688279301745636,-0.0012825438575634254,
0.06887780548628429,-0.00595673423476142,
0.06892768079800499,0.027050739556071172,
0.06897755610972568,-0.025506782746752926,
0.06902743142144638,0.004708579565464336,
0.06907730673316709,-0.002404617030363274,
0.06912718204488778,-0.014314009117418876,
0.06917705735660848,-0.0110361026318752,
0.06922693266832917,-0.012831638077058432,
0.06927680798004987,0.009532003552476786,
0.06932668329177058,0.01853387400769719,
0.06937655860349128,-0.016933682592898826,
0.06942643391521197,-0.0005388412201712823,
0.06947630922693267,-0.026878316304056397,
0.06952618453865336,0.01938997541398553,
0.06957605985037406,-0.0020182649960460153,
0.06962593516209477,0.006155019633966263,
0.06967581047381546,-0.038179468087933106,
0.06972568578553616,-0.0011047868423725447,
0.06977556109725686,0.03705710725982468,
0.06982543640897755,0.011256286393540486,
0.06987531172069826,0.004073231506048596,
0.06992518703241896,-0.00913315728169292,
0.06997506234413965,0.005043223465799526,
0.07002493765586035,-0.014066682349718494,
0.07007481296758104,-0.0034544149185267966,
0.07012468827930174,9.147533774296959e-05,
0.07017456359102245,0.005835795973561937,
0.07022443890274314,0.004931952506557766,
0.07027431421446384,0.0038251321072778955,
0.07032418952618454,0.012720405067791922,
0.07037406483790523,-0.015909195004864263,
0.07042394014962594,0.04055722264080812,
0.07047381546134664,0.008535932150070117,
0.07052369077306733,-0.003564938087262266,
0.07057356608478803,0.013957524318651889,
0.07062344139650872,0.000949952305128174,
0.07067331670822943,0.0033052701202345445,
0.07072319201995013,0.005306620251200444,
0.07077306733167082,0.011545288110498899,
0.07082294264339152,0.0037079362556381805,
0.07087281795511222,0.002317447485157478,
0.07092269326683291,0.02018732818768393,
0.07097256857855362,0.012337644418894341,
0.07102244389027432,0.01709445771272208,
0.07107231920199501,0.03913598196590598,
0.07112219451371571,0.02229102062234295,
0.0711720698254364,0.0060358535438383145,
0.07122194513715711,0.009764499412146249,
0.07127182044887781,0.014708505185174853,
0.0713216957605985,0.010023780134524157,
0.0713715710723192,0.006906576404421605,
0.0714214463840399,-0.002195857540752272,
0.07147132169576059,0.009468904609973874,
0.0715211970074813,0.0005392263643566736,
0.071571072319202,0.02317205551597068,
0.0716209476309227,0.02030890628041844,
0.07167082294264339,0.02996540464126676,
0.07172069825436408,0.03259907862337408,
0.0717705735660848,0.02093368286455922,
0.07182044887780549,0.04519727596936334,
0.07187032418952619,-0.007389359889726136,
0.07192019950124688,0.01854961829885917,
0.07197007481296758,0.0019304910361707794,
0.07201995012468827,0.019497308096556084,
0.07206982543640898,0.010650416723123883,
0.07211970074812968,0.012321945018741407,
0.07216957605985037,0.01396360216734956,
0.07221945137157107,0.01852836192308188,
0.07226932668329177,0.01641862867515378,
0.07231920199501247,0.010876587181718578,
0.07236907730673317,0.031956869375105355,
0.07241895261845387,0.02027895337260484,
0.07246882793017456,0.017350162312604233,
0.07251870324189526,0.017657008346928686,
0.07256857855361595,0.010042755231776201,
0.07261845386533666,0.020819948341816667,
0.07266832917705736,-0.02736965227274081,
0.07271820448877805,0.037297058142913425,
0.07276807980049875,0.034614406108089565,
0.07281795511221945,0.015536708488386435,
0.07286783042394016,0.0233040569221997,
0.07291770573566085,0.03789165481227816,
0.07296758104738155,0.02396700407963227,
0.07301745635910224,0.031863043099210835,
0.07306733167082294,0.012366759266732825,
0.07311720698254365,0.03686629494903471,
0.07316708229426434,0.012248269178655815,
0.07321695760598504,0.021747501702656605,
0.07326683291770573,0.008860623503508542,
0.07331670822942643,-0.0006207226267552976,
0.07336658354114713,0.012861574253941339,
0.07341645885286784,0.012715292049141997,
0.07346633416458853,0.040936854585576415,
0.07351620947630923,0.015157429240971946,
0.07356608478802992,0.04039569479558844,
0.07361596009975062,0.02597863592542663,
0.07366583541147133,0.033653244497458934,
0.07371571072319202,0.027435363717126415,
0.07376558603491272,0.04666368703187386,
0.07381546134663342,0.030311526725012944,
0.07386533665835411,0.05206201044188302,
0.0739152119700748,0.024228194357573063,
0.07396508728179552,0.012431720575979346,
0.07401496259351621,0.02673902672241238,
0.07406483790523691,0.022457184705030324,
0.0741147132169576,0.02630945866387216,
0.0741645885286783,0.03280736469439517,
0.07421446384039901,0.02346760331758382,
0.0742643391521197,0.02893068206504736,
0.0743142144638404,-0.008220120563939549,
0.0743640897755611,0.004157108142979444,
0.07441396508728179,0.029865184001453996,
0.07446384039900249,0.05105321429293572,
0.0745137157107232,0.030177623251244602,
0.07456359102244389,0.025585644156216544,
0.07461346633416459,0.00643718945142728,
0.07466334164588528,0.030437566491114138,
0.07471321695760598,0.019666031915283065,
0.07476309226932669,0.046164451289849015,
0.07481296758104738,0.014609578929711394,
0.07486284289276808,0.010557091194454497,
0.07491271820448878,0.013330975615493968,
0.07496259351620947,0.03568920560333079,
0.07501246882793017,0.0032011781382167946,
0.07506234413965088,0.008172166429455095,
0.07511221945137157,0.02060188577610848,
0.07516209476309227,0.059669380415768004,
0.07521197007481296,0.05168055055176499,
0.07526184538653366,0.0108254840361976,
0.07531172069825437,0.003346723310779988,
0.07536159600997507,0.023541485654739226,
0.07541147132169576,0.014343977709654437,
0.07546134663341646,0.017611624721147225,
0.07551122194513715,0.027567073385586123,
0.07556109725685786,0.0481440720883457,
0.07561097256857856,0.03687762811070368,
0.07566084788029925,-0.0062805426307436865,
0.07571072319201995,0.018872237031678916,
0.07576059850374064,0.0197281415043853,
0.07581047381546134,0.03656318173076684,
0.07586034912718205,0.014454824118698431,
0.07591022443890275,0.011829333306253867,
0.07596009975062344,0.042693360286135046,
0.07600997506234414,0.01567477341592377,
0.07605985037406483,0.00905562684199997,
0.07610972568578554,0.005668812112877376,
0.07615960099750624,0.015684300471859508,
0.07620947630922693,0.041872330621647254,
0.07625935162094763,0.023121729383931824,
0.07630922693266833,0.029178448117812103,
0.07635910224438902,0.03381300985947444,
0.07640897755610973,0.06218846339502671,
0.07645885286783043,0.0182575964148732,
0.07650872817955112,0.049112773640154185,
0.07655860349127182,0.016633513675336754,
0.07660847880299251,0.022342698525300176,
0.07665835411471322,0.008303985607059229,
0.07670822942643392,0.06480916857439528,
0.07675810473815461,0.013305424275331868,
0.07680798004987531,0.032028712832221626,
0.076857855361596,0.02154621905893184,
0.0769077306733167,0.026850591196553097,
0.07695760598503741,0.047740986480234227,
0.0770074812967581,0.0003224416516158027,
0.0770573566084788,0.04533340066942789,
0.0771072319201995,0.018939797857623203,
0.0771571072319202,0.022903719283599265,
0.0772069825436409,0.03075430030427822,
0.0772568578553616,0.041093977863544004,
0.0773067331670823,-0.012731540518446771,
0.07735660847880299,0.02633164483088367,
0.07740648379052369,0.02622457466723464,
0.0774563591022444,-0.005026619897471989,
0.07750623441396509,0.010086470506789675,
0.07755610972568579,0.03355389222250167,
0.07760598503740648,0.013537069933836632,
0.07765586034912718,-0.003775517422179745,
0.07770573566084787,0.02731720337377994,
0.07775561097256858,0.014115829118506467,
0.07780548628428928,0.049746209436524996,
0.07785536159600998,0.05075164702180182,
0.07790523690773067,0.00856430346914402,
0.07795511221945137,0.00591220872672431,
0.07800498753117208,0.010904200909961526,
0.07805486284289277,0.020722745875991343,
0.07810473815461347,-0.001638526143599394,
0.07815461346633416,0.012934277013374757,
0.07820448877805486,0.030863318606534684,
0.07825436408977555,0.008972796821465932,
0.07830423940149626,0.030225401813200978,
0.07835411471321696,0.02504377377939398,
0.07840399002493766,0.006053985951138185,
0.07845386533665835,0.015333261648021483,
0.07850374064837905,0.0070819416417718765,
0.07855361596009976,0.023445476295741254,
0.07860349127182045,0.022275056884610685,
0.07865336658354115,0.005332681781732275,
0.07870324189526184,0.028122776223886828,
0.07875311720698254,0.007980041086521903,
0.07880299251870324,0.04488399925209274,
0.07885286783042394,-0.013668024186814887,
0.07890274314214464,0.042684457457019494,
0.07895261845386534,0.020916437793084344,
0.07900249376558603,0.003274125615108009,
0.07905236907730673,0.03306967427781007,
0.07910224438902744,0.013117796560490322,
0.07915211970074813,0.009566636234927,
0.07920199501246883,0.003367538224935473,
0.07925187032418952,-0.003067055570712282,
0.07930174563591022,0.018032155215141787,
0.07935162094763092,0.0023451062055802677,
0.07940149625935163,0.04120523596516786,
0.07945137157107232,0.025527747860559356,
0.07950124688279302,0.016959919428573653,
0.07955112219451371,0.03045113579982933,
0.07960099750623441,0.026549680865226508,
0.07965087281795512,0.011811318765178004,
0.07970074812967581,-0.0057471169769311575,
0.07975062344139651,0.058537952206619906,
0.0798004987531172,0.02884630759215128,
0.0798503740648379,0.026420747581593643,
0.07990024937655861,0.02354699527787927,
0.0799501246882793,-0.03197020832596134,
0.08,0.015336910577105161,
0.0800498753117207,0.012672997567476394,
0.0800997506234414,-0.004145286338325158,
0.08014962593516209,0.003344532821658811,
0.0801995012468828,-0.0014196459205772158,
0.0802493765586035,-0.014640904682340323,
0.08029925187032419,0.01835976629064169,
0.08034912718204489,0.009061555869562865,
0.08039900249376558,0.02953056759394682,
0.08044887780548629,0.02062587383255765,
0.08049875311720699,-0.0009097209003159175,
0.08054862842892768,0.006677431548659293,
0.08059850374064838,-0.02124550124157533,
0.08064837905236907,0.006817464247356161,
0.08069825436408977,0.024778065599626274,
0.08074812967581048,-0.005522775011913877,
0.08079800498753117,0.0163549017478129,
0.08084788029925187,0.0049937472502738466,
0.08089775561097257,-0.0015970303255484074,
0.08094763092269326,-0.016837443537539847,
0.08099750623441397,0.004478775844896014,
0.08104738154613467,-0.005766984757422003,
0.08109725685785536,-0.005626013839058764,
0.08114713216957606,0.005923553336712035,
0.08119700748129675,0.006749877520478264,
0.08124688279301745,0.006583025657866428,
0.08129675810473816,-0.0037800615299014764,
0.08134663341645886,-0.008580493842371483,
0.08139650872817955,-0.013002541246183923,
0.08144638403990025,-0.017153430147761786,
0.08149625935162094,0.015456816914494385,
0.08154613466334165,-0.004925545748833583,
0.08159600997506235,-0.012776138433891613,
0.08164588528678304,-0.004175494303652985,
0.08169576059850374,-0.011405344760020579,
0.08174563591022443,0.0010279317006459308,
0.08179551122194513,-0.006400245151404462,
0.08184538653366584,-0.0028107001061297415,
0.08189526184538654,0.009204319275240139,
0.08194513715710723,0.020204452632158473,
0.08199501246882793,-0.01879435754731175,
0.08204488778054862,-0.015951843802569123,
0.08209476309226933,0.0025130763665892203,
0.08214463840399003,0.0042104765642550605,
0.08219451371571072,-0.008820233391560028,
0.08224438902743142,-0.01776124593719646,
0.08229426433915212,-0.015291135773831246,
0.08234413965087282,0.010468568217558078,
0.08239401496259352,-0.004649669718740698,
0.08244389027431422,-0.02697137856567881,
0.08249376558603491,-0.022194639688731817,
0.08254364089775561,-0.008125183291447825,
0.0825935162094763,-0.004543311302620276,
0.08264339152119701,-0.0012016190877412137,
0.08269326683291771,-0.037119421063364286,
0.0827431421446384,-0.020383946547919366,
0.0827930174563591,0.004010214163946858,
0.0828428927680798,-0.0008448252403001092,
0.0828927680798005,0.0031428673611820918,
0.0829426433915212,0.024231107220685492,
0.0829925187032419,-0.011851503652050305,
0.08304239401496259,-0.014440254670206817,
0.08309226932668329,-0.0031694311270161844,
0.08314214463840398,-0.006408771070689323,
0.0831920199501247,0.01078053921572553,
0.08324189526184539,-0.011932656208888658,
0.08329177057356608,-0.030364013809232673,
0.08334164588528678,0.012563168244430805,
0.08339152119700748,-0.02801682813143077,
0.08344139650872819,-0.0028185037055455083,
0.08349127182044888,-9.706029608759666e-05,
0.08354114713216958,0.0025122661738689288,
0.08359102244389027,-0.0085938315037077,
0.08364089775561097,0.004779296012874327,
0.08369077306733166,-0.009525315938474301,
0.08374064837905237,-0.031876445796525626,
0.08379052369077307,-0.009272683870335221,
0.08384039900249377,0.0025901445697765237,
0.08389027431421446,-0.0034606103208392434,
0.08394014962593516,-0.02121221837075401,
0.08399002493765587,0.0035216527043287447,
0.08403990024937656,0.0017220285343906815,
0.08408977556109726,-0.02144300031598073,
0.08413965087281795,-0.013613128845626519,
0.08418952618453865,-0.035237592872661254,
0.08423940149625936,-0.005047266802266891,
0.08428927680798005,-0.026595793418580094,
0.08433915211970075,-0.017169967393004908,
0.08438902743142145,-0.011671204443611211,
0.08443890274314214,0.020411277549683724,
0.08448877805486284,-0.028291630504399715,
0.08453865336658355,-0.005642953675304462,
0.08458852867830424,-0.009262328331350631,
0.08463840399002494,-0.020012786844668173,
0.08468827930174563,-0.023438815700685366,
0.08473815461346633,-0.01973638360110659,
0.08478802992518704,0.010224033366716054,
0.08483790523690773,-0.021811157208050137,
0.08488778054862843,-0.012920175258001076,
0.08493765586034913,-0.030325084316538395,
0.08498753117206982,-0.013470152904667161,
0.08503740648379052,-0.016109149635536144,
0.08508728179551123,-0.008808716161623034,
0.08513715710723192,-0.022607516605671864,
0.08518703241895262,0.004912330529252726,
0.08523690773067331,-0.011011155990938989,
0.08528678304239401,0.0006066651055068525,
0.08533665835411472,-0.027665284520389754,
0.08538653366583542,-0.015330352238757942,
0.08543640897755611,-0.019586036393905007,
0.0854862842892768,-0.01139128151897824,
0.0855361596009975,0.00430168760690188,
0.0855860349127182,0.012751390378046724,
0.08563591022443891,-0.010461545813721674,
0.0856857855361596,-0.03142150768935125,
0.0857356608478803,-0.02253687849420972,
0.085785536159601,0.004823025622132465,
0.08583541147132169,-0.011167421590009264,
0.0858852867830424,-0.0327975081898809,
0.0859351620947631,-0.008849699556072978,
0.08598503740648379,-0.027495472213998114,
0.08603491271820449,-0.013800524313390853,
0.08608478802992518,-0.013043495363181406,
0.08613466334164588,-0.0317344242343785,
0.08618453865336659,0.007287405086217957,
0.08623441396508728,-0.013860983039153663,
0.08628428927680798,-0.011955333896372678,
0.08633416458852868,-0.020032312162206786,
0.08638403990024937,-0.005471684306571941,
0.08643391521197008,-0.013324047765563755,
0.08648379052369078,-0.05151758467610225,
0.08653366583541147,-0.02391854277015245,
0.08658354114713217,-0.0042173237089321945,
0.08663341645885286,-0.035870232222640686,
0.08668329177057357,-0.004418005295015104,
0.08673316708229427,-0.0033928397632759354,
0.08678304239401496,-0.006717869710860862,
0.08683291770573566,-0.01650728238121369,
0.08688279301745636,-0.029145489708738218,
0.08693266832917705,-0.012300870481274765,
0.08698254364089776,-0.025946116285923727,
0.08703241895261846,-0.007921996358067698,
0.08708229426433915,0.006503211810640791,
0.08713216957605985,0.013314752462571362,
0.08718204488778054,-0.004130207938024321,
0.08723192019950125,-0.004744246147045903,
0.08728179551122195,-0.013197424526650521,
0.08733167082294264,0.0004167887678648771,
0.08738154613466334,-0.01401185422774414,
0.08743142144638404,0.018496235401490438,
0.08748129675810473,-0.005942584406116086,
0.08753117206982544,0.01964640868275601,
0.08758104738154614,-0.02194303704704554,
0.08763092269326683,0.009990587015162432,
0.08768079800498753,0.008448648427646106,
0.08773067331670822,-0.012146960716546333,
0.08778054862842893,-0.015228401212366148,
0.08783042394014963,-0.023851782374319994,
0.08788029925187033,-0.016439055718958172,
0.08793017456359102,-0.012022813643221598,
0.08798004987531172,-0.03875677631584945,
0.08802992518703241,0.007858162009208997,
0.08807980049875312,-0.03369044780660339,
0.08812967581047382,0.010104998406428563,
0.08817955112219451,-0.028164572843852542,
0.08822942643391521,0.007990362202989154,
0.0882793017456359,-0.011679735000970963,
0.08832917705735661,-0.013482077572726275,
0.08837905236907731,-0.0091537278010571,
0.088428927680798,0.0053515275949759175,
0.0884788029925187,-0.017178789096723993,
0.0885286783042394,0.003715663605303795,
0.0885785536159601,-0.0047833913385733505,
0.0886284289276808,0.009847522442900004,
0.0886783042394015,0.017485613143934663,
0.0887281795511222,-0.017199836072389292,
0.08877805486284289,0.00461611352398204,
0.08882793017456359,-0.022128196693961103,
0.0888778054862843,-0.011445709528848387,
0.08892768079800499,0.015129177065396855,
0.08897755610972569,-0.0031563759226956815,
0.08902743142144638,0.00445152291703023,
0.08907730673316708,-0.008266442528171426,
0.08912718204488779,-0.010844666628399915,
0.08917705735660848,-0.003998422391881047,
0.08922693266832918,0.006604591124896301,
0.08927680798004987,0.004071666406075714,
0.08932668329177057,-0.0297893532407418,
0.08937655860349127,0.0003914779305511483,
0.08942643391521198,0.01941401960810209,
0.08947630922693267,-0.005237903546715487,
0.08952618453865337,0.014873514551343527,
0.08957605985037406,-0.009121066112411973,
0.08962593516209476,0.017677349452554877,
0.08967581047381547,0.01371508091886019,
0.08972568578553616,0.005271652855190321,
0.08977556109725686,0.003452934575601217,
0.08982543640897755,0.006431441928576448,
0.08987531172069825,0.01048030946337472,
0.08992518703241895,0.00675909324674633,
0.08997506234413966,-0.024789066297994943,
0.09002493765586035,0.013252317400526181,
0.09007481296758105,0.0035188324671868556,
0.09012468827930174,-0.002149192545360515,
0.09017456359102244,0.024854608326499307,
0.09022443890274315,0.02206795723780346,
0.09027431421446384,-0.011696694651088826,
0.09032418952618454,-0.005900578934662414,
0.09037406483790524,-0.012438911423050904,
0.09042394014962593,0.016755578783980714,
0.09047381546134663,-0.020519868925688346,
0.09052369077306734,-0.001359914536812592,
0.09057356608478803,0.009504000538902903,
0.09062344139650873,0.028265140775570578,
0.09067331670822942,0.0027417248016948286,
0.09072319201995012,0.009828902528695919,
0.09077306733167083,0.02694756067438983,
0.09082294264339152,0.017279913456071445,
0.09087281795511222,0.010405792344462506,
0.09092269326683292,0.0010085115051813275,
0.09097256857855361,0.016302145406578886,
0.09102244389027432,-0.0009900267638174587,
0.09107231920199502,0.017174997716529077,
0.09112219451371571,0.02361991038712742,
0.09117206982543641,0.006023087314495791,
0.0912219451371571,0.0228143283535531,
0.0912718204488778,-0.0014471631834890551,
0.09132169576059851,0.030295812317053864,
0.0913715710723192,-0.019115211384265897,
0.0914214463840399,-0.011830931145282846,
0.0914713216957606,0.007904752478210283,
0.09152119700748129,0.014223814866391005,
0.091571072319202,0.023504776495281925,
0.0916209476309227,0.03400942529835215,
0.09167082294264339,0.014094547613194256,
0.09172069825436409,0.015557379518908792,
0.09177057356608478,0.0004810321685452413,
0.09182044887780548,-0.0071446606743929345,
0.09187032418952619,0.026429935341288582,
0.09192019950124689,0.022155603490851685,
0.09197007481296758,0.024348208940270233,
0.09201995012468828,0.004563127318830636,
0.09206982543640897,0.00840212979674663,
0.09211970074812968,0.0199818371918611,
0.09216957605985038,0.028905695829961695,
0.09221945137157107,0.013445034008359126,
0.09226932668329177,0.026260683828540382,
0.09231920199501246,-0.016310541084390024,
0.09236907730673316,0.013419884154867799,
0.09241895261845387,-0.00342207071143066,
0.09246882793017457,0.022606531322330585,
0.09251870324189526,0.017908306520956662,
0.09256857855361596,0.03159526305841333,
0.09261845386533665,0.002317471725282405,
0.09266832917705736,0.027971368539983978,
0.09271820448877806,-0.003754819184268031,
0.09276807980049875,9.301842795975124e-06,
0.09281795511221945,0.03150376487449516,
0.09286783042394015,0.02897032984684677,
0.09291770573566084,0.020207014814673616,
0.09296758104738155,0.013859879958525088,
0.09301745635910225,0.011153970422543793,
0.09306733167082294,0.023578085093792122,
0.09311720698254364,0.010708241357940029,
0.09316708229426433,-0.006723798255762605,
0.09321695760598504,0.03293530957210833,
0.09326683291770574,0.0022696063543670326,
0.09331670822942643,0.031485311812102616,
0.09336658354114713,0.026177827126026867,
0.09341645885286783,0.01890783868169697,
0.09346633416458854,8.939541347763313e-05,
0.09351620947630923,0.002830138103381917,
0.09356608478802993,0.013843030893084841,
0.09361596009975062,0.021953219942245666,
0.09366583541147132,0.06493610169773606,
0.09371571072319201,0.0163648777739927,
0.09376558603491272,0.022375955036800853,
0.09381546134663342,0.02404645722811068,
0.09386533665835411,0.037324990983511636,
0.09391521197007481,0.018265098372801422,
0.0939650872817955,0.025755859135559545,
0.09401496259351622,0.019729110371721238,
0.09406483790523691,0.024170966370341978,
0.09411471321695761,0.030470436151391195,
0.0941645885286783,0.004210470133004126,
0.094214463840399,0.029241288493894783,
0.0942643391521197,0.04042117636461378,
0.0943142144638404,0.033441164379747174,
0.0943640897755611,0.03471764148164935,
0.0944139650872818,0.024574430152646272,
0.09446384039900249,0.026086578429064488,
0.09451371571072319,0.040565082271663104,
0.0945635910224439,0.036117846782644174,
0.09461346633416459,0.012985039546974492,
0.09466334164588529,0.023253094427550462,
0.09471321695760598,0.05410978732428156,
0.09476309226932668,0.011864677582519342,
0.09481296758104737,0.02638350012667867,
0.09486284289276808,0.03048221065310756,
0.09491271820448878,0.04183651549367857,
0.09496259351620948,0.02573527286023809,
0.09501246882793017,0.06141858531726491,
0.09506234413965087,0.030467522349046594,
0.09511221945137158,0.029898748207035305,
0.09516209476309227,0.025552101390459152,
0.09521197007481297,0.05586573375340199,
0.09526184538653366,0.013678160702042717,
0.09531172069825436,0.0036191923062567147,
0.09536159600997507,0.03237738069589917,
0.09541147132169576,0.028352065195214174,
0.09546134663341646,0.05618663833084048,
0.09551122194513716,0.018225394266268923,
0.09556109725685785,0.024823806170422864,
0.09561097256857855,0.024358719365228883,
0.09566084788029926,0.03103246662363337,
0.09571072319201995,0.03529100841063195,
0.09576059850374065,0.04169401193555237,
0.09581047381546134,0.018494014689232965,
0.09586034912718204,0.008871516535131865,
0.09591022443890275,-0.003480738787353565,
0.09596009975062345,0.012449691808449456,
0.09600997506234414,0.012267353267947591,
0.09605985037406484,0.025964000213943773,
0.09610972568578553,0.030953118321697077,
0.09615960099750623,0.053362687045781704,
0.09620947630922694,0.02272044127982621,
0.09625935162094763,0.029883098730603904,
0.09630922693266833,0.01663031887509516,
0.09635910224438902,0.033953934446578196,
0.09640897755610972,0.03219757224351025,
0.09645885286783043,0.0377286583223919,
0.09650872817955113,0.030389757038824333,
0.09655860349127182,0.016065705448497114,
0.09660847880299252,0.02262783131357791,
0.09665835411471321,0.009541034164840218,
0.09670822942643391,0.004993070914999422,
0.09675810473815462,0.054719751559924874,
0.09680798004987531,0.029506772609567307,
0.09685785536159601,0.03196671909088398,
0.0969077306733167,0.05051642384250499,
0.0969576059850374,0.013694941205415895,
0.09700748129675811,0.019752423497156325,
0.0970573566084788,0.01770939547975542,
0.0971072319201995,0.006666775883838804,
0.0971571072319202,0.053325860169760236,
0.0972069825436409,0.028187581523697165,
0.09725685785536159,0.0042681417436969335,
0.0973067331670823,0.019276285973370583,
0.097356608478803,0.011731666775823933,
0.09740648379052369,0.033390544892058664,
0.09745635910224439,0.00900686347368162,
0.09750623441396508,-0.003912013933025527,
0.09755610972568579,0.01944821643412805,
0.09760598503740649,0.01930176514033835,
0.09765586034912718,0.032615055359902674,
0.09770573566084788,0.038688373645070676,
0.09775561097256857,0.029159498793716397,
0.09780548628428928,0.04472376626490372,
0.09785536159600998,0.024866604098043997,
0.09790523690773068,0.05942070701523269,
0.09795511221945137,0.05083149516276452,
0.09800498753117207,0.010558675774938317,
0.09805486284289276,0.00409303775491713,
0.09810473815461347,0.007817867249646428,
0.09815461346633417,0.018920452099575612,
0.09820448877805486,0.009540525008591233,
0.09825436408977556,0.01526275300040996,
0.09830423940149625,-0.001281269856960733,
0.09835411471321696,0.0029711383280818585,
0.09840399002493766,0.033605119971233624,
0.09845386533665836,0.020617125841996074,
0.09850374064837905,0.031773914305752736,
0.09855361596009975,0.027256095480120528,
0.09860349127182044,0.055657819966560926,
0.09865336658354115,0.031283651790643734,
0.09870324189526185,0.03248712690984464,
0.09875311720698254,0.032236087869667585,
0.09880299251870324,0.013003240993324486,
0.09885286783042393,0.011923535776560844,
0.09890274314214464,0.0447184133064376,
0.09895261845386534,0.03400081219056571,
0.09900249376558604,0.018227818573534102,
0.09905236907730673,0.05439741553443843,
0.09910224438902743,0.035828747149821205,
0.09915211970074812,0.019266293939841302,
0.09920199501246883,0.04204999067116725,
0.09925187032418953,0.028233373621649127,
0.09930174563591022,0.027562942289676796,
0.09935162094763092,0.037194778101105344,
0.09940149625935162,0.025026593705967964,
0.09945137157107233,0.01815764148615592,
0.09950124688279302,0.006649015038921317,
0.09955112219451372,0.028746317606473233,
0.09960099750623441,0.004248964213663791,
0.09965087281795511,0.026372353029748885,
0.0997007481296758,0.009096996582570948,
0.09975062344139651,0.006551613482796249,
0.09980049875311721,0.022877493069859804,
0.0998503740648379,0.028118027080299965,
0.0999002493765586,0.005254425203856553,
0.0999501246882793,0.009560563621071069,
0.1,0.002023968160489156,
0.1000498753117207,0.0033984122023855267,
0.1000997506234414,0.01441956949506995,
0.10014962593516209,0.02065900497590215,
0.10019950124688279,0.007536355494148765,
0.1002493765586035,0.0017940045638776521,
0.1002992518703242,-0.007452529182031601,
0.10034912718204489,0.025331853715906766,
0.10039900249376559,-0.023064295969267855,
0.10044887780548628,0.030421756899325966,
0.10049875311720698,0.00016205444853471113,
0.10054862842892769,0.02143367179015117,
0.10059850374064838,0.053173611138243385,
0.10064837905236908,0.009618302147011707,
0.10069825436408977,0.012002498764102053,
0.10074812967581047,-0.008141583220005777,
0.10079800498753118,0.01678290699005829,
0.10084788029925187,0.009627448819475058,
0.10089775561097257,0.02537148709543576,
0.10094763092269327,0.018897299605682007,
0.10099750623441396,0.0016481657298211883,
0.10104738154613466,-0.025989565081961485,
0.10109725685785537,0.009664119871209773,
0.10114713216957606,-0.02161112297474964,
0.10119700748129676,0.008730854081033367,
0.10124688279301745,0.01964707869831433,
0.10129675810473815,0.018940886147829367,
0.10134663341645886,-0.016447957028384443,
0.10139650872817955,0.006930522743558832,
0.10144638403990025,0.009814662556270098,
0.10149625935162095,-0.025728406772121314,
0.10154613466334164,-0.008574956249498687,
0.10159600997506234,0.0013098474860107185,
0.10164588528678305,-0.012363762751623254,
0.10169576059850374,0.0061578517119802376,
0.10174563591022444,0.007318392545228318,
0.10179551122194513,0.0021131092718048735,
0.10184538653366583,0.025301298151294085,
0.10189526184538654,0.015280611289893109,
0.10194513715710724,-0.0005937102072680206,
0.10199501246882793,-0.03091304944790503,
0.10204488778054863,-0.02877416877256966,
0.10209476309226932,-0.000892168428646886,
0.10214463840399003,-0.04760037759301821,
0.10219451371571073,0.002322591947869516,
0.10224438902743142,-0.005896871686275628,
0.10229426433915212,0.03116218774694258,
0.10234413965087281,-0.03759449025731958,
0.10239401496259351,0.001815521313170458,
0.10244389027431422,-5.915300010290742e-05,
0.10249376558603492,-0.00693334778339859,
0.10254364089775561,-0.010286326127996539,
0.10259351620947631,-0.012477487721041118,
0.102643391521197,-0.009259603099010204,
0.10269326683291771,-0.004026788323367573,
0.10274314214463841,-0.013066693661230887,
0.1027930174563591,0.0034291721838515645,
0.1028428927680798,-0.01082631959102702,
0.1028927680798005,0.011216157107610474,
0.10294264339152119,0.0030625600119199682,
0.1029925187032419,0.004268162479780267,
0.1030423940149626,-0.02286792016021426,
0.10309226932668329,-0.03666041838024516,
0.10314214463840399,0.00035039875727930266,
0.10319201995012468,-0.02092278266886643,
0.10324189526184539,-0.007627404881008436,
0.10329177057356609,-0.014554751072549391,
0.10334164588528678,-0.003764522790638083,
0.10339152119700748,-0.0030709721466687196,
0.10344139650872818,-0.030275424235508983,
0.10349127182044887,0.0030133788105204916,
0.10354114713216958,0.010589541225946957,
0.10359102244389028,-0.0003666452674233253,
0.10364089775561097,0.006354762542494613,
0.10369077306733167,0.0005584381782185316,
0.10374064837905236,-0.00788570091309223,
0.10379052369077307,-0.007642290358418227,
0.10384039900249377,-0.02256984457305294,
0.10389027431421446,0.00484478477333407,
0.10394014962593516,-0.0028120606981298785,
0.10399002493765586,0.022245028316103293,
0.10403990024937655,-0.01544032187489675,
0.10408977556109726,-0.01823833936689086,
0.10413965087281796,-0.008506276176287358,
0.10418952618453865,-0.023567711801033175,
0.10423940149625935,-0.0021265719394738727,
0.10428927680798004,-7.01789155784123e-06,
0.10433915211970075,0.0044843787772897836,
0.10438902743142145,-0.02038744449620372,
0.10443890274314215,-0.03339047360554285,
0.10448877805486284,0.01628643726813654,
0.10453865336658354,-0.019922017099638045,
0.10458852867830425,-0.02398527756160492,
0.10463840399002494,-0.026845904481185692,
0.10468827930174564,-0.019061750050827723,
0.10473815461346633,-0.012764487704256335,
0.10478802992518703,-0.024808590899538026,
0.10483790523690772,-0.011974508822010939,
0.10488778054862843,-0.012432291769896157,
0.10493765586034913,0.001850153794620519,
0.10498753117206983,-0.0035551144869301627,
0.10503740648379052,-0.021041352791584846,
0.10508728179551122,-0.0183344426360956,
0.10513715710723193,-0.017567529569530893,
0.10518703241895262,-0.006514209399125059,
0.10523690773067332,-0.024757444717147636,
0.10528678304239401,-0.007069544275263808,
0.10533665835411471,-0.03551193869679938,
0.1053865336658354,-0.02222520964988057,
0.10543640897755611,-0.03524916204694374,
0.10548628428927681,0.007447161900213559,
0.1055361596009975,-0.029142338813522198,
0.1055860349127182,-0.0017507634449769518,
0.1056359102244389,-0.037029274300489995,
0.10568578553615961,0.018429907635830876,
0.1057356608478803,-0.006743238239893795,
0.105785536159601,-0.01532300971060484,
0.1058354114713217,-0.02769841860051335,
0.10588528678304239,0.011682311812665535,
0.10593516209476309,-0.008878361403480767,
0.1059850374064838,0.004755971455750838,
0.10603491271820449,-0.016257523030983743,
0.10608478802992519,-0.013753455139125424,
0.10613466334164588,-0.005250585021707067,
0.10618453865336658,-0.000899352017789316,
0.10623441396508729,-0.008786350383772318,
0.10628428927680798,-0.028527625143023597,
0.10633416458852868,0.0006363827496029054,
0.10638403990024937,-0.05136848121917767,
0.10643391521197007,-0.031071444845370753,
0.10648379052369077,0.018929222690672008,
0.10653366583541148,0.006072566385529884,
0.10658354114713217,0.005447557522229885,
0.10663341645885287,-0.03034835861360731,
0.10668329177057356,0.018204949497154323,
0.10673316708229426,0.007816671392911305,
0.10678304239401497,-0.003470568965381179,
0.10683291770573566,-0.011577857556774264,
0.10688279301745636,-0.024832346867833786,
0.10693266832917706,0.02753556677687234,
0.10698254364089775,0.0044479953125147395,
0.10703241895261846,-0.01702237736256832,
0.10708229426433916,-0.012204494850660474,
0.10713216957605985,-0.0016762435315938774,
0.10718204488778055,-0.006576963701441233,
0.10723192019950124,0.00539443056564403,
0.10728179551122194,-0.006600962229627616,
0.10733167082294265,0.004129807512574555,
0.10738154613466334,-0.010284519284314876,
0.10743142144638404,0.0014425962572719876,
0.10748129675810474,-0.014275261002884027,
0.10753117206982543,-0.03919589706982623,
0.10758104738154614,-0.028494718596636104,
0.10763092269326684,0.0016297017873858882,
0.10768079800498753,-0.0014118515626001683,
0.10773067331670823,-0.02640075335559468,
0.10778054862842892,-0.014226738316538597,
0.10783042394014962,-0.016663399127224823,
0.10788029925187033,0.01205165712910908,
0.10793017456359102,-0.04454512602674868,
0.10798004987531172,-0.02032804031409164,
0.10802992518703242,-0.0005229867872914747,
0.10807980049875311,-0.020490672126347233,
0.10812967581047382,0.0017581882564506844,
0.10817955112219452,-0.03585534543199499,
0.10822942643391521,-0.015244674956902293,
0.10827930174563591,0.0004957585623669358,
0.1083291770573566,-0.002296870573736461,
0.1083790523690773,-0.006871562901216415,
0.10842892768079801,0.009390268986660733,
0.1084788029925187,0.0024135825527060685,
0.1085286783042394,-0.012104740645137781,
0.1085785536159601,0.020366463133091782,
0.10862842892768079,-0.0020165503211694437,
0.1086783042394015,-0.0006935992858400908,
0.1087281795511222,0.0032034207231948462,
0.1087780548628429,0.012142901220152467,
0.10882793017456359,0.019442493116535356,
0.10887780548628428,-0.020610082608615472,
0.108927680798005,-0.005520106691345984,
0.10897755610972569,0.009470484608426788,
0.10902743142144639,0.0011976176106676664,
0.10907730673316708,0.018896906016912064,
0.10912718204488778,-0.007380569181075179,
0.10917705735660847,-0.0025739377707029074,
0.10922693266832918,-0.004638208694183869,
0.10927680798004988,0.03629658249518859,
0.10932668329177057,0.030718936888132778,
0.10937655860349127,-0.008564834141591291,
0.10942643391521197,-0.015557925782261929,
0.10947630922693267,-0.022596016798810948,
0.10952618453865337,0.005043245216801146,
0.10957605985037407,0.0023186202262056566,
0.10962593516209476,0.017129329532172693,
0.10967581047381546,-0.025292606899351384,
0.10972568578553615,-0.006583497430456827,
0.10977556109725686,0.014102399764011567,
0.10982543640897756,0.012690174446970626,
0.10987531172069825,-0.004271646469274942,
0.10992518703241895,-0.011296200717306911,
0.10997506234413965,0.01930250623374443,
0.11002493765586036,0.01092234017752038,
0.11007481296758105,-0.027305325962914476,
0.11012468827930175,0.03198808824146639,
0.11017456359102244,0.005891099999759553,
0.11022443890274314,-0.019229261070177934,
0.11027431421446383,0.0028831983018855435,
0.11032418952618454,0.006700749392031579,
0.11037406483790524,0.031433245212911125,
0.11042394014962593,-0.002543506624505445,
0.11047381546134663,0.034734851242841536,
0.11052369077306733,-0.007965618604015588,
0.11057356608478804,0.03851843024364939,
0.11062344139650873,-0.016821187784228073,
0.11067331670822943,0.028661224298428635,
0.11072319201995012,0.018393616223543467,
0.11077306733167082,-0.0018079526873103925,
0.11082294264339151,0.004419547472350853,
0.11087281795511222,0.014012683201840397,
0.11092269326683292,0.010491840018460909,
0.11097256857855362,0.03191299793370735,
0.11102244389027431,0.019674706328068937,
0.111072319201995,-0.008084814030075951,
0.11112219451371572,0.0029542186828573538,
0.11117206982543641,0.018668149780378167,
0.11122194513715711,0.035015796269638313,
0.1112718204488778,0.02199479734668095,
0.1113216957605985,-0.0012656517890498563,
0.11137157107231921,0.02803007132141573,
0.1114214463840399,0.025335243007098128,
0.1114713216957606,0.0019991264535300732,
0.1115211970074813,0.0033124656647666017,
0.11157107231920199,0.033799899798578545,
0.11162094763092269,0.00977661549468209,
0.1116708229426434,0.012726797017550391,
0.11172069825436409,-0.001011387577642544,
0.11177057356608479,0.006597981645130629,
0.11182044887780548,-0.0168085734739622,
0.11187032418952618,0.04989792333561926,
0.11192019950124689,0.014565785734899887,
0.11197007481296758,0.008724964658417492,
0.11201995012468828,0.012564460754943864,
0.11206982543640898,0.012557114933121012,
0.11211970074812967,-0.010479556867078892,
0.11216957605985037,0.00927192440631915,
0.11221945137157108,0.013636698453544028,
0.11226932668329177,0.008992098449314695,
0.11231920199501247,0.0074244164096530976,
0.11236907730673316,0.016959539727952676,
0.11241895261845386,0.04102801084134361,
0.11246882793017457,0.010995610630655036,
0.11251870324189527,0.04154941655395632,
0.11256857855361596,0.035414939252833906,
0.11261845386533666,0.02966344937637764,
0.11266832917705735,0.019373764168458728,
0.11271820448877805,0.03485696132791209,
0.11276807980049876,0.014726613866402167,
0.11281795511221945,0.03248307891104947,
0.11286783042394015,0.0017637424188567154,
0.11291770573566084,0.05744770422698416,
0.11296758104738154,0.04943436141703557,
0.11301745635910225,0.01509377233224245,
0.11306733167082295,0.007965173103922822,
0.11311720698254364,-0.023475799701786287,
0.11316708229426434,0.02311068926313789,
0.11321695760598503,0.04533921916661753,
0.11326683291770574,0.031506019239464444,
0.11331670822942644,0.044172161222504225,
0.11336658354114713,0.018916515748596836,
0.11341645885286783,0.020369331330599167,
0.11346633416458853,0.040456953122568536,
0.11351620947630922,0.026985848952882096,
0.11356608478802993,0.02662783821148988,
0.11361596009975063,0.03547782526119244,
0.11366583541147132,0.033463797743871156,
0.11371571072319202,0.026308706007798707,
0.11376558603491271,-0.004978720687670728,
0.11381546134663342,0.011684459713107637,
0.11386533665835412,0.0518854710094744,
0.11391521197007481,0.02842681787391364,
0.11396508728179551,0.014067609614575812,
0.1140149625935162,0.02536709817223504,
0.1140648379052369,0.040527035920789295,
0.11411471321695761,0.019550795970638992,
0.1141645885286783,0.02133602778091513,
0.114214463840399,0.035450925409780856,
0.1142643391521197,0.016436696517858732,
0.1143142144638404,0.008194683994608473,
0.1143640897755611,0.014835366829531038,
0.1144139650872818,0.012457856529288562,
0.1144638403990025,-0.008039061372514221,
0.11451371571072319,0.023842263390684383,
0.11456359102244389,0.04816889880719026,
0.11461346633416458,0.026848151791429804,
0.11466334164588529,0.018221730026332067,
0.11471321695760599,0.008181903131152756,
0.11476309226932668,0.02597594408663228,
0.11481296758104738,0.02448078994538116,
0.11486284289276807,0.029327649490109384,
0.11491271820448878,0.07330600781762596,
0.11496259351620948,0.04083337200600188,
0.11501246882793018,0.0329356496765859,
0.11506234413965087,0.012723122057113945,
0.11511221945137157,0.04929867491128216,
0.11516209476309226,0.04002035835694224,
0.11521197007481297,0.06219535467904617,
0.11526184538653367,0.0207513946667528,
0.11531172069825436,0.0300207482815324,
0.11536159600997506,0.05129439283317487,
0.11541147132169575,0.01586891333445616,
0.11546134663341646,0.014873330601735136,
0.11551122194513716,0.0486603271194367,
0.11556109725685786,0.016089707719891225,
0.11561097256857855,0.014438424419570947,
0.11566084788029925,0.024411326516752818,
0.11571072319201996,0.02381521425997136,
0.11576059850374065,0.05316182430907668,
0.11581047381546135,0.04162814051362981,
0.11586034912718204,0.03147883713813415,
0.11591022443890274,0.012846535178236598,
0.11596009975062344,0.04367248437376663,
0.11600997506234415,0.04341555251986849,
0.11605985037406484,0.05355199439148893,
0.11610972568578554,0.040446277644007746,
0.11615960099750623,0.03189243106151315,
0.11620947630922693,0.006020969646957728,
0.11625935162094764,0.023312831433774432,
0.11630922693266833,0.038906947807793996,
0.11635910224438903,0.01029669617547102,
0.11640897755610972,0.03411465175979362,
0.11645885286783042,-0.005277114332536012,
0.11650872817955112,0.029373380034537745,
0.11655860349127183,0.03217490404544124,
0.11660847880299252,0.058262336199350104,
0.11665835411471322,0.018212068263538623,
0.11670822942643391,0.021296228079310982,
0.11675810473815461,0.047949417355554774,
0.11680798004987532,0.03130073244033503,
0.11685785536159601,0.012726120963245754,
0.11690773067331671,0.016331548159672013,
0.1169576059850374,0.015197857587978796,
0.1170074812967581,0.016210210745816765,
0.1170573566084788,0.05421772509571144,
0.1171072319201995,0.04529269478481868,
0.1171571072319202,0.03384176510377093,
0.1172069825436409,0.03258571197524066,
0.1172568578553616,0.0344783124411369,
0.11730673316708229,0.03693818252268285,
0.117356608478803,0.03466936455551525,
0.1174064837905237,0.01779512647094962,
0.11745635910224439,0.040646537203209945,
0.11750623441396509,0.035153495983441585,
0.11755610972568578,0.021479893402867555,
0.11760598503740648,0.01878553994794506,
0.11765586034912719,0.021988023405158142,
0.11770573566084788,0.015502131000365005,
0.11775561097256858,0.036412073036737366,
0.11780548628428927,0.021865662125258388,
0.11785536159600997,0.03045214532369867,
0.11790523690773068,0.04883199772639095,
0.11795511221945137,-0.01382841648128521,
0.11800498753117207,0.004431314975405023,
0.11805486284289277,0.012985199628979151,
0.11810473815461346,0.008701461954711286,
0.11815461346633417,0.016493035670700963,
0.11820448877805487,0.050232612081936336,
0.11825436408977556,0.022261122052687043,
0.11830423940149626,0.02905866446689176,
0.11835411471321695,0.05217102812448789,
0.11840399002493765,0.012813887440447123,
0.11845386533665836,0.030515900568658758,
0.11850374064837906,0.04009760687453492,
0.11855361596009975,0.04380942575855845,
0.11860349127182045,0.0415798267481431,
0.11865336658354114,0.04383694175274512,
0.11870324189526185,-0.012569023870455078,
0.11875311720698255,0.006464259208129451,
0.11880299251870324,0.025224910749539437,
0.11885286783042394,0.0012325775260550141,
0.11890274314214463,0.017233777326250668,
0.11895261845386533,0.03617009442349822,
0.11900249376558604,0.023064998950497892,
0.11905236907730674,0.04422216446369407,
0.11910224438902743,0.013737137630361291,
0.11915211970074813,0.003826971611858616,
0.11920199501246882,0.03902573859589326,
0.11925187032418953,0.0031944220146931154,
0.11930174563591023,0.0317512064378837,
0.11935162094763092,-0.012745930239770765,
0.11940149625935162,0.0025226719655224265,
0.11945137157107232,0.016651439699154745,
0.11950124688279301,0.012495684801645738,
0.11955112219451372,0.018786422690151218,
0.11960099750623442,-0.014138599004725187,
0.11965087281795511,0.026792251067834207,
0.11970074812967581,0.030219241852263087,
0.1197506234413965,0.01173959348066907,
0.11980049875311721,-0.0024209566989629415,
0.11985037406483791,0.03246740582952369,
0.1199002493765586,0.016204479193179803,
0.1199501246882793,-0.001484593599517664,
0.12,0.012011179971744518,
0.1200498753117207,0.04117292533230045,
0.1200997506234414,0.027082518299709445,
0.1201496259351621,0.005228872806623897,
0.12019950124688279,-0.006162290378143882,
0.12024937655860349,0.0040526951417885855,
0.12029925187032418,0.030637923432736268,
0.1203491271820449,-0.00434847871662002,
0.12039900249376559,0.012721891151483419,
0.12044887780548628,-0.02778777310873401,
0.12049875311720698,0.01240895169135544,
0.12054862842892768,0.01600246903643268,
0.12059850374064839,0.006012496764371789,
0.12064837905236908,-0.006250711979161241,
0.12069825436408978,0.014323038530927368,
0.12074812967581047,0.005797718289969814,
0.12079800498753117,-0.006238687966367592,
0.12084788029925186,-0.022611455180916028,
0.12089775561097257,-0.010532133040021886,
0.12094763092269327,-0.016443075710655765,
0.12099750623441397,-0.0029934558015093215,
0.12104738154613466,0.02853348952107307,
0.12109725685785536,-0.00577266097588895,
0.12114713216957607,0.0016697033286937504,
0.12119700748129676,-0.00047652289196183865,
0.12124688279301746,-0.007417674557120672,
0.12129675810473815,-0.00418421979929933,
0.12134663341645885,-0.0009530311150407556,
0.12139650872817954,0.006006805902083721,
0.12144638403990025,0.017389756344745887,
0.12149625935162095,0.016818875047237482,
0.12154613466334165,-0.00771969636418256,
0.12159600997506234,0.0033998835946641775,
0.12164588528678304,-0.005701492290856512,
0.12169576059850375,0.007219203233762353,
0.12174563591022444,0.033533194332886415,
0.12179551122194514,-0.021370617424080036,
0.12184538653366583,-0.004129566857182415,
0.12189526184538653,0.017067281328100824,
0.12194513715710723,0.01637217673089852,
0.12199501246882793,0.01203617556547366,
0.12204488778054863,0.003253668441924946,
0.12209476309226933,0.023718824284136075,
0.12214463840399002,0.009592952809384768,
0.12219451371571072,0.006438728733815351,
0.12224438902743143,0.022070238237938557,
0.12229426433915212,0.000429178366503565,
0.12234413965087282,-0.021988609666559723,
0.12239401496259351,0.0025122292002303422,
0.12244389027431421,-0.0032183428083169185,
0.12249376558603492,0.00952826908937477,
0.12254364089775562,-0.012126698407114188,
0.12259351620947631,-0.021115364165539698,
0.122643391521197,-0.004674946094141617,
0.1226932668329177,-0.018966865219895906,
0.1227431421446384,0.002812335485824668,
0.12279301745635911,0.017965514315290025,
0.1228428927680798,-0.005579511881735392,
0.1228927680798005,-0.004199623027726645,
0.1229426433915212,0.007410945314752802,
0.12299251870324189,-0.0035861289127158058,
0.1230423940149626,-0.023937589248714124,
0.1230922693266833,-0.009347526694304272,
0.12314214463840399,-0.005313815630449656,
0.12319201995012469,0.0034686299505565683,
0.12324189526184538,0.008056975194994532,
0.12329177057356608,0.0006328400991582909,
0.12334164588528679,0.011964454476369337,
0.12339152119700748,-0.015873252137956442,
0.12344139650872818,-0.006036329147122458,
0.12349127182044888,-0.009793747204839297,
0.12354114713216957,-0.02215235893019227,
0.12359102244389028,-0.0008195496707142967,
0.12364089775561098,0.008407455091584408,
0.12369077306733167,0.008542336612737025,
0.12374064837905237,-0.019000447153887295,
0.12379052369077306,-0.02959832684035035,
0.12384039900249376,-0.027283875796464616,
0.12389027431421447,0.002125198265009091,
0.12394014962593516,0.007709769783564182,
0.12399002493765586,-0.013331325278513387,
0.12403990024937656,0.009210236991510471,
0.12408977556109725,-0.002952675387164619,
0.12413965087281796,-0.023062367310633908,
0.12418952618453866,0.010468473061170892,
0.12423940149625935,0.008063531618412802,
0.12428927680798005,-0.027947458599020876,
0.12433915211970074,0.00630260190994157,
0.12438902743142144,-0.017180253897560123,
0.12443890274314215,-0.03307014310394553,
0.12448877805486284,-0.014199189643826299,
0.12453865336658354,-0.022656392505184968,
0.12458852867830424,0.016792109503259343,
0.12463840399002493,-0.0256490121543586,
0.12468827930174564,0.016269374222951234,
0.12473815461346634,-0.004291023466329374,
0.12478802992518703,0.0031256839834967135,
0.12483790523690773,-0.009322425458069713,
0.12488778054862842,-0.020075063158766424,
0.12493765586034913,-0.024720410524231618,
0.12498753117206983,0.015235448277126739,
0.12503740648379053,-0.026455910688214224,
0.12508728179551123,0.00993884509016115,
0.12513715710723192,-0.021675848958423782,
0.12518703241895263,0.0054036073973086265,
0.1252369077306733,-0.0026118626001219725,
0.12528678304239402,0.012150571214486148,
0.1253366583541147,0.013192440846849953,
0.1253865336658354,-0.015846682386629434,
0.12543640897755612,-0.007413636597146589,
0.1254862842892768,-0.028592416303271646,
0.1255361596009975,-0.009482263387342722,
0.1255860349127182,-0.023005436026071753,
0.1256359102244389,-0.00995395016849423,
0.1256857855361596,-0.03626446493273583,
0.1257356608478803,-0.0170532925001516,
0.125785536159601,-0.020848421301287688,
0.12583541147132168,-0.0015413082043000004,
0.1258852867830424,-0.01660475906427939,
0.1259351620947631,0.016146859037886895,
0.12598503740648379,-0.0065088449117545,
0.1260349127182045,-0.007685904848148475,
0.12608478802992518,-0.004065547411220484,
0.1261346633416459,-0.015998086811665396,
0.1261845386533666,-0.022263205659411655,
0.12623441396508728,-0.010235274193229402,
0.126284289276808,-0.020358293900816643,
0.12633416458852867,-0.009070806844411316,
0.12638403990024938,-0.0008871864739138317,
0.1264339152119701,-0.014335225601675118,
0.12648379052369077,-0.005520528066120947,
0.12653366583541148,0.001986027353455445,
0.12658354114713216,-0.005131421998388173,
0.12663341645885287,-0.014752315702385463,
0.12668329177057355,0.007553025021103785,
0.12673316708229426,-0.019195692793668267,
0.12678304239401497,0.0013484166832221957,
0.12683291770573565,-0.03625516915383067,
0.12688279301745636,-0.02804428981500382,
0.12693266832917705,-0.03784642544811753,
0.12698254364089775,-0.012369837150441126,
0.12703241895261846,-0.0010691332832070116,
0.12708229426433915,-0.021619681899541617,
0.12713216957605986,-0.00943652040536992,
0.12718204488778054,-0.011765533213386203,
0.12723192019950125,-0.026162223106165422,
0.12728179551122196,-1.3993200680181145e-06,
0.12733167082294264,-0.029690031102186883,
0.12738154613466335,-0.028944853510717815,
0.12743142144638403,0.009374181979769507,
0.12748129675810474,-0.010748100791268941,
0.12753117206982545,-0.010584470882546174,
0.12758104738154613,0.018379812592989906,
0.12763092269326684,-0.010713159181570064,
0.12768079800498752,0.007798822185057314,
0.12773067331670823,-0.011691913970719024,
0.1277805486284289,-0.03785541095763497,
0.12783042394014962,-0.009156778251106128,
0.12788029925187033,0.00026767329785981446,
0.12793017456359101,0.0021612105908963165,
0.12798004987531172,-0.02972716614670797,
0.1280299251870324,-0.020273565512991545,
0.12807980049875312,-0.00438391364123693,
0.12812967581047383,0.00867782894556204,
0.1281795511221945,-0.03458303464388436,
0.12822942643391522,0.009083827805727722,
0.1282793017456359,0.004670152111328728,
0.1283291770573566,-0.021019601524929044,
0.12837905236907732,-0.011339251557706079,
0.128428927680798,-0.0008477243265373352,
0.1284788029925187,-0.01976884415349156,
0.1285286783042394,0.0053377375990374615,
0.1285785536159601,-0.010606227189371147,
0.1286284289276808,-0.0054810884771943815,
0.1286783042394015,0.0033974340407839747,
0.1287281795511222,-0.030983772124470725,
0.12877805486284288,0.026070739762499726,
0.1288279301745636,-0.008448869045293145,
0.1288778054862843,0.026033653461425048,
0.12892768079800498,-0.003116297018334195,
0.1289775561097257,0.01753201686132938,
0.12902743142144638,0.0057799233433198,
0.12907730673316709,-0.010972159410441924,
0.12912718204488777,-0.011341265926436436,
0.12917705735660848,-0.009581666268762995,
0.1292269326683292,0.0035469495460556805,
0.12927680798004987,0.00691934398694777,
0.12932668329177058,0.005371504098966126,
0.12937655860349126,-0.003301359459445574,
0.12942643391521197,0.014344416680385094,
0.12947630922693268,-0.0008017737628585658,
0.12952618453865336,-0.0047819205553622434,
0.12957605985037407,-0.013061344155601517,
0.12962593516209475,-0.02323383554284407,
0.12967581047381546,-0.005209096918801954,
0.12972568578553617,0.020866536831187298,
0.12977556109725685,-0.00430490260381309,
0.12982543640897756,-0.0010866911335663722,
0.12987531172069824,-0.005834034466123518,
0.12992518703241895,0.007779790272342208,
0.12997506234413966,-0.020484952471213333,
0.13002493765586035,-0.014260433651107742,
0.13007481296758105,0.002028032321138605,
0.13012468827930174,0.011775634495031778,
0.13017456359102245,0.015411494208458765,
0.13022443890274316,-0.005139548977286957,
0.13027431421446384,0.001205611848699122,
0.13032418952618455,0.03868764063378546,
0.13037406483790523,0.0049967420474642185,
0.13042394014962594,-0.017868999627277504,
0.13047381546134662,0.002466969750033865,
0.13052369077306733,0.011192612805407464,
0.13057356608478804,0.010289685840298459,
0.13062344139650872,-0.006090415900678022,
0.13067331670822943,0.01831358133948308,
0.1307231920199501,0.045063145704882575,
0.13077306733167082,0.015774278678793188,
0.13082294264339153,-0.00963958738642065,
0.13087281795511221,-0.00577227280378805,
0.13092269326683292,0.002399885481378077,
0.1309725685785536,0.005237636171487742,
0.13102244389027431,-0.011718554747355317,
0.13107231920199502,0.03564951621089831,
0.1311221945137157,0.03204801628550491,
0.13117206982543642,0.004532223306284687,
0.1312219451371571,0.021302498020221383,
0.1312718204488778,0.022979760441132514,
0.13132169576059852,0.025939757659227375,
0.1313715710723192,0.015683572653130414,
0.1314214463840399,0.01977999996265338,
0.1314713216957606,0.028848294263260847,
0.1315211970074813,0.014259383784373197,
0.13157107231920198,-0.010601105996990944,
0.1316209476309227,0.04027054502179372,
0.1316708229426434,0.018255919513033014,
0.13172069825436408,0.01678580894781525,
0.1317705735660848,0.031152020776927344,
0.13182044887780547,-0.02294097132617721,
0.13187032418952618,0.04600342031141525,
0.1319201995012469,0.018426865718516556,
0.13197007481296757,0.03376524872209442,
0.13201995012468828,0.026932763547544165,
0.13206982543640897,0.02150697768698705,
0.13211970074812968,0.016171209159313707,
0.13216957605985039,0.014471033351526084,
0.13221945137157107,0.02497160689554489,
0.13226932668329178,0.03705879395443766,
0.13231920199501246,0.01128672476505693,
0.13236907730673317,0.04740158872833357,
0.13241895261845388,0.029046802204663612,
0.13246882793017456,0.01870132514105156,
0.13251870324189527,0.006463794640629478,
0.13256857855361595,0.022135371383079493,
0.13261845386533666,0.03810284964061117,
0.13266832917705737,0.020249523642001468,
0.13271820448877805,0.02665025903753176,
0.13276807980049876,0.026663582254944043,
0.13281795511221944,0.009255543572036607,
0.13286783042394015,0.005658857809625873,
0.13291770573566083,0.02950161074714696,
0.13296758104738154,0.012491439517271871,
0.13301745635910225,0.003985181444900614,
0.13306733167082294,0.02852560087262283,
0.13311720698254365,0.014466502909450882,
0.13316708229426433,-0.0066069069110174065,
0.13321695760598504,0.0018679969570868926,
0.13326683291770575,0.029582968780579616,
0.13331670822942643,0.023326457363870054,
0.13336658354114714,0.0560780233817826,
0.13341645885286782,0.02343177336948435,
0.13346633416458853,0.020071125779028132,
0.13351620947630924,0.010311299797800488,
0.13356608478802992,0.015509327120252377,
0.13361596009975063,0.034980171337066504,
0.1336658354114713,0.01385752385841509,
0.13371571072319202,0.03773343098952579,
0.13376558603491273,0.02040335524891749,
0.1338154613466334,0.02359419629854643,
0.13386533665835412,0.009442366282419266,
0.1339152119700748,0.03220563504935036,
0.13396508728179551,0.0015884336055649179,
0.1340149625935162,0.0299143430980661,
0.1340648379052369,0.048501109936907615,
0.13411471321695762,0.05551389450865223,
0.1341645885286783,0.02185236470315272,
0.134214463840399,0.025962839770804914,
0.1342643391521197,0.023448080931107645,
0.1343142144638404,0.06114601981531985,
0.1343640897755611,0.01687115592132027,
0.1344139650872818,0.039758467806197954,
0.1344638403990025,0.01805588148191989,
0.13451371571072318,0.03279392112049786,
0.1345635910224439,0.017248928725650273,
0.1346134663341646,0.053886160745279174,
0.13466334164588528,0.032478100629779995,
0.134713216957606,0.012623838304906064,
0.13476309226932667,0.0397309033212622,
0.13481296758104738,0.013212151876229677,
0.1348628428927681,0.009696496988627287,
0.13491271820448877,0.04124264673699902,
0.13496259351620948,0.05066681322939897,
0.13501246882793017,0.026515205095212123,
0.13506234413965088,0.023208458147996193,
0.13511221945137158,0.010326203592153,
0.13516209476309227,0.043380650390929504,
0.13521197007481298,0.046223135493674364,
0.13526184538653366,0.054222851763659666,
0.13531172069825437,0.05317581531312228,
0.13536159600997505,0.030209441140788607,
0.13541147132169576,0.009203392754087235,
0.13546134663341647,0.021837399744269126,
0.13551122194513715,0.045452123542055994,
0.13556109725685786,0.04394215408015088,
0.13561097256857854,0.05122777789338566,
0.13566084788029925,0.022788035094107602,
0.13571072319201996,0.05316242460741186,
0.13576059850374064,0.027608173743783895,
0.13581047381546135,0.020685308756726736,
0.13586034912718203,0.014092819112115695,
0.13591022443890274,0.01698093432398523,
0.13596009975062345,0.019234167139902923,
0.13600997506234414,0.032985178764318134,
0.13605985037406484,0.01791408162826845,
0.13610972568578553,0.034728616716967586,
0.13615960099750624,0.03982412047735943,
0.13620947630922695,0.03798945312054081,
0.13625935162094763,0.026001373318819833,
0.13630922693266834,0.039566011282243865,
0.13635910224438902,0.055497436929825714,
0.13640897755610973,0.029610183592325173,
0.1364588528678304,0.005031301636879086,
0.13650872817955112,0.055790690288223116,
0.13655860349127183,0.04564024195062161,
0.1366084788029925,0.020796107827748753,
0.13665835411471322,0.02371021250780395,
0.1367082294264339,0.01491072854892814,
0.1367581047381546,0.05469137563806244,
0.13680798004987532,0.041127112899951204,
0.136857855361596,0.020869622503105836,
0.1369077306733167,-0.0073170100334266665,
0.1369576059850374,0.04224256740467551,
0.1370074812967581,0.054555148510628725,
0.13705735660847881,0.029019902608267423,
0.1371072319201995,0.005008686677359469,
0.1371571072319202,0.05036059419278396,
0.1372069825436409,0.042044502402094085,
0.1372568578553616,0.011464045823247827,
0.1373067331670823,0.020205876086403993,
0.137356608478803,0.04015752383251624,
0.1374064837905237,0.011634138104433027,
0.13745635910224438,0.03792516789072365,
0.1375062344139651,0.05592877733720164,
0.1375561097256858,0.015213185569393212,
0.13760598503740648,0.030670442209822582,
0.1376558603491272,0.06171887981564455,
0.13770573566084787,0.04286839199620551,
0.13775561097256858,0.012068201611938341,
0.13780548628428926,0.01953513847305561,
0.13785536159600997,0.0069146746252055635,
0.13790523690773068,0.024636072903615323,
0.13795511221945136,0.022326532921775295,
0.13800498753117207,0.034251608191394035,
0.13805486284289276,0.009877203684083718,
0.13810473815461347,0.03231938248927274,
0.13815461346633418,0.018050114525910137,
0.13820448877805486,0.036046363577995566,
0.13825436408977557,0.033854903070823214,
0.13830423940149625,0.008465773485930294,
0.13835411471321696,0.0588279218401349,
0.13840399002493767,0.032706244234870625,
0.13845386533665835,0.040657336359652546,
0.13850374064837906,0.05846271517562751,
0.13855361596009974,0.02565800901463724,
0.13860349127182045,0.0036795714594692365,
0.13865336658354116,0.03448393208166835,
0.13870324189526184,0.017839086199254558,
0.13875311720698255,0.017930946576029914,
0.13880299251870323,-0.005109735507043665,
0.13885286783042394,0.005079685514007788,
0.13890274314214462,0.019736530796922513,
0.13895261845386533,0.020621598336579033,
0.13900249376558604,0.01848051181009992,
0.13905236907730673,0.04676983064173177,
0.13910224438902744,0.03055459646415464,
0.13915211970074812,0.02497391106700759,
0.13920199501246883,0.027092416351592256,
0.13925187032418954,0.03336447443033736,
0.13930174563591022,0.025265311824873526,
0.13935162094763093,0.03236652906622585,
0.1394014962593516,0.009529440191215734,
0.13945137157107232,0.0133915731664466,
0.13950124688279303,0.005411973536803588,
0.1395511221945137,0.005452039712514073,
0.13960099750623442,0.009660834360475348,
0.1396508728179551,0.0053725751707485985,
0.1397007481296758,0.02248281145816136,
0.13975062344139652,0.009386276915247222,
0.1398004987531172,0.028827522015833343,
0.1398503740648379,0.006622896923566349,
0.1399002493765586,0.029137113195271437,
0.1399501246882793,0.03107640163026195,
0.14,-0.018803942367734368,
0.1400498753117207,0.02462110889205353,
0.1400997506234414,0.0017447852157599763,
0.1401496259351621,-0.002949630832263333,
0.1401995012468828,0.033765715768667,
0.14024937655860348,0.02148913553543301,
0.1402992518703242,0.012518180116650374,
0.1403491271820449,0.001901144585528992,
0.14039900249376558,-0.0034836912180234315,
0.1404488778054863,-0.03304720887548634,
0.14049875311720697,0.0005718904168185227,
0.14054862842892768,0.039449222301496605,
0.1405985037406484,0.016990071992291543,
0.14064837905236907,0.0011792674456834393,
0.14069825436408978,0.010265945984330773,
0.14074812967581046,0.0058835591467846435,
0.14079800498753117,0.019120584045866133,
0.14084788029925188,0.010086269340497644,
0.14089775561097256,0.004280713764269745,
0.14094763092269327,0.01646603123568101,
0.14099750623441396,0.008598423599598955,
0.14104738154613466,-0.036318013638885,
0.14109725685785537,-0.009508401664170812,
0.14114713216957606,-0.0010959020332579087,
0.14119700748129677,0.015620846144509828,
0.14124688279301745,0.014785004414356796,
0.14129675810473816,0.007684769737219691,
0.14134663341645887,0.02405707381954088,
