time,amplitude,label
0.0,0.0039380894106064365,
4.987531172069826e-05,-0.01357581582218301,
9.975062344139652e-05,-0.004552018175922075,
0.00014962593516209475,-0.03319076027303712,
0.00019950124688279303,-0.033739465244680314,
0.00024937655860349125,-0.01640274562891526,
0.0002992518703241895,-0.004450543158793018,
0.00034912718204488776,-0.03923697753315468,
0.00039900249376558606,-0.020762246357393238,
0.0004488778054862843,-0.026331669475866487,
0.0004987531172069825,0.0011064601388732775,
0.0005486284289276808,-0.034848512470366785,
0.000598503740648379,-0.01683050332993628,
0.0006483790523690773,-0.023432041716735692,
0.0006982543640897755,-0.013690313580743324,
0.0007481296758104738,-0.01004385474166141,
0.0007980049875311721,-0.028353292564355655,
0.0008478802992518703,-0.00953699685632531,
0.0008977556109725686,-0.043442265409778746,
0.0009476309226932668,-0.023624975065239147,
0.000997506234413965,-0.03428605529140587,
0.0010473815461346633,0.008179669998912408,
0.0010972568578553616,-0.009262610864203616,
0.00114713216957606,-0.0275516568243432,
0.001197007481296758,-0.04439814695468955,
0.0012468827930174563,-0.01472085662030999,
0.0012967581047381546,-0.02051596744286631,
0.001346633416458853,-0.0033802460446599077,
0.001396508728179551,-0.016094964734111677,
0.0014463840399002493,-0.025851058138271807,
0.0014962593516209476,-0.006425706874776095,
0.001546134663341646,-0.004642112745273942,
0.0015960099750623442,-0.02504348968157077,
0.0016458852867830423,-0.0030770787963764774,
0.0016957605985037406,-0.039380174045838226,
0.001745635910224439,0.025106986195639714,
0.0017955112219451373,-0.0016021278209070282,
0.0018453865336658353,-0.034250310167690666,
0.0018952618453865336,-0.010119358657298499,
0.001945137157107232,-0.01831111812229165,
0.00199501246882793,-0.010897705753337716,
0.0020448877805486283,-0.009711287668151566,
0.0020947630922693266,-0.013633790913941709,
0.002144638403990025,0.004453235596569955,
0.0021945137157107233,-0.010517027323651198,
0.0022443890274314216,-0.014620228281253658,
0.00229426433915212,-0.025362569109235386,
0.0023441396508728177,-0.0009484233127261908,
0.002394014962593516,-0.005467965060144263,
0.0024438902743142144,-0.0008638858834470464,
0.0024937655860349127,-0.011726941990849858,
0.002543640897755611,-0.0009854375395974852,
0.0025935162094763093,0.007824380615957216,
0.0026433915211970076,-0.02353353293069939,
0.002693266832917706,-0.00867435652680398,
0.002743142144638404,0.004836865667183119,
0.002793017456359102,-0.03392910925235571,
0.0028428927680798004,0.006969551187574681,
0.0028927680798004987,0.011101325802465747,
0.002942643391521197,-0.00759312957658052,
0.0029925187032418953,-0.01341883401264216,
0.0030423940149625936,0.0072086933520119165,
0.003092269326683292,-0.0101110113246201,
0.00314214463840399,-0.03204326132748192,
0.0031920199501246885,-0.016432921310548174,
0.0032418952618453864,3.774591240439298e-05,
0.0032917705735660847,0.007580696580679747,
0.003341645885286783,-0.001837582239597321,
0.0033915211970074813,0.0006566670085259123,
0.0034413965087281796,-0.009602062347598288,
0.003491271820448878,-0.0019129782831900114,
0.003541147132169576,-0.025608942413729185,
0.0035910224438902745,-0.020252117238829366,
0.0036408977556109724,-0.018782943840184654,
0.0036907730673316707,0.011880459813166176,
0.003740648379052369,-0.029664425631553155,
0.0037905236907730673,0.005906323221222049,
0.0038403990024937656,0.0030371199926830894,
0.003890274314214464,0.019889134654449803,
0.003940149625935162,-0.008377410453669295,
0.00399002493765586,-0.013151942214630624,
0.004039900249376558,-0.013559522513308872,
0.004089775561097257,0.02091524037873823,
0.004139650872817955,0.021629680096747556,
0.004189526184538653,-0.019847969844390308,
0.004239401496259352,0.005276546072982119,
0.00428927680798005,-0.013710718261346283,
0.004339152119700748,-0.027002399923043943,
0.0043890274314214465,0.015463620737733538,
0.004438902743142145,0.004847233805060355,
0.004488778054862843,0.0027028796460460995,
0.004538653366583541,0.0014897913097952076,
0.00458852867830424,-0.021118163264921632,
0.004638403990024938,-0.0025720526944638996,
0.0046882793017456355,0.008554787219074026,
0.004738154613466334,-0.006127687371204312,
0.004788029925187032,-0.019581210872274053,
0.00483790523690773,0.011968237129793165,
0.004887780548628429,0.006623591787678811,
0.004937655860349127,0.00934214302951276,
0.004987531172069825,0.01981732098547952,
0.005037406483790524,0.013531448009792224,
0.005087281795511222,-0.023660786576647785,
0.00513715710723192,-0.01955895155574003,
0.0051870324189526185,0.028496808799617794,
0.005236907730673317,-0.007724997807975507,
0.005286783042394015,0.03206236682561814,
0.0053366583541147134,0.003914185811678465,
0.005386533665835412,0.023468305006698303,
0.00543640897755611,0.006253961234282876,
0.005486284289276808,0.006507407690713083,
0.005536159600997507,-0.007228050174157339,
0.005586034912718204,0.022476104272077455,
0.005635910224438902,0.013633669639727248,
0.005685785536159601,0.009583145536885261,
0.005735660847880299,-0.007150573735599752,
0.005785536159600997,-0.0011127406758127054,
0.005835411471321696,-0.00213085895843014,
0.005885286783042394,-0.007302861649918883,
0.005935162094763092,0.0003897755256863575,
0.0059850374064837905,0.011865274753952812,
0.006034912718204489,0.02217769662771025,
0.006084788029925187,0.005364669787280415,
0.0061346633416458855,-0.013325471693229023,
0.006184538653366584,0.016277726580430186,
0.006234413965087282,-0.006557793039091844,
0.00628428927680798,0.027312873917640947,
0.006334164588528679,-0.009705265091454883,
0.006384039900249377,0.013996853634738893,
0.006433915211970074,0.032747730468963794,
0.006483790523690773,0.03587199340229638,
0.006533665835411471,-0.0035605139269160504,
0.006583541147132169,-0.015712375752313483,
0.006633416458852868,0.00456139977132047,
0.006683291770573566,-0.004073100109719608,
0.006733167082294264,-0.005397275846257824,
0.0067830423940149626,0.044144177864618314,
0.006832917705735661,0.020127396527191865,
0.006882793017456359,0.013160936117181178,
0.0069326683291770575,0.02148927978773424,
0.006982543640897756,0.016430188516590533,
0.007032418952618454,0.009535550817800581,
0.007082294264339152,-0.00908323403550357,
0.007132169576059851,0.035834239377550155,
0.007182044887780549,0.03430763402259242,
0.007231920199501247,-0.00859183805783503,
0.007281795511221945,0.014308916920060047,
0.007331670822942643,0.002425713146041812,
0.007381546134663341,0.054160001011979195,
0.00743142144638404,0.02536409273103763,
0.007481296758104738,0.020706599849953707,
0.007531172069825436,0.018704670460508405,
0.007581047381546135,0.0009752518856244417,
0.007630922693266833,0.043302646612840896,
0.007680798004987531,0.036825317405527226,
0.0077306733167082295,0.0030882387717219278,
0.007780548628428928,0.026366006954725192,
0.007830423940149626,-0.0021215389859370916,
0.007880299251870324,0.017284201673298808,
0.007930174563591023,0.01975640013149292,
0.00798004987531172,0.014230062808087043,
0.00802992518703242,0.017685488546474625,
0.008079800498753117,0.028007811324212005,
0.008129675810473816,0.02913691987571359,
0.008179551122194513,0.012084220225795408,
0.008229426433915213,0.004656867832335329,
0.00827930174563591,0.028597306780507495,
0.00832917705735661,0.0021183794539593598,
0.008379052369077307,0.01771936144149233,
0.008428927680798006,0.009849744241132994,
0.008478802992518703,0.009839485766705895,
0.0085286783042394,0.00881619283253453,
0.0085785536159601,0.024217520996151543,
0.008628428927680797,0.039970438061080485,
0.008678304239401496,0.015064114863326167,
0.008728179551122194,-0.002110787374432054,
0.008778054862842893,0.019678654099093782,
0.00882793017456359,0.022739381649154247,
0.00887780548628429,-0.0038665271314187455,
0.008927680798004987,0.0061097253566491875,
0.008977556109725686,0.03093940349580554,
0.009027431421446384,0.0015840524524408754,
0.009077306733167083,0.044002992180403086,
0.00912718204488778,0.003956976928873316,
0.00917705735660848,0.00714778098042264,
0.009226932668329177,0.040189902438600725,
0.009276807980049876,0.0338243335408214,
0.009326683291770574,0.02177223874968295,
0.009376558603491271,0.011687351486345797,
0.00942643391521197,-0.0037882323607300004,
0.009476309226932668,0.015465114561581873,
0.009526184538653367,0.009527094222624611,
0.009576059850374064,0.018528605749416668,
0.009625935162094763,0.021526575748677626,
0.00967581047381546,0.01339838818263892,
0.00972568578553616,0.00619102037988801,
0.009775561097256857,0.019546552025017944,
0.009825436408977557,0.020324180021019767,
0.009875311720698254,0.010152409421471671,
0.009925187032418953,0.01251022063051494,
0.00997506234413965,0.016601328232619,
0.01002493765586035,0.012298936365458106,
0.010074812967581047,0.004509451945134576,
0.010124688279301746,0.019553751229183878,
0.010174563591022444,0.005937381279432528,
0.010224438902743141,0.013086078432493523,
0.01027431421446384,0.0241472051554623,
0.010324189526184538,0.03653016505285937,
0.010374064837905237,0.06268610507432038,
0.010423940149625935,0.014791086523398993,
0.010473815461346634,0.016135914139804513,
0.010523690773067331,0.012270180382114264,
0.01057356608478803,0.023495396696492372,
0.010623441396508728,0.043243254231566955,
0.010673316708229427,-0.002578017144749239,
0.010723192019950124,0.022731198921651877,
0.010773067331670824,0.035978604694583846,
0.010822942643391521,0.0025829564429741235,
0.01087281795511222,0.009350108125894903,
0.010922693266832918,0.03485403314563447,
0.010972568578553617,0.04012485841920134,
0.011022443890274314,0.022370706333085764,
0.011072319201995013,0.043175555589058806,
0.01112219451371571,0.03495472617102212,
0.011172069825436408,-0.003323362054163642,
0.011221945137157107,0.021051213917128015,
0.011271820448877805,0.022555707308841513,
0.011321695760598504,0.014941843339681012,
0.011371571072319201,0.01754664370694903,
0.0114214463840399,0.02999270162117501,
0.011471321695760598,0.033084903680362224,
0.011521197007481297,0.00845765629721276,
0.011571072319201995,0.021614226568332506,
0.011620947630922694,0.019148900313415547,
0.011670822942643391,0.006366645590166099,
0.01172069825436409,0.013830913831329545,
0.011770573566084788,0.023426632911118288,
0.011820448877805487,0.009563093862472834,
0.011870324189526184,-0.012681495410918927,
0.011920199501246884,0.024464169655828254,
0.011970074812967581,0.007982563975827323,
0.012019950124688279,0.01975801575341183,
0.012069825436408978,0.0010696653942784528,
0.012119700748129675,0.003952739211236298,
0.012169576059850374,0.02967541118609767,
0.012219451371571072,-0.001191553372157289,
0.012269326683291771,0.020237744241436408,
0.012319201995012468,0.021294706001797593,
0.012369077306733168,0.023292602665263423,
0.012418952618453865,0.02158203486666784,
0.012468827930174564,0.01696546826666226,
0.012518703241895262,0.00909741818652714,
0.01256857855361596,0.007927587553166793,
0.012618453865336658,0.037205603604671386,
0.012668329177057357,-0.0044527454748215685,
0.012718204488778055,0.016436826748652343,
0.012768079800498754,4.513937038676773e-05,
0.012817955112219451,0.02976455213983662,
0.012867830423940149,0.0017713284444110522,
0.012917705735660848,0.01967743001359147,
0.012967581047381545,0.01399933876090894,
0.013017456359102245,0.013732626868878862,
0.013067331670822942,-0.014018513444039007,
0.013117206982543641,0.005822114963890733,
0.013167082294264339,0.008103500661398888,
0.013216957605985038,0.016057917581669315,
0.013266832917705735,-0.027834692115782145,
0.013316708229426434,-0.016378211840269847,
0.013366583541147132,0.016465044873925378,
0.013416458852867831,-0.017142179057378297,
0.013466334164588529,0.0075183389998586085,
0.013516209476309228,0.014923652487752171,
0.013566084788029925,0.003734381985555811,
0.013615960099750624,-0.004556859231986973,
0.013665835411471322,0.0100595629567885,
0.01371571072319202,0.0028955030932744062,
0.013765586034912718,-0.008563032256002353,
0.013815461346633416,0.00250617337999844,
0.013865336658354115,-0.012976345682933443,
0.013915211970074812,-0.001616477026873061,
0.013965087281795512,0.0010701087860995216,
0.014014962593516209,-0.029334921112853563,
0.014064837905236908,0.01458328840122538,
0.014114713216957606,0.008853313270926335,
0.014164588528678305,0.00190761856194661,
0.014214463840399002,-0.014014489763384189,
0.014264339152119701,0.007156020938533285,
0.014314214463840399,-0.018063517707542227,
0.014364089775561098,0.009524687175258718,
0.014413965087281795,-0.01155506821603458,
0.014463840399002495,0.0002455336313358376,
0.014513715710723192,-0.0177612367905876,
0.01456359102244389,0.00660517824315154,
0.014613466334164589,-0.0019173326137217226,
0.014663341645885286,-0.01170272151122177,
0.014713216957605985,-0.015783780277210134,
0.014763092269326683,-0.0003935163129989062,
0.014812967581047382,-0.009239099967641648,
0.01486284289276808,-0.003781086097633319,
0.014912718204488778,0.02375847360666072,
0.014962593516209476,-0.010973731250924693,
0.015012468827930175,0.012458312521173959,
0.015062344139650873,-0.008375656845303562,
0.015112219451371572,0.009299765188770584,
0.01516209476309227,-0.027603811158262593,
0.015211970074812968,0.02081154554586186,
0.015261845386533666,-0.007197049955777527,
0.015311720698254365,0.01668445003879481,
0.015361596009975062,-0.012667125287599779,
0.01541147132169576,0.00423575154598212,
0.015461346633416459,0.0018557448798635625,
0.015511221945137156,-0.008498767111720065,
0.015561097256857856,-0.005219540649992903,
0.015610972568578553,-0.015139206453209344,
0.015660847880299252,-0.010459722814233659,
0.01571072319201995,-0.0027537583985934606,
0.015760598503740647,-0.010562596556787374,
0.015810473815461346,0.002765529423976284,
0.015860349127182045,0.020091542916728385,
0.015910224438902745,-0.0005151615019545336,
0.01596009975062344,0.013128319211677326,
0.01600997506234414,0.01075797197346705,
0.01605985037406484,0.0036525391315039724,
0.016109725685785538,-0.002626116564015803,
0.016159600997506234,-0.0063722523382213885,
0.016209476309226933,-0.031040904589695783,
0.016259351620947632,-0.0009603350092484957,
0.016309226932668328,-0.011717516488974126,
0.016359102244389027,-0.020082305845849524,
0.016408977556109726,-0.005803241154789657,
0.016458852867830425,-0.03227100177039553,
0.01650872817955112,-0.013529126764736834,
0.01655860349127182,-0.0008287225453346599,
0.01660847880299252,0.010037379370233218,
0.01665835411471322,0.0077433073150572195,
0.016708229426433914,-0.007065688139488447,
0.016758104738154613,0.0062213407882712405,
0.016807980049875312,-0.03381103990578297,
0.01685785536159601,-0.02737887760025283,
0.016907730673316707,-0.035568645753735625,
0.016957605985037406,-0.0005357427903273544,
0.017007481296758106,0.005603762888151885,
0.0170573566084788,-0.02854276286788824,
0.0171072319201995,-0.01234699766291265,
0.0171571072319202,-0.045782993695445195,
0.0172069825436409,-0.03632490901967064,
0.017256857855361595,-0.010637792171856675,
0.017306733167082294,-0.010714598822957604,
0.017356608478802993,-0.002255502933601706,
0.017406483790523692,-0.007250602119245314,
0.017456359102244388,-0.004658525428193392,
0.017506234413965087,-0.02801797119219273,
0.017556109725685786,-0.019814078699320184,
0.017605985037406485,-0.03067339016732104,
0.01765586034912718,0.0004275490703829696,
0.01770573566084788,-0.03705656177375866,
0.01775561097256858,-0.0254651760618896,
0.01780548628428928,-0.029620384302845346,
0.017855361596009974,-0.029589446001338088,
0.017905236907730673,0.0045294262385980125,
0.017955112219451373,-0.01135169657243726,
0.018004987531172068,-0.014297970034553756,
0.018054862842892767,-0.038377066646383615,
0.018104738154613467,-0.04959085936115661,
0.018154613466334166,-0.0077565774566146235,
0.01820448877805486,-0.04004780174937759,
0.01825436408977556,-0.012241042596069094,
0.01830423940149626,-0.008138846329707515,
0.01835411471321696,-0.02347081784130638,
0.018403990024937655,0.0033833696474710392,
0.018453865336658354,-0.03052631341106586,
0.018503740648379053,-0.0144542683026299,
0.018553615960099752,-0.011723545896297736,
0.018603491271820448,-0.008167133096604447,
0.018653366583541147,0.0045618753022615074,
0.018703241895261846,-0.03101900216761865,
0.018753117206982542,-0.005029174656157228,
0.01880299251870324,-0.019498955776218505,
0.01885286783042394,-0.04584614440308778,
0.01890274314214464,-0.020806224651650038,
0.018952618453865335,-0.0028751571739060455,
0.019002493765586034,-0.04181757801761141,
0.019052369077306733,0.00013347088124838688,
0.019102244389027433,-0.02819570695504475,
0.01915211970074813,-0.010199751091862198,
0.019201995012468828,-0.004946093923015326,
0.019251870324189527,-0.0012180757105157251,
0.019301745635910226,-0.023113904996622716,
0.01935162094763092,-0.03555657521563759,
0.01940149625935162,-0.061052058303823264,
0.01945137157107232,-0.02724323525713706,
0.01950124688279302,-0.016295276312415227,
0.019551122194513715,-0.028567989243175537,
0.019600997506234414,0.0066075893329228495,
0.019650872817955113,-0.025185356461262583,
0.01970074812967581,-0.009660841758323806,
0.019750623441396508,-0.002594623826830185,
0.019800498753117207,-0.01336590278486112,
0.019850374064837906,0.00410758102491305,
0.019900249376558602,-0.018557254519355873,
0.0199501246882793,-0.01873721656360945,
0.02,-0.027961379276365363,
0.0200498753117207,-0.02451003854906934,
0.020099750623441395,-0.045202947606731006,
0.020149625935162094,-0.02269437692294466,
0.020199501246882794,-0.02974712474947313,
0.020249376558603493,0.00037992392418172496,
0.02029925187032419,-0.006447826392058686,
0.020349127182044888,-0.007821199777228316,
0.020399002493765587,-0.03280663455064618,
0.020448877805486283,-0.03200421070561351,
0.02049875311720698,-0.026038952550014767,
0.02054862842892768,0.007614536761640027,
0.02059850374064838,-0.026556130293815587,
0.020648379052369076,-0.029672645272043524,
0.020698254364089775,-0.048226118204109825,
0.020748129675810474,-0.03906829559738397,
0.020798004987531173,-0.033271858716696655,
0.02084788029925187,-0.035299032794716065,
0.020897755610972568,-0.02190949826538476,
0.020947630922693267,-0.02806418637111929,
0.020997506234413967,-0.015614616336170263,
0.021047381546134662,0.01040689892209131,
0.02109725685785536,0.00014252230070398338,
0.02114713216957606,-0.014680924666107624,
0.02119700748129676,-0.015048983786365386,
0.021246882793017455,-0.036382018922569,
0.021296758104738155,0.01752593444548168,
0.021346633416458854,0.004496198675269758,
0.02139650872817955,-0.03447541228205018,
0.02144638403990025,-0.0014092209194261959,
0.021496259351620948,-0.01643999170621878,
0.021546134663341647,-0.025248676298304695,
0.021596009975062343,-0.030963815083147814,
0.021645885286783042,0.0018323039896595752,
0.02169576059850374,-0.03527607015285941,
0.02174563591022444,-0.022589369120633435,
0.021795511221945136,0.019124445477770022,
0.021845386533665835,-0.010263261007251414,
0.021895261845386534,0.0029335883016014357,
0.021945137157107233,-0.00912071439191521,
0.02199501246882793,-0.026681231110291744,
0.02204488778054863,-0.01050655585852591,
0.022094763092269327,-0.04982315771893099,
0.022144638403990027,-0.026290275096603696,
0.022194513715710722,0.012704059789406311,
0.02224438902743142,-0.010751234348959974,
0.02229426433915212,-0.022573180345622897,
0.022344139650872816,-0.03045971216022455,
0.022394014962593516,0.0038214736441977894,
0.022443890274314215,-0.03850918872190077,
0.022493765586034914,0.012615787601801523,
0.02254364089775561,-0.008518795734275239,
0.02259351620947631,-0.0071500598798586125,
0.022643391521197008,0.018250316936532215,
0.022693266832917707,-0.0032869290140420115,
0.022743142144638403,-0.0034277650946035777,
0.022793017456359102,0.005425268303217294,
0.0228428927680798,-0.0224689176942846,
0.0228927680798005,-0.01693233640821,
0.022942643391521196,-0.012438494830582993,
0.022992518703241895,-0.029480110021850917,
0.023042394014962594,0.024928193792445395,
0.02309226932668329,0.012722257605437437,
0.02314214463840399,-0.009677427359111881,
0.02319201995012469,0.02371391867177683,
0.023241895261845388,-0.005982728588894512,
0.023291770573566083,-0.012769413560223746,
0.023341645885286783,-0.006813843528116985,
0.02339152119700748,-0.005435826126527574,
0.02344139650872818,0.02574791710251616,
0.023491271820448877,-0.017291468688960403,
0.023541147132169576,-0.04276822291648413,
0.023591022443890275,-0.016002119933822462,
0.023640897755610974,-0.030653720863785858,
0.02369077306733167,7.011345852890377e-05,
0.02374064837905237,-0.008479625550871518,
0.023790523690773068,-0.013631362689918644,
0.023840399002493767,-0.024176860170451796,
0.023890274314214463,-0.011345137022125648,
0.023940149625935162,0.0033855660813761537,
0.02399002493765586,0.02575586472416979,
0.024039900249376557,-0.006758607753117753,
0.024089775561097256,0.00020996436038035412,
0.024139650872817955,0.021824023832081325,
0.024189526184538655,-0.003170967441661193,
0.02423940149625935,0.002644313461338872,
0.02428927680798005,-0.02261613707868778,
0.02433915211970075,0.02021221369763778,
0.024389027431421448,0.01212463812935382,
0.024438902743142144,-0.0058151966135268724,
0.024488778054862843,-0.019378543053641475,
0.024538653366583542,-0.008593437738990779,
0.02458852867830424,0.027963971685209497,
0.024638403990024937,-0.005213883622404913,
0.024688279301745636,0.014323512161449038,
0.024738154613466335,-3.585760571312574e-05,
0.02478802992518703,-0.0230569170462097,
0.02483790523690773,-0.0030333571893443123,
0.02488778054862843,0.0054525005047875545,
0.02493765586034913,-0.024768338480648987,
0.024987531172069824,0.013747999033430307,
0.025037406483790523,0.004118797945219292,
0.025087281795511222,0.013131979126814845,
0.02513715710723192,0.0131783880252532,
0.025187032418952617,0.021172344482347907,
0.025236907730673316,0.02722504423003304,
0.025286783042394016,0.0370258826554684,
0.025336658354114715,0.011208658817807046,
0.02538653366583541,0.03126177546913618,
0.02543640897755611,0.01406354192377715,
0.02548628428927681,0.0020123421475284195,
0.025536159600997508,0.006388746571961815,
0.025586034912718204,0.0035484064805694146,
0.025635910224438903,0.025236769270796232,
0.025685785536159602,0.001109270954255271,
0.025735660847880298,0.005329571580542641,
0.025785536159600997,0.0053039006433743445,
0.025835411471321696,0.033735681409657985,
0.025885286783042395,0.03293961670118371,
0.02593516209476309,0.0197833348242462,
0.02598503740648379,0.005510804060355489,
0.02603491271820449,0.01821172703946419,
0.02608478802992519,0.015846900851716087,
0.026134663341645884,-0.003694570791817179,
0.026184538653366583,-0.00438320820011219,
0.026234413965087282,0.022647354201568465,
0.02628428927680798,0.012760827570123253,
0.026334164588528677,0.0017842335088974742,
0.026384039900249377,0.0024062360886204,
0.026433915211970076,0.0018208159633476204,
0.02648379052369077,0.01587204681206137,
0.02653366583541147,0.016178394841248552,
0.02658354114713217,-0.012297168704867738,
0.02663341645885287,-0.01290542487611395,
0.026683291770573565,0.020187683551205735,
0.026733167082294264,0.0008540823136172614,
0.026783042394014963,0.020474068943369273,
0.026832917705735662,-0.00920315059628336,
0.026882793017456358,0.00758384686407043,
0.026932668329177057,-0.006287141128218151,
0.026982543640897756,0.03460788411544932,
0.027032418952618455,0.015343519275624799,
0.02708229426433915,0.018384789699764675,
0.02713216957605985,0.017733811598791494,
0.02718204488778055,0.034169189861004354,
0.02723192019950125,0.03003344418150504,
0.027281795511221944,0.01898527371505712,
0.027331670822942643,0.008209177951403334,
0.027381546134663343,0.033584541492256086,
0.02743142144638404,0.0526380447300582,
0.027481296758104738,0.031680302200968666,
0.027531172069825437,0.017116611948300126,
0.027581047381546136,0.0394264038362168,
0.02763092269326683,0.035259340348016095,
0.02768079800498753,0.03731402933354068,
0.02773067331670823,0.06380174705583067,
0.02778054862842893,0.03754378177859667,
0.027830423940149625,0.011499835372305986,
0.027880299251870324,0.008930200272201353,
0.027930174563591023,0.01990948597750336,
0.027980049875311722,-0.003334254895769849,
0.028029925187032418,0.0029451850924113072,
0.028079800498753117,-0.0063108922956022565,
0.028129675810473816,0.017356531033707438,
0.028179551122194512,0.006702407809248733,
0.02822942643391521,0.01879162815763784,
0.02827930174563591,0.008395835608961523,
0.02832917705735661,-0.0018961145787231744,
0.028379052369077305,0.017710216983063173,
0.028428927680798004,0.04201746117857855,
0.028478802992518704,0.04459741694747033,
0.028528678304239403,0.036971143450716684,
0.0285785536159601,0.04391392978065413,
0.028628428927680798,-0.0009078780071867798,
0.028678304239401497,0.015305856244631311,
0.028728179551122196,0.04437531050490304,
0.02877805486284289,0.008431608059493601,
0.02882793017456359,0.011259697668228937,
0.02887780548628429,0.017753690149509803,
0.02892768079800499,0.011303418010259936,
0.028977556109725685,0.009332855655131393,
0.029027431421446384,0.020560108714264013,
0.029077306733167083,0.025449187949892992,
0.02912718204488778,0.02242224003237111,
0.029177057356608478,0.024842367185271497,
0.029226932668329177,0.032831020030824845,
0.029276807980049877,0.02395896710872987,
0.029326683291770572,0.030129246865710974,
0.02937655860349127,0.0542823905272895,
0.02942643391521197,0.009571082628406604,
0.02947630922693267,0.022927907595662347,
0.029526184538653365,0.020665386921468756,
0.029576059850374065,0.027012450177737915,
0.029625935162094764,0.025645188280879586,
0.029675810473815463,0.010389904104759378,
0.02972568578553616,0.009478551907517055,
0.029775561097256858,0.012040582411075083,
0.029825436408977557,0.06436520609958869,
0.029875311720698253,0.015497440569623362,
0.029925187032418952,0.03301908565559729,
0.02997506234413965,0.019555769899039302,
0.03002493765586035,0.04214183052946931,
0.030074812967581046,0.02265800339800617,
0.030124688279301745,0.021253629672534375,
0.030174563591022444,0.03535837999077875,
0.030224438902743143,0.0051222716605034,
0.03027431421446384,0.018476116913226467,
0.03032418952618454,0.023720194641788872,
0.030374064837905237,0.01804402215871066,
0.030423940149625937,-0.01796190305973073,
0.030473815461346632,0.009137046615367682,
0.03052369077306733,0.01238836391808213,
0.03057356608478803,0.009202457425406992,
0.03062344139650873,0.0148456092515084,
0.030673316708229426,0.031672750413644694,
0.030723192019950125,0.020983912643353215,
0.030773067331670824,0.009920135336590087,
0.03082294264339152,0.020434462096323523,
0.03087281795511222,0.03207285110921656,
0.030922693266832918,0.03268624002449683,
0.030972568578553617,0.023780305846098977,
0.031022443890274313,0.03505617475188789,
0.031072319201995012,0.01883678228016461,
0.03112219451371571,0.002231583097263127,
0.03117206982543641,0.019765622753596314,
0.031221945137157106,0.003153625584726937,
0.03127182044887781,0.009446216474045076,
0.031321695760598504,0.005995435604643265,
0.0313715710723192,0.02311762337524385,
0.0314214463840399,-0.021669639613647776,
0.0314713216957606,0.0030850693945442594,
0.031521197007481294,0.00010536649755110011,
0.031571072319202,0.02680661920018839,
0.03162094763092269,0.0336441716338136,
0.03167082294264339,-0.010535277989984812,
0.03172069825436409,-0.008941052140056922,
0.03177057356608479,0.009320271871157831,
0.03182044887780549,0.014543312506082711,
0.031870324189526185,0.04579186894080635,
0.03192019950124688,0.011685587139786882,
0.03197007481296758,0.022356352298513352,
0.03201995012468828,0.026476828005808792,
0.032069825436408975,0.0027985191214578223,
0.03211970074812968,0.03802772928187435,
0.03216957605985037,0.0003243979137353345,
0.032219451371571076,-0.001493832940041153,
0.03226932668329177,0.02378561446658077,
0.03231920199501247,0.018582736018066124,
0.03236907730673317,0.03752020861515333,
0.032418952618453865,0.026595830518906346,
0.03246882793017456,-0.004015657456932104,
0.032518703241895264,0.009088381419681272,
0.03256857855361596,0.034822288801173426,
0.032618453865336655,0.004817310004150751,
0.03266832917705736,0.0032127145525761066,
0.032718204488778053,0.013174925155230882,
0.032768079800498756,-0.017384877208886124,
0.03281795511221945,0.025753083117703093,
0.03286783042394015,0.031016382151243322,
0.03291770573566085,-0.0038782299956918436,
0.032967581047381546,0.003329765167627641,
0.03301745635910224,-0.0008692014483014012,
0.033067331670822944,0.030510940681305877,
0.03311720698254364,0.009672091232125826,
0.03316708229426434,0.03574198876583072,
0.03321695760598504,0.01413563934504515,
0.033266832917705734,0.0006380517638692306,
0.03331670822942644,0.00601732784763514,
0.03336658354114713,0.007030221412819137,
0.03341645885286783,0.0038952452525583686,
0.03346633416458853,-0.01284447499159808,
0.033516209476309226,0.026171137830169965,
0.03356608478802992,0.018289221526292348,
0.033615960099750625,0.028728366245687607,
0.03366583541147132,-0.00520648910680227,
0.03371571072319202,0.00755992558472942,
0.03376558603491272,0.025605309884900375,
0.033815461346633414,0.0016315442759955584,
0.03386533665835412,-0.00017681055069038686,
0.03391521197007481,-0.004841788244895891,
0.03396508728179551,0.003952161719016916,
0.03401496259351621,0.009994526595974189,
0.03406483790523691,0.030598994583469288,
0.0341147132169576,0.014882267815788977,
0.034164588528678305,-0.005602349246781882,
0.034214463840399,0.032905403069717835,
0.034264339152119704,0.0019341865322367335,
0.0343142144638404,0.04594095308000392,
0.034364089775561095,-0.007283748644501672,
0.0344139650872818,0.004226984126592087,
0.03446384039900249,0.0019255469047463319,
0.03451371571072319,-0.013484268251954411,
0.03456359102244389,-0.017591018529430676,
0.03461346633416459,0.011738553710831441,
0.03466334164588529,0.01069081659440301,
0.034713216957605986,-0.0044463383371038155,
0.03476309226932668,-0.00015910531087785172,
0.034812967581047384,-0.03367051414191259,
0.03486284289276808,-0.013928271273229653,
0.034912718204488775,-0.02156298124979343,
0.03496259351620948,-0.031510815476232086,
0.035012468827930174,-0.010633261877805385,
0.03506234413965087,0.039676215885960625,
0.03511221945137157,-0.0032273966988122828,
0.03516209476309227,0.0020595371551056486,
0.03521197007481297,-0.004810896921101997,
0.035261845386533666,0.00991342389990975,
0.03531172069825436,-0.012357707627363206,
0.035361596009975065,-0.006698670388981764,
0.03541147132169576,0.008013344934784465,
0.035461346633416456,0.006599126333211132,
0.03551122194513716,-0.03231213454373392,
0.035561097256857854,0.03944017889904104,
0.03561097256857856,-0.015592032980666068,
0.03566084788029925,0.007232200273202098,
0.03571072319201995,0.004396628340336824,
0.03576059850374065,-0.009677702524020252,
0.03581047381546135,-0.013689414885961908,
0.03586034912718204,-0.020862902789144277,
0.035910224438902745,-0.008565878369943356,
0.03596009975062344,-0.0057247834161065336,
0.036009975062344136,-0.026602685386710574,
0.03605985037406484,-0.03153482585103291,
0.036109725685785535,-0.033960034042235215,
0.03615960099750624,0.006142780031639174,
0.03620947630922693,-0.016038234609788704,
0.03625935162094763,-0.027608507356323003,
0.03630922693266833,-0.009721196934810869,
0.03635910224438903,-0.024087129004273802,
0.03640897755610972,-0.02446345907061186,
0.036458852867830426,-0.005885733926175569,
0.03650872817955112,-0.006960740617443616,
0.036558603491271824,-0.02795666926920766,
0.03660847880299252,-0.023750264549530296,
0.036658354114713215,-0.006964496364515447,
0.03670822942643392,-0.014824528570443994,
0.036758104738154614,-0.021144758899482766,
0.03680798004987531,-0.03844178559528266,
0.03685785536159601,-0.01813829088776048,
0.03690773067331671,-0.012470353955675256,
0.0369576059850374,0.021003324548616892,
0.037007481296758106,-0.0008744276054041197,
0.0370573566084788,-0.025212849801829473,
0.037107231920199504,-0.030231770504518717,
0.0371571072319202,-0.02319696628697944,
0.037206982543640896,-0.018735735695607568,
0.0372568578553616,-0.0004569446378877625,
0.037306733167082294,0.009423173294043212,
0.03735660847880299,-0.024727530628373583,
0.03740648379052369,-0.008803296152190674,
0.03745635910224439,-0.027113672003533366,
0.037506234413965084,-0.012864786173602798,
0.037556109725685786,-0.01010219762189192,
0.03760598503740648,-0.03745107461605117,
0.037655860349127185,0.021240128560485946,
0.03770573566084788,-0.03656582509623786,
0.037755610972568576,-0.027363747189746962,
0.03780548628428928,-0.02937721299104027,
0.037855361596009975,0.014764978086588703,
0.03790523690773067,0.0074393192417536134,
0.03795511221945137,-0.018921789990954428,
0.03800498753117207,-0.006767252268550541,
0.03805486284289277,-0.028651727568357818,
0.03810473815461347,0.0006961160499116097,
0.03815461346633416,0.009314191527156415,
0.038204488778054865,-0.034792092149724195,
0.03825436408977556,-0.025165936533553764,
0.03830423940149626,-0.01921202263588252,
0.03835411471321696,0.007739208897395274,
0.038403990024937655,0.006358105906674419,
0.03845386533665835,0.005205942378895167,
0.03850374064837905,-0.011442151516532075,
0.03855361596009975,-0.012776585548616834,
0.03860349127182045,-0.004926398979252625,
0.03865336658354115,-0.024575724310217147,
0.03870324189526184,-0.04452937786857106,
0.038753117206982546,-0.022594266259701123,
0.03880299251870324,-0.014000071629931481,
0.03885286783042394,-0.04913751468024425,
0.03890274314214464,0.00797120285471024,
0.038952618453865336,0.006658342640456654,
0.03900249376558604,-0.024634496156220057,
0.039052369077306734,-0.04178441084832116,
0.03910224438902743,-0.021053000279905986,
0.03915211970074813,-0.023476040889909906,
0.03920199501246883,-0.02219941507259359,
0.039251870324189524,-0.01348552879191497,
0.039301745635910226,-0.019347731555126375,
0.03935162094763092,-0.0314372629633662,
0.03940149625935162,-0.025104716769747324,
0.03945137157107232,-0.052132923927803235,
0.039501246882793016,-0.015831263104864435,
0.03955112219451372,-0.009215418552641077,
0.039600997506234414,-0.015597308031969436,
0.03965087281795511,-0.02607439981685468,
0.03970074812967581,-0.029534583377992182,
0.03975062344139651,-0.006281172860749742,
0.039800498753117204,-0.026054332386301948,
0.03985037406483791,-0.04607313010003207,
0.0399002493765586,-0.04097323945044549,
0.039950124688279305,-0.037214678601847254,
0.04,-0.03309632749062805,
0.0400498753117207,-0.02450641067447644,
0.0400997506234414,-0.016288362998539127,
0.040149625935162095,-0.020362968485528606,
0.04019950124688279,-0.011863347590662522,
0.04024937655860349,-0.05323753513646188,
0.04029925187032419,0.008630567297482392,
0.040349127182044885,-0.017470136210821215,
0.04039900249376559,0.00846132636457934,
0.04044887780548628,-0.018182400025212184,
0.040498753117206986,-0.02240705109814087,
0.04054862842892768,-0.015675844982813818,
0.04059850374064838,-0.03822859783510536,
0.04064837905236908,-0.025730006185914832,
0.040698254364089775,0.0021350456372566523,
0.04074812967581047,-0.024341293795084297,
0.040798004987531174,-0.020741829452907753,
0.04084788029925187,-0.018275394453274425,
0.040897755610972565,-0.0028125508567492102,
0.04094763092269327,-0.016284289124358153,
0.04099750623441396,-0.028110228606770604,
0.041047381546134666,-0.022987186184756547,
0.04109725685785536,-0.020773045590805523,
0.04114713216957606,-0.028725014774872486,
0.04119700748129676,-0.015465640001856434,
0.041246882793017456,-0.0010724167107527879,
0.04129675810473815,-0.03647023258620004,
0.041346633416458854,0.01563279315353564,
0.04139650872817955,-0.00686194632893159,
0.04144638403990025,-0.009296530805140056,
0.04149625935162095,-0.014230370887934463,
0.041546134663341644,-0.02213261394480522,
0.04159600997506235,-0.027045356194144658,
0.04164588528678304,-0.009617760352769499,
0.04169576059850374,0.009503192659302797,
0.04174563591022444,-0.013454706292647828,
0.041795511221945136,0.010809406842018475,
0.04184538653366583,-0.018007076891923504,
0.041895261845386535,-0.018176368697522146,
0.04194513715710723,-0.012414764996897724,
0.04199501246882793,0.010005930376915911,
0.04204488778054863,0.004629237172406585,
0.042094763092269324,-0.0061905186025612265,
0.04214463840399003,-0.02533815103817797,
0.04219451371571072,-0.016252278371763827,
0.04224438902743142,-0.03627529808561271,
0.04229426433915212,-0.018886230871225807,
0.04234413965087282,-0.004019828004571097,
0.04239401496259352,0.0011607240561650242,
0.042443890274314215,0.006639516462600232,
0.04249376558603491,-0.015007063334725323,
0.042543640897755614,-0.005718529722523403,
0.04259351620947631,-0.01615074926696813,
0.042643391521197005,0.020302943969826945,
0.04269326683291771,-0.018986157168307094,
0.0427431421446384,0.009783647444527525,
0.0427930174563591,0.000825017625547422,
0.0428428927680798,-0.03961402739337665,
0.0428927680798005,-0.006519243338608868,
0.0429426433915212,-0.005456601731747506,
0.042992518703241896,-0.007192757679110938,
0.04304239401496259,-0.02984070934310981,
0.043092269326683294,-0.006794273296206399,
0.04314214463840399,-0.005232281792928224,
0.043192019950124685,0.009139782319924279,
0.04324189526184539,-0.011560105927987703,
0.043291770573566084,-0.016346562652095383,
0.043341645885286786,0.0009032622169344649,
0.04339152119700748,-0.004141661357120986,
0.04344139650872818,-0.01163593099623922,
0.04349127182044888,0.008189686545121797,
0.043541147132169576,0.004011642758259612,
0.04359102244389027,-0.008402472214002796,
0.043640897755610975,-0.015820324448503943,
0.04369077306733167,0.01073529490630617,
0.043740648379052366,0.0005238302790273564,
0.04379052369077307,0.01656652265898734,
0.043840399002493764,0.014879131597952585,
0.04389027431421447,0.006609631273989225,
0.04394014962593516,0.019089607728650492,
0.04399002493765586,0.0039737535997451225,
0.04403990024937656,-0.0018236641097040345,
0.04408977556109726,-0.011601137976290669,
0.04413965087281795,-0.003359894850334613,
0.044189526184538655,0.0022555100052644495,
0.04423940149625935,0.040356270929468877,
0.04428927680798005,0.020981256330885614,
0.04433915211970075,0.002080501598632425,
0.044389027431421445,-0.012201772639286054,
0.04443890274314215,-0.017174493671654086,
0.04448877805486284,0.0008755896856795222,
0.04453865336658354,0.006942322950059263,
0.04458852867830424,0.010414835711173881,
0.04463840399002494,0.0022850369151341666,
0.04468827930174563,0.008271087957395428,
0.044738154613466335,0.004505852293120549,
0.04478802992518703,0.010877304280679657,
0.044837905236907734,0.025052931299741017,
0.04488778054862843,0.018065412059473346,
0.044937655860349125,0.010197963375741949,
0.04498753117206983,-0.006496373498897667,
0.045037406483790524,0.005976111006628277,
0.04508728179551122,-0.025794775755757244,
0.04513715710723192,0.0016462127086521216,
0.04518703241895262,0.003565421077885291,
0.04523690773067331,0.016701539455134397,
0.045286783042394016,0.04119181323925055,
0.04533665835411471,0.0337387501071918,
0.045386533665835414,0.002538183028033174,
0.04543640897755611,-0.0017229608795891593,
0.045486284289276806,0.01989322686583677,
0.04553615960099751,0.01342629858911707,
0.045586034912718204,-0.005210446763020359,
0.0456359102244389,0.014846015756783137,
0.0456857855361596,0.021149327488898372,
0.0457356608478803,0.019282011359387247,
0.045785536159601,0.02352831372761872,
0.045835411471321696,0.018305482572960628,
0.04588528678304239,0.041799128945736626,
0.045935162094763095,0.008352094974333906,
0.04598503740648379,-0.013085747355961325,
0.046034912718204486,0.013242862210441962,
0.04608478802992519,0.017032747774552347,
0.046134663341645885,-0.026084800442837407,
0.04618453865336658,0.03328380394510281,
0.04623441396508728,0.025475893340331998,
0.04628428927680798,-0.023976672380432287,
0.04633416458852868,0.02865361156075321,
0.04638403990024938,-0.0008964968923063574,
0.04643391521197007,0.006202448451100705,
0.046483790523690775,0.017145363732582,
0.04653366583541147,0.0045408567194413305,
0.04658354114713217,0.031165609258688335,
0.04663341645885287,0.017469218235447108,
0.046683291770573565,0.014186857168744902,
0.04673316708229427,-0.017985414919760426,
0.04678304239401496,0.002902129243777113,
0.04683291770573566,0.02746719082757544,
0.04688279301745636,-0.005835533200205752,
0.04693266832917706,0.009729304656806667,
0.04698254364089775,0.014352282341471893,
0.047032418952618456,0.02003951122996358,
0.04708229426433915,-0.006103619138144896,
0.04713216957605985,0.014353271764289764,
0.04718204488778055,0.0053631056229598885,
0.047231920199501246,0.019301069524054974,
0.04728179551122195,0.0152766045809004,
0.047331670822942644,0.01250726159860131,
0.04738154613466334,0.050168570363969364,
0.04743142144638404,0.021542387354606955,
0.04748129675810474,0.031167528327688286,
0.047531172069825434,0.02144550227582311,
0.047581047381546136,0.05010340035726754,
0.04763092269326683,0.023103499556913588,
0.047680798004987535,0.04358363789216787,
0.04773067331670823,0.027649877828318667,
0.047780548628428926,0.02347699045269459,
0.04783042394014963,0.037636654117057654,
0.047880299251870324,-0.0022623046091080727,
0.04793017456359102,0.002581949705636702,
0.04798004987531172,-0.008263585967457597,
0.04802992518703242,-0.0071591766592782324,
0.048079800498753114,0.030878763570548938,
0.04812967581047382,0.047923981444386296,
0.04817955112219451,0.03715242624668694,
0.048229426433915215,0.03082993418477181,
0.04827930174563591,0.033474274907977844,
0.048329177057356607,0.03413935697046485,
0.04837905236907731,0.04517580583914606,
0.048428927680798005,-0.007631057299017668,
0.0484788029925187,0.015122325091336285,
0.0485286783042394,0.014487332820453882,
0.0485785536159601,0.0334423934349626,
0.048628428927680795,0.011528748938693626,
0.0486783042394015,0.046597393365207095,
0.04872817955112219,0.015391568616063087,
0.048778054862842896,0.015849123372560822,
0.04882793017456359,0.029615122405954278,
0.04887780548628429,0.027474705964165146,
0.04892768079800499,0.021081088942328685,
0.048977556109725685,0.007699338636882311,
0.04902743142144638,0.03045169011808792,
0.049077306733167084,0.04595857495084062,
0.04912718204488778,0.01670506762304461,
0.04917705735660848,0.044693647861336346,
0.04922693266832918,0.05387365917060219,
0.04927680798004987,0.015199959723785232,
0.049326683291770576,0.01774504554599167,
0.04937655860349127,0.04557368604772451,
0.04942643391521197,0.037366383528956354,
0.04947630922693267,0.014082812779324914,
0.049526184538653366,0.02339642363887023,
0.04957605985037406,0.027621231380060802,
0.049625935162094764,0.026210697603338898,
0.04967581047381546,0.008511958331725092,
0.04972568578553616,0.025446918253968057,
0.04977556109725686,0.03771582268702173,
0.049825436408977554,0.033395296077374126,
0.04987531172069826,0.00951588867708251,
0.04992518703241895,0.026631709721793705,
0.04997506234413965,0.004598279516290476,
0.05002493765586035,0.016886458731511626,
0.050074812967581046,0.018468388323417694,
0.05012468827930175,0.021847402361011247,
0.050174563591022445,0.008045119388411287,
0.05022443890274314,0.021164185118523665,
0.05027431421446384,0.025766245076059277,
0.05032418952618454,0.03896517165137156,
0.050374064837905234,0.0674151152679473,
0.05042394014962594,0.02399237358573361,
0.05047381546134663,-0.004873812332478751,
0.05052369077306733,0.008337641868006975,
0.05057356608478803,0.05466403506867093,
0.05062344139650873,0.019672866951517893,
0.05067331670822943,0.0055874520434534836,
0.050723192019950125,0.0471942306627983,
0.05077306733167082,0.02814447272768729,
0.050822942643391524,0.012223772051467926,
0.05087281795511222,0.022041229191961432,
0.050922693266832915,0.006966818154886317,
0.05097256857855362,-0.008736332165854017,
0.05102244389027431,0.026309074948270464,
0.051072319201995016,0.011001663380540634,
0.05112219451371571,0.05119477617839892,
0.05117206982543641,0.01478753555081858,
0.05122194513715711,-0.014675178563025804,
0.051271820448877806,0.02609836273703555,
0.0513216957605985,0.008279571311733794,
0.051371571072319204,0.005484533377572669,
0.0514214463840399,0.032755483443923344,
0.051471321695760595,0.006383389106547694,
0.0515211970074813,0.013813994511469026,
0.051571072319201994,0.046703492970882596,
0.051620947630922696,0.018936959565265137,
0.05167082294264339,-0.01735092846733626,
0.05172069825436409,0.025025295335496096,
0.05177057356608479,0.0036784648476636157,
0.051820448877805486,0.0017449615288727717,
0.05187032418952618,0.023454906840611762,
0.051920199501246884,0.016751575021778268,
0.05197007481296758,0.008951291982569767,
0.052019950124688276,0.008564230169545856,
0.05206982543640898,0.02917709290072737,
0.052119700748129674,0.032304620876240246,
0.05216957605985038,0.022798051448209608,
0.05221945137157107,-0.00435517587532579,
0.05226932668329177,0.02028317885750864,
0.05231920199501247,0.037046804773665454,
0.05236907730673317,0.0001870171053330212,
0.05241895261845386,0.023755667590712265,
0.052468827930174565,-0.007377441432000701,
0.05251870324189526,0.03487447365713733,
0.05256857855361596,0.008828718182105691,
0.05261845386533666,0.027106067865736896,
0.052668329177057355,0.003303659894478025,
0.05271820448877806,0.013174551747552162,
0.05276807980049875,0.0031583393206015883,
0.05281795511221945,0.04277545301446425,
0.05286783042394015,0.03499546591950829,
0.05291770573566085,0.010884389501328385,
0.05296758104738154,0.008566117527225078,
0.053017456359102245,0.01485792969866416,
0.05306733167082294,0.019234841249902414,
0.053117206982543644,0.020805510130665686,
0.05316708229426434,0.006352111917065662,
0.053216957605985035,0.0031591285643275974,
0.05326683291770574,0.015442176844669451,
0.053316708229426434,0.019904824589029032,
0.05336658354114713,0.010072305294662328,
0.05341645885286783,-0.011915674255455548,
0.05346633416458853,-0.004726309720806822,
0.05351620947630923,0.004571708804428752,
0.053566084788029926,0.021743833529494317,
0.05361596009975062,0.010673708279514135,
0.053665835411471324,0.02128191689948165,
0.05371571072319202,0.010901191876538426,
0.053765586034912716,0.007014672155477627,
0.05381546134663342,-0.0005765523743154564,
0.053865336658354114,0.0014441384258822012,
0.05391521197007481,0.020866610334683337,
0.05396508728179551,0.010161221566123127,
0.05401496259351621,0.006242145283986625,
0.05406483790523691,0.016919170239794407,
0.054114713216957606,0.013293156139141026,
0.0541645885286783,0.025553796596315535,
0.054214463840399005,0.002096972702985118,
0.0542643391521197,0.020862031915163774,
0.054314214463840396,0.003209146537822516,
0.0543640897755611,-0.007781077894444019,
0.054413965087281795,-0.003113386567830876,
0.0544638403990025,-0.012757241635048811,
0.05451371571072319,-0.012288014670800953,
0.05456359102244389,-0.008989580871989478,
0.05461346633416459,-0.009815666174439096,
0.05466334164588529,-0.016418403030362117,
0.05471321695760598,-0.018557647085125233,
0.054763092269326685,0.0027365459851862303,
0.05481296758104738,-0.026452714524083484,
0.05486284289276808,-0.014385259086051354,
0.05491271820448878,-0.01740245260260363,
0.054962593516209475,0.001810983448450702,
0.05501246882793018,-0.013513411407500099,
0.05506234413965087,0.028538674814233476,
0.05511221945137157,0.0027496434992351788,
0.05516209476309227,0.0015709885750605406,
0.05521197007481297,-0.010643435786205632,
0.05526184538653366,-0.014026705676252034,
0.055311720698254366,0.003249001786010036,
0.05536159600997506,0.007307984630760362,
0.05541147132169576,-0.0014026605952798447,
0.05546134663341646,-0.011623516930194672,
0.055511221945137156,-0.01025961014575394,
0.05556109725685786,-0.0017669327736606743,
0.055610972568578554,-0.03604895641151107,
0.05566084788029925,0.007298319229861067,
0.05571072319201995,2.733446374203561e-05,
0.05576059850374065,0.01845456877816088,
0.055810473815461344,0.020165291844870595,
0.055860349127182046,-0.009690827358247663,
0.05591022443890274,0.008794070500776234,
0.055960099750623445,-0.002495402140128205,
0.05600997506234414,0.0022474298088336906,
0.056059850374064836,0.009436950081613875,
0.05610972568578554,-0.005037199205843746,
0.056159600997506234,-0.008563148873638406,
0.05620947630922693,0.014128176031366048,
0.05625935162094763,0.013722640684308889,
0.05630922693266833,-0.03370077997300045,
0.056359102244389024,-0.015454337130938542,
0.05640897755610973,-0.02295796051112104,
0.05645885286783042,-0.031189543042674572,
0.056508728179551125,0.0003348638460739569,
0.05655860349127182,0.005876807337967825,
0.056608478802992516,-7.387530975062201e-05,
0.05665835411471322,0.015343179934571488,
0.056708229426433915,-0.01784871109412549,
0.05675810473815461,0.016646591087756395,
0.05680798004987531,-0.012623048581207453,
0.05685785536159601,0.013685396223740294,
0.05690773067331671,0.02317243495647241,
0.05695760598503741,-0.020594655232754444,
0.0570074812967581,0.00027310062000632587,
0.057057356608478806,-0.03668863398125104,
0.0571072319201995,-0.009256856056858654,
0.0571571072319202,-0.011057990698636987,
0.0572069825436409,0.0039024552986422177,
0.057256857855361595,-0.014502601286093852,
0.05730673316708229,-0.02883367219627033,
0.057356608478802994,0.008042073379745183,
0.05740648379052369,-0.013991544897757212,
0.05745635910224439,0.004683379956597289,
0.05750623441396509,0.005936528564911149,
0.05755610972568578,-0.015242607252493053,
0.057605985037406486,-0.010315053556979098,
0.05765586034912718,-0.02519506560377904,
0.05770573566084788,-0.005472635158964032,
0.05775561097256858,-0.011253159279625983,
0.057805486284289276,-0.01105576428943206,
0.05785536159600998,-0.02456330811243585,
0.057905236907730674,-0.019130769736146434,
0.05795511221945137,-0.002679056101120186,
0.05800498753117207,0.013983718451893227,
0.05805486284289277,-0.022466424556694647,
0.058104738154613464,-0.0161698992558302,
0.05815461346633417,-0.006555889085534703,
0.05820448877805486,-0.0025195454836558304,
0.05825436408977556,-0.019429980248602482,
0.05830423940149626,0.011009588682685614,
0.058354114713216956,-0.03881458042575418,
0.05840399002493766,0.015794097624322084,
0.058453865336658355,-0.015477300715572557,
0.05850374064837905,-0.002980935962667061,
0.05855361596009975,-0.022681576003963373,
0.05860349127182045,-0.014846261455743533,
0.058653366583541144,-0.010951556304646747,
0.05870324189526185,-0.02356885676120108,
0.05875311720698254,-0.018276004928158993,
0.05880299251870324,-0.017317083574245083,
0.05885286783042394,-0.0008464029472832722,
0.05890274314214464,-0.02531983617257704,
0.05895261845386534,7.849708237247892e-05,
0.059002493765586035,-0.017881880603098633,
0.05905236907730673,-0.019882576846296626,
0.059102244389027433,0.005027870871159339,
0.05915211970074813,-0.010982697729238312,
0.059201995012468825,-0.013786042021285336,
0.05925187032418953,-0.009703160401490878,
0.05930174563591022,0.0019253417379433528,
0.059351620947630926,-0.0017133843335526856,
0.05940149625935162,-0.031248777201113315,
0.05945137157107232,-0.025339101096543235,
0.05950124688279302,-0.01696073549982465,
0.059551122194513716,0.001672011899533166,
0.05960099750623441,-0.02644077744390768,
0.059650872817955114,0.015338025289287783,
0.05970074812967581,-0.03207969466935961,
0.059750623441396505,-0.03205162815447787,
0.05980049875311721,-0.01992883884607024,
0.059850374064837904,0.0013166149362507373,
0.059900249376558606,-0.03952474101387706,
0.0599501246882793,-0.006495966843137023,
0.06,-0.010629372139382452,
0.0600498753117207,0.004407755632025506,
0.060099750623441396,-0.01913379573878406,
0.06014962593516209,-0.010792099283868374,
0.060199501246882794,-0.024851348006374844,
0.06024937655860349,-0.033884271031427333,
0.06029925187032419,-0.02596939335971164,
0.06034912718204489,0.010866697821113463,
0.060399002493765584,-0.023023391476965333,
0.06044887780548629,-0.033277035364147875,
0.06049875311720698,-0.009031842116872135,
0.06054862842892768,-0.03147720633671591,
0.06059850374064838,0.006865583363109114,
0.06064837905236908,-0.0394716244811286,
0.06069825436408977,-0.008769501764285849,
0.060748129675810475,0.001545284763469587,
0.06079800498753117,-0.014113109111091583,
0.06084788029925187,-0.03019984994820228,
0.06089775561097257,-0.018355918042363115,
0.060947630922693265,-0.03452985389660493,
0.06099750623441397,0.0065572903332929925,
0.06104738154613466,-0.016758955456698192,
0.06109725685785536,0.007542111615758891,
0.06114713216957606,-0.027335856345646926,
0.06119700748129676,-0.008232083799980042,
0.06124688279301746,-0.014374933549983874,
0.061296758104738155,-0.0035403921531257845,
0.06134663341645885,-0.01608024873669075,
0.061396508728179554,0.0010220903578491095,
0.06144638403990025,-0.020685959480193687,
0.061496259351620945,-0.008996885881720876,
0.06154613466334165,0.012264900278458885,
0.061596009975062344,-0.006328138493354617,
0.06164588528678304,-0.016408292950222312,
0.06169576059850374,0.011513028450725268,
0.06174563591022444,0.003422852454954677,
0.06179551122194514,-0.05035247611866944,
0.061845386533665836,-0.02314489506039468,
0.06189526184538653,-0.01892598383806285,
0.061945137157107234,-0.018854907601037044,
0.06199501246882793,0.012765688299682144,
0.062044887780548626,-0.025697525451243264,
0.06209476309226933,-0.02487155382726785,
0.062144638403990024,-0.013839233341707738,
0.06219451371571072,-0.014665619994920265,
0.06224438902743142,-0.00564190747197843,
0.06229426433915212,0.013415401922390786,
0.06234413965087282,-0.01907667366869856,
0.062394014962593516,-0.012845096443498193,
0.06244389027431421,-0.011598047115103217,
0.062493765586034915,-0.010483797503679837,
0.06254364089775562,-0.01792965602516982,
0.06259351620947631,0.0060641666013194675,
0.06264339152119701,-0.0053488443342611484,
0.0626932668329177,0.00742895553275518,
0.0627431421446384,-0.02179384232792362,
0.0627930174563591,0.005151483816508071,
0.0628428927680798,-0.011174894742967099,
0.0628927680798005,0.008491515240254176,
0.0629426433915212,0.024576268161043184,
0.06299251870324189,0.013410399147047215,
0.06304239401496259,-0.0017102679111039307,
0.0630922693266833,0.001708596466012722,
0.063142144638404,0.0006230936572990697,
0.06319201995012469,-0.014853468995704172,
0.06324189526184539,0.03190934988913207,
0.06329177057356608,0.019634447077584334,
0.06334164588528678,-0.0028976216441963317,
0.06339152119700749,1.835443717989986e-05,
0.06344139650872818,-0.011883906933358952,
0.06349127182044888,0.0007453088630981469,
0.06354114713216957,-0.004090292689523715,
0.06359102244389027,-0.0005430920727194601,
0.06364089775561098,-0.004714869853634225,
0.06369077306733167,-0.000953317025985926,
0.06374064837905237,0.015319909435279576,
0.06379052369077307,0.005764550522822615,
0.06384039900249376,-0.006881309592271294,
0.06389027431421446,-0.007737778720920255,
0.06394014962593517,0.021263834115333967,
0.06399002493765586,-0.011242601626604766,
0.06403990024937656,0.021132081014453068,
0.06408977556109725,-0.02110869251038392,
0.06413965087281795,-0.006061014093642703,
0.06418952618453866,0.024854862894967033,
0.06423940149625935,0.01212413560907839,
0.06428927680798005,-0.0006505522053195795,
0.06433915211970075,-0.005264139607462501,
0.06438902743142144,0.013783799256547841,
0.06443890274314215,-0.005468345930494909,
0.06448877805486285,0.021723913216305832,
0.06453865336658354,-0.012002749567185552,
0.06458852867830424,-0.008849042404241482,
0.06463840399002493,0.019904443876259052,
0.06468827930174563,-0.014477236233331053,
0.06473815461346634,-0.009804514924769591,
0.06478802992518704,-0.004312429807622654,
0.06483790523690773,0.033505927039520274,
0.06488778054862843,0.010921309455403488,
0.06493765586034912,-0.00617035408110897,
0.06498753117206983,-0.0016639786751643931,
0.06503740648379053,0.009937301623941316,
0.06508728179551122,-0.011540761470219874,
0.06513715710723192,0.01823755236939644,
0.06518703241895261,0.0163823301828011,
0.06523690773067331,0.02926583271998844,
0.06528678304239402,0.033332417548507506,
0.06533665835411472,0.006862756983761234,
0.06538653366583541,-0.008684929241925982,
0.06543640897755611,0.0017193280978604099,
0.0654862842892768,0.027537447646789878,
0.06553615960099751,0.0017388272799467377,
0.06558603491271821,-0.013908560131108891,
0.0656359102244389,-0.005904793577146645,
0.0656857855361596,0.041774140770859565,
0.0657356608478803,0.011324636019406788,
0.06578553615960099,0.0033166769480187184,
0.0658354114713217,0.012956358858994653,
0.0658852867830424,0.01742415034262347,
0.06593516209476309,0.022459569778636217,
0.06598503740648379,0.014493263452662228,
0.06603491271820448,-0.007460379032507606,
0.06608478802992519,0.02042756871888235,
0.06613466334164589,0.005065824401331513,
0.06618453865336658,0.0064401893377996015,
0.06623441396508728,0.024398134506989765,
0.06628428927680798,0.022021209738096837,
0.06633416458852869,0.0066610970117793895,
0.06638403990024938,0.024285150156090736,
0.06643391521197008,0.020627995721345816,
0.06648379052369077,0.03132137619097562,
0.06653366583541147,0.011743456487785563,
0.06658354114713216,0.04183566451913055,
0.06663341645885287,0.01873087766733035,
0.06668329177057357,0.03159380583272502,
0.06673316708229426,0.020595655022209995,
0.06678304239401496,0.03500269062256052,
0.06683291770573566,0.03674816152519073,
0.06688279301745637,-0.006577952424270259,
0.06693266832917706,0.031127523980815374,
0.06698254364089776,0.03913738029611555,
0.06703241895261845,0.019814633048775912,
0.06708229426433915,0.04820128271568921,
0.06713216957605984,0.03463429986310208,
0.06718204488778055,0.030209105590912822,
0.06723192019950125,0.01231958163058102,
0.06728179551122195,0.016412698895476825,
0.06733167082294264,0.029795376970105335,
0.06738154613466334,0.016447899795753132,
0.06743142144638405,0.03772763369210061,
0.06748129675810474,0.03872176248672339,
0.06753117206982544,0.06144152237633318,
0.06758104738154613,0.012753755814603187,
0.06763092269326683,0.04209220705938808,
0.06768079800498752,0.06132851892274285,
0.06773067331670823,0.0005355110524394996,
0.06778054862842893,0.020804163345220686,
0.06783042394014963,0.014003931068673234,
0.06788029925187032,0.026662287291844177,
0.06793017456359102,0.02045893719196481,
0.06798004987531173,0.027941718481581855,
0.06802992518703242,0.022844681787396293,
0.06807980049875312,0.013325226274675604,
0.06812967581047381,0.04400661110888894,
0.06817955112219451,0.049831355163856256,
0.0682294264339152,0.04727079599796609,
0.06827930174563591,0.0030253507222777164,
0.06832917705735661,0.048540102591383534,
0.0683790523690773,0.03834377485212446,
0.068428927680798,0.04370511344912131,
0.0684788029925187,0.028647491113980336,
0.06852867830423941,0.00666120056939554,
0.0685785536159601,0.037032253747972595,
0.0686284289276808,0.04038716772179051,
0.0686783042394015,0.03948598342536738,
0.06872817955112219,0.017325550423852,
0.0687780548628429,0.02630402133949112,
0.0688279301745636,0.050826403494892744,
0.06887780548628429,0.035802034143584946,
0.06892768079800499,0.03765773836512952,
0.06897755610972568,0.020332423306399748,
0.06902743142144638,0.010233845121102971,
0.06907730673316709,0.024199053872821202,
0.06912718204488778,0.024291351030949624,
0.06917705735660848,0.03272875765142918,
0.06922693266832917,-0.005904774028554823,
0.06927680798004987,0.009537123712345205,
0.06932668329177058,0.05081201189207035,
0.06937655860349128,0.014935761433662896,
0.06942643391521197,0.03283144796603134,
0.06947630922693267,0.03479634895886951,
0.06952618453865336,0.004245851693413148,
0.06957605985037406,0.04468248544555059,
0.06962593516209477,0.03554832923871903,
0.06967581047381546,-0.0037631852046917033,
0.06972568578553616,0.029412042481759937,
0.06977556109725686,0.028601206936859098,
0.06982543640897755,0.04030421712896346,
0.06987531172069826,0.0366262352775236,
0.06992518703241896,0.030453176763624943,
0.06997506234413965,0.007481191452107249,
0.07002493765586035,0.047908551344514425,
0.07007481296758104,0.0293220387812716,
0.07012468827930174,0.04943542073801181,
0.07017456359102245,0.036624905847645904,
0.07022443890274314,0.019155580377307014,
0.07027431421446384,0.007322327307465848,
0.07032418952618454,0.030546816719196825,
0.07037406483790523,-0.007687373435332809,
0.07042394014962594,0.005293484880488881,
0.07047381546134664,0.0003608074155157272,
0.07052369077306733,0.007900514799202892,
0.07057356608478803,0.01689437648080926,
0.07062344139650872,0.026761460171434593,
0.07067331670822943,0.024220086781350795,
0.07072319201995013,0.015453240040793601,
0.07077306733167082,-0.002121830916151951,
0.07082294264339152,0.011690281815063616,
0.07087281795511222,0.023754206254100338,
0.07092269326683291,0.034417816888758244,
0.07097256857855362,0.008858508502175347,
0.07102244389027432,0.012443412913594543,
0.07107231920199501,0.016582458590427198,
0.07112219451371571,0.021324530770997104,
0.0711720698254364,0.025433533173819446,
0.07122194513715711,0.03553678325700835,
0.07127182044887781,0.01954550033647426,
0.0713216957605985,0.020525509076746613,
0.0713715710723192,-0.006221696160264953,
0.0714214463840399,0.006340174837136666,
0.07147132169576059,0.03464540805119541,
0.0715211970074813,0.04165205123525359,
0.071571072319202,0.0060406782109063886,
0.0716209476309227,0.0054739895208751905,
0.07167082294264339,0.025175433066478903,
0.07172069825436408,0.027365911361088784,
0.0717705735660848,0.023940867757996434,
0.07182044887780549,0.03406055098278248,
0.07187032418952619,0.04270490802426533,
0.07192019950124688,0.027304821270348112,
0.07197007481296758,0.025959244466557823,
0.07201995012468827,0.007222813838802071,
0.07206982543640898,0.0032085992735729676,
0.07211970074812968,-0.00018635440091695557,
0.07216957605985037,0.0023097029255307565,
0.07221945137157107,0.010631195525659116,
0.07226932668329177,0.013962143823077599,
0.07231920199501247,0.02119980561219317,
0.07236907730673317,0.02453017612949807,
0.07241895261845387,-0.0023811641900546437,
0.07246882793017456,-0.019214858444957825,
0.07251870324189526,-0.01511541666368938,
0.07256857855361595,0.01897425190864757,
0.07261845386533666,0.01071131872400571,
0.07266832917705736,0.007373568457825448,
0.07271820448877805,0.011062051603199494,
0.07276807980049875,0.0032622593805897836,
0.07281795511221945,0.020870434761876475,
0.07286783042394016,0.0031918266326961733,
0.07291770573566085,-0.006789731757060238,
0.07296758104738155,0.016871487670570548,
0.07301745635910224,0.022685418210604165,
0.07306733167082294,-0.01696026962985234,
0.07311720698254365,0.018621882373544528,
0.07316708229426434,0.013425420364232596,
0.07321695760598504,0.039030512268941754,
0.07326683291770573,-0.01118603002793187,
0.07331670822942643,0.016713804816207045,
0.07336658354114713,0.030548375047867758,
0.07341645885286784,-0.02715706029803762,
0.07346633416458853,0.02857344586903268,
0.07351620947630923,0.003127428925432431,
0.07356608478802992,0.0003090814882479257,
0.07361596009975062,-0.009219806981804107,
0.07366583541147133,0.023206547472176493,
0.07371571072319202,-0.004351806758427348,
0.07376558603491272,0.00766301784723593,
0.07381546134663342,0.01688066165837634,
0.07386533665835411,0.026766278712210094,
0.0739152119700748,0.004206389038313765,
0.07396508728179552,0.014809613488623035,
0.07401496259351621,-0.015661137445694123,
0.07406483790523691,0.019090513235778397,
0.0741147132169576,-0.02238377630208163,
0.0741645885286783,0.028768527877768627,
0.07421446384039901,0.0012831726592507798,
0.0742643391521197,0.01828029181030498,
0.0743142144638404,0.004595079514605902,
0.0743640897755611,0.023018386483113173,
0.07441396508728179,-0.016043649700808904,
0.07446384039900249,0.021672167733813155,
0.0745137157107232,0.005699926306173973,
0.07456359102244389,0.011623962398115546,
0.07461346633416459,0.009778462018171294,
0.07466334164588528,0.011366992726570227,
0.07471321695760598,0.02579199715451799,
0.07476309226932669,0.020624407692658456,
0.07481296758104738,-0.030766499176645676,
0.07486284289276808,-0.02323503222744048,
0.07491271820448878,-0.020424383232667244,
0.07496259351620947,-0.0056192849628691295,
0.07501246882793017,0.009278132832616734,
0.07506234413965088,0.0015708315996893572,
0.07511221945137157,-0.0008155212188108822,
0.07516209476309227,-0.014979810070249004,
0.07521197007481296,-0.00040087341307313987,
0.07526184538653366,-0.0014336219213698861,
0.07531172069825437,-0.002428073343104059,
0.07536159600997507,0.006991225245856706,
0.07541147132169576,-0.011118328847841204,
0.07546134663341646,0.034741769557480075,
0.07551122194513715,-0.004494824506728102,
0.07556109725685786,-0.01408283223591141,
0.07561097256857856,-0.02830042841943695,
0.07566084788029925,-0.010424347488395127,
0.07571072319201995,0.01000096483901963,
0.07576059850374064,0.00979853892829646,
0.07581047381546134,-0.026752160179597643,
0.07586034912718205,0.018457349881589372,
0.07591022443890275,-0.013393841514780215,
0.07596009975062344,0.003828552823361798,
0.07600997506234414,0.006255961244019185,
0.07605985037406483,0.010669380625734014,
0.07610972568578554,-0.008504836919716877,
0.07615960099750624,0.007414625310230141,
0.07620947630922693,0.011198633295395931,
0.07625935162094763,0.015740796408161256,
0.07630922693266833,0.0013328898899457537,
0.07635910224438902,0.02097599955124141,
0.07640897755610973,-0.02798002058877233,
0.07645885286783043,0.01839807621855432,
0.07650872817955112,-0.02390287738146578,
0.07655860349127182,0.006183424473304754,
0.07660847880299251,-0.03250548884383197,
0.07665835411471322,-0.016947541037935766,
0.07670822942643392,-0.023116135723650417,
0.07675810473815461,-0.006897202905269535,
0.07680798004987531,-0.0017214842539885365,
0.076857855361596,-0.021492370383023936,
0.0769077306733167,-0.022708067016673602,
0.07695760598503741,0.0034667943387963803,
0.0770074812967581,-0.03246431231705234,
0.0770573566084788,-0.006442445085779716,
0.0771072319201995,-0.03439117360427234,
0.0771571072319202,-0.012290353525879198,
0.0772069825436409,0.010674765579294008,
0.0772568578553616,-0.05699035422404757,
0.0773067331670823,-0.02371096107035993,
0.07735660847880299,-0.04609454412567927,
0.07740648379052369,-0.0018224021025208485,
0.0774563591022444,-0.005042443346388214,
0.07750623441396509,-0.007588468312237598,
0.07755610972568579,-0.032601758473509865,
0.07760598503740648,0.020238604855823936,
0.07765586034912718,0.0020018590843150583,
0.07770573566084787,-0.013923116034781129,
0.07775561097256858,-0.011391100491881533,
0.07780548628428928,0.016009954792891037,
0.07785536159600998,0.008751441625662472,
0.07790523690773067,0.02259440821985825,
0.07795511221945137,-0.007282651656835002,
0.07800498753117208,-0.01768924765575048,
0.07805486284289277,-0.025494368683146716,
0.07810473815461347,0.00022513618265442015,
0.07815461346633416,0.012184986151535737,
0.07820448877805486,-0.019745734866345364,
0.07825436408977555,0.005759128593851292,
0.07830423940149626,-0.04047890141077546,
0.07835411471321696,-0.03520900913109942,
0.07840399002493766,-0.03154475159765037,
0.07845386533665835,-0.015706762720390545,
0.07850374064837905,0.007991429323963479,
0.07855361596009976,-0.04625444274349501,
0.07860349127182045,-0.022564212329093225,
0.07865336658354115,-0.004780757264107342,
0.07870324189526184,-0.002996612795290444,
0.07875311720698254,-0.02078658103601865,
0.07880299251870324,-0.008035188456997138,
0.07885286783042394,-0.054353966853616695,
0.07890274314214464,-0.02691154809385088,
0.07895261845386534,-0.01913034959902821,
0.07900249376558603,0.002541573719662288,
0.07905236907730673,-0.015928432812535847,
0.07910224438902744,-0.029388384091782287,
0.07915211970074813,-0.03061712286005927,
0.07920199501246883,-0.02309338157003575,
0.07925187032418952,0.016550832790086137,
0.07930174563591022,-0.018715498417350387,
0.07935162094763092,-0.015245677718733428,
0.07940149625935163,-0.011908529262960375,
0.07945137157107232,-0.028667022086521776,
0.07950124688279302,-0.014139003365173567,
0.07955112219451371,-0.042338469052425595,
0.07960099750623441,-0.006255631850152526,
0.07965087281795512,0.012290215851386595,
0.07970074812967581,-0.0155110259054872,
0.07975062344139651,-0.002782165533936313,
0.0798004987531172,-0.030286040864685095,
0.0798503740648379,-0.02904057474263022,
0.07990024937655861,-0.0017681443274577616,
0.0799501246882793,0.0053233310483415605,
0.08,-0.03424612058837166,
0.0800498753117207,-9.755440312739054e-05,
0.0800997506234414,-0.011591571082106684,
0.08014962593516209,-0.01108505554857519,
0.0801995012468828,-0.004835615196088735,
0.0802493765586035,-0.02403034238991377,
0.08029925187032419,-0.0401537843189847,
0.08034912718204489,0.006294812977969279,
0.08039900249376558,-0.0305492518947203,
0.08044887780548629,-0.010338296760038994,
0.08049875311720699,-0.017376650608201386,
0.08054862842892768,0.005528519635369142,
0.08059850374064838,-0.024338304015613342,
0.08064837905236907,-0.01814572244325944,
0.08069825436408977,-0.027104706929400584,
0.08074812967581048,-0.003510556268403074,
0.08079800498753117,-0.0023854934510583077,
0.08084788029925187,-0.020341179011125428,
0.08089775561097257,-0.015294226862062403,
0.08094763092269326,-0.03542623939115387,
0.08099750623441397,-0.04426362008396731,
0.08104738154613467,-0.023796926834702477,
0.08109725685785536,-0.0005047500525035727,
0.08114713216957606,0.009922961644170385,
0.08119700748129675,0.00991814136292877,
0.08124688279301745,0.009111904572279637,
0.08129675810473816,-0.004493333099220536,
0.08134663341645886,0.010203390832245134,
0.08139650872817955,-0.03714651754085235,
0.08144638403990025,-0.03067206826253485,
0.08149625935162094,0.0012624397361392734,
0.08154613466334165,-0.013696848326145702,
0.08159600997506235,-0.01749344069629302,
0.08164588528678304,0.004831055651469589,
0.08169576059850374,-0.00704778992908445,
0.08174563591022443,0.011225590535618835,
0.08179551122194513,-0.024439995397790397,
0.08184538653366584,-0.011027077024114929,
0.08189526184538654,-0.02267088141589174,
0.08194513715710723,-0.010499764547782741,
0.08199501246882793,0.00940447691286132,
0.08204488778054862,-0.022158720715074597,
0.08209476309226933,-0.016500062414075804,
0.08214463840399003,-0.012056373872875389,
0.08219451371571072,-0.023599930450221872,
0.08224438902743142,-0.027113579101510563,
0.08229426433915212,-0.02276511555546011,
0.08234413965087282,0.01623634224272736,
0.08239401496259352,-0.010403705424808202,
0.08244389027431422,0.006057029189512171,
0.08249376558603491,0.005408550794918405,
0.08254364089775561,-0.008840242392251028,
0.0825935162094763,0.00418524207846042,
0.08264339152119701,-0.008936571230666542,
0.08269326683291771,0.002766871858444345,
0.0827431421446384,-0.003324450588027949,
0.0827930174563591,0.008349676380872011,
0.0828428927680798,0.0019595308450356397,
0.0828927680798005,0.001253527590278072,
0.0829426433915212,-0.0238671157512476,
0.0829925187032419,-0.001045433325126295,
0.08304239401496259,0.027666562602582566,
0.08309226932668329,0.0018099506201776834,
0.08314214463840398,0.018181677603987742,
0.0831920199501247,0.005588217880946402,
0.08324189526184539,-0.01299879491464722,
0.08329177057356608,0.012843102988129528,
0.08334164588528678,0.01294012503117258,
0.08339152119700748,-0.004682306577626539,
0.08344139650872819,0.052417607017990864,
0.08349127182044888,-0.007945097050023863,
0.08354114713216958,0.02487548833982834,
0.08359102244389027,-0.007377535126154024,
0.08364089775561097,0.006538376823406805,
0.08369077306733166,0.02439678333391609,
0.08374064837905237,0.02001724711477535,
0.08379052369077307,-0.008434066209053391,
0.08384039900249377,0.014249160769274214,
0.08389027431421446,-0.004997800364806917,
0.08394014962593516,0.013055536607678922,
0.08399002493765587,0.007513751022019828,
0.08403990024937656,0.02163014214247855,
0.08408977556109726,0.027325008919177735,
0.08413965087281795,-0.0051282406526398875,
0.08418952618453865,0.014795259869469404,
0.08423940149625936,-0.019915439788168662,
0.08428927680798005,-0.0028726966693990736,
0.08433915211970075,-0.007197909403980962,
0.08438902743142145,-0.007089714825416919,
0.08443890274314214,0.0028048599938350982,
0.08448877805486284,-0.01879243008835203,
0.08453865336658355,-0.016858239961607152,
0.08458852867830424,0.02626789783917973,
0.08463840399002494,0.02844278456098305,
0.08468827930174563,0.03660422709686839,
0.08473815461346633,0.009842547589211307,
0.08478802992518704,0.004233174793785696,
0.08483790523690773,0.01121486641223628,
0.08488778054862843,0.012629650527132774,
0.08493765586034913,0.007312870385973096,
0.08498753117206982,0.028234835428288224,
0.08503740648379052,0.012389481072921905,
0.08508728179551123,-0.017316790765529718,
0.08513715710723192,0.0005625503808473695,
0.08518703241895262,0.038535213847872396,
0.08523690773067331,-0.0038643570236447967,
0.08528678304239401,-0.016651481525261122,
0.08533665835411472,0.033121220159925635,
0.08538653366583542,0.01578787572361032,
0.08543640897755611,0.020996919052603275,
0.0854862842892768,0.040298700688102845,
0.0855361596009975,0.011094082361374016,
0.0855860349127182,0.00771565813347262,
0.08563591022443891,0.009059600121043317,
0.0856857855361596,-0.006221688787493736,
0.0857356608478803,0.010680905470919811,
0.085785536159601,0.015144047959599373,
0.08583541147132169,0.010208652401096124,
0.0858852867830424,0.0030007431191624197,
0.0859351620947631,0.005816708882498708,
0.08598503740648379,0.04326482274563031,
0.08603491271820449,0.008132574666087774,
0.08608478802992518,-0.011611819734317092,
0.08613466334164588,0.01730742607892722,
0.08618453865336659,0.006744064305155128,
0.08623441396508728,0.0335260827452596,
0.08628428927680798,0.03601298292276575,
0.08633416458852868,0.018682229990189772,
0.08638403990024937,0.04517173818502465,
0.08643391521197008,0.025152454519641952,
0.08648379052369078,0.026166937734048767,
0.08653366583541147,0.030337454158518722,
0.08658354114713217,0.021593527785486035,
0.08663341645885286,0.019120124820496878,
0.08668329177057357,0.03887564661388897,
0.08673316708229427,0.03172829747217551,
0.08678304239401496,0.018189321346084204,
0.08683291770573566,0.03240571447771523,
0.08688279301745636,0.03158665933743366,
0.08693266832917705,0.032570311720684905,
0.08698254364089776,0.003680529792995345,
0.08703241895261846,0.026396235392005953,
0.08708229426433915,0.02041522230892325,
0.08713216957605985,-0.0041182501705538214,
0.08718204488778054,0.017050109861631826,
0.08723192019950125,0.029921515791375985,
0.08728179551122195,0.020394026188823477,
0.08733167082294264,0.011435473811467796,
0.08738154613466334,0.023358598297049754,
0.08743142144638404,-0.008670341589065912,
0.08748129675810473,0.0008714721139185082,
0.08753117206982544,0.0250264052347244,
0.08758104738154614,0.036274455523838144,
0.08763092269326683,0.02869136750610912,
0.08768079800498753,0.013376862803989881,
0.08773067331670822,0.007284223352226563,
0.08778054862842893,0.029756076679207523,
0.08783042394014963,0.028144050257827076,
0.08788029925187033,0.016131624296274676,
0.08793017456359102,0.02983282390888816,
0.08798004987531172,0.019133943619395535,
0.08802992518703241,0.03564767112021131,
0.08807980049875312,0.015367619398312007,
0.08812967581047382,0.06840543551247419,
0.08817955112219451,0.008816711714014654,
0.08822942643391521,0.0192634279595746,
0.0882793017456359,0.016195761216431022,
0.08832917705735661,0.009821497081146584,
0.08837905236907731,0.018427767207948628,
0.088428927680798,0.032863442957625194,
0.0884788029925187,0.04645724646529406,
0.0885286783042394,-0.009439028435939387,
0.0885785536159601,0.01337247044183088,
0.0886284289276808,0.024602053635405075,
0.0886783042394015,0.04160947604824986,
0.0887281795511222,0.02292169069080401,
0.08877805486284289,0.03656545253340103,
0.08882793017456359,0.04073224480351442,
0.0888778054862843,0.033018781204397135,
0.08892768079800499,0.020232443211194953,
0.08897755610972569,-0.0018516879273559744,
0.08902743142144638,0.028031323066259845,
0.08907730673316708,0.037352202751593774,
0.08912718204488779,-0.002351581302087267,
0.08917705735660848,0.025675654314554663,
0.08922693266832918,-0.0023906724166374085,
0.08927680798004987,0.03250208554571286,
0.08932668329177057,0.01047249898622778,
0.08937655860349127,0.05314738295089834,
0.08942643391521198,0.025220544075945168,
0.08947630922693267,0.03934165949501624,
0.08952618453865337,-0.009550948865618941,
0.08957605985037406,0.024864980206436814,
0.08962593516209476,0.0511282679288145,
0.08967581047381547,0.018413417604209538,
0.08972568578553616,0.025663636592862093,
0.08977556109725686,0.020633453158938705,
0.08982543640897755,0.0519344134324551,
0.08987531172069825,0.024799877827842244,
0.08992518703241895,0.008046209667092744,
0.08997506234413966,0.04721647165036598,
0.09002493765586035,0.009208591226045542,
0.09007481296758105,0.040952231959460135,
0.09012468827930174,0.046042301500303875,
0.09017456359102244,0.016817494722202918,
0.09022443890274315,0.009336060670348825,
0.09027431421446384,0.03714637602214116,
0.09032418952618454,0.017418991110765676,
0.09037406483790524,0.02012801818974181,
0.09042394014962593,0.003734989562201165,
0.09047381546134663,0.031139478936583753,
0.09052369077306734,0.044266247362485814,
0.09057356608478803,0.0325454096133632,
0.09062344139650873,0.015803311680592864,
0.09067331670822942,0.012387359997511112,
0.09072319201995012,0.02725691377049425,
0.09077306733167083,0.007291578844283882,
0.09082294264339152,0.023889420116759316,
0.09087281795511222,0.048553670633457155,
0.09092269326683292,-0.010633340564102464,
0.09097256857855361,0.017058249727296766,
0.09102244389027432,0.010871781005334868,
0.09107231920199502,-0.01215779405086707,
0.09112219451371571,0.06421171319881343,
0.09117206982543641,0.004678670420222162,
0.0912219451371571,0.011947244936338456,
0.0912718204488778,0.012899275091449768,
0.09132169576059851,0.036195969699151447,
0.0913715710723192,0.030161911667835876,
0.0914214463840399,0.015761985337302414,
0.0914713216957606,0.012905778495054764,
0.09152119700748129,0.004152886296583936,
0.091571072319202,0.028615700003210037,
0.0916209476309227,-0.00446293881914837,
0.09167082294264339,0.027894127669154157,
0.09172069825436409,0.023699105413273976,
0.09177057356608478,0.008743480148673549,
0.09182044887780548,0.030789644390860425,
0.09187032418952619,0.031090793317339646,
0.09192019950124689,-0.007187321303904929,
0.09197007481296758,0.031616257716791676,
0.09201995012468828,0.023684193628602537,
0.09206982543640897,-0.004905584713632373,
0.09211970074812968,0.0006530596633889975,
0.09216957605985038,0.02728034943189797,
0.09221945137157107,-0.003008431768993073,
0.09226932668329177,0.010397030509470407,
0.09231920199501246,0.00953494746913706,
0.09236907730673316,0.015695597253678677,
0.09241895261845387,-0.001458205484304937,
0.09246882793017457,0.023287524500858702,
0.09251870324189526,0.008637560750950199,
0.09256857855361596,0.03419699885394656,
0.09261845386533665,0.02976370753895243,
0.09266832917705736,0.031091344843871535,
0.09271820448877806,0.027813959820284992,
0.09276807980049875,0.0600969555691518,
0.09281795511221945,0.017245794668691777,
0.09286783042394015,0.0049055380101038805,
0.09291770573566084,0.018315428199554288,
0.09296758104738155,0.03551927032577929,
0.09301745635910225,0.021315472222893848,
0.09306733167082294,0.03924424933566073,
0.09311720698254364,0.02305501629577042,
0.09316708229426433,0.02155542664819094,
0.09321695760598504,0.03022728914507708,
0.09326683291770574,0.031096472258136616,
0.09331670822942643,0.023666954977463732,
0.09336658354114713,0.019910420024720207,
0.09341645885286783,-0.0003332020083723873,
0.09346633416458854,0.020609064758422217,
0.09351620947630923,-0.01379399742770123,
0.09356608478802993,0.01976386583078102,
0.09361596009975062,0.03510517447681726,
0.09366583541147132,-0.007402691951541628,
0.09371571072319201,0.018301939271506605,
0.09376558603491272,0.01512774127919033,
0.09381546134663342,0.019252090887661055,
0.09386533665835411,0.00792249244490803,
0.09391521197007481,0.013789435968922181,
0.0939650872817955,0.00797028354472082,
0.09401496259351622,0.012636768617777152,
0.09406483790523691,0.017182466407556718,
0.09411471321695761,-0.0020759233723847328,
0.0941645885286783,-0.007056119477210547,
0.094214463840399,0.006999337927602888,
0.0942643391521197,0.028456057563174795,
0.0943142144638404,-0.0005102897877047197,
0.0943640897755611,0.016781362338184787,
0.0944139650872818,-0.004308775362172451,
0.09446384039900249,-0.005618102201406224,
0.09451371571072319,-0.0034629878658716546,
0.0945635910224439,0.0007763458519462517,
0.09461346633416459,0.0312525234874339,
0.09466334164588529,-0.015197889026583773,
0.09471321695760598,0.019753641337925627,
0.09476309226932668,0.029223299493173843,
0.09481296758104737,0.016221023901829328,
0.09486284289276808,0.013222380331688386,
0.09491271820448878,-0.01625174137162657,
0.09496259351620948,-0.004662257597165138,
0.09501246882793017,-0.003663042492847585,
0.09506234413965087,0.022851371075517494,
0.09511221945137158,-0.03066534652192772,
0.09516209476309227,0.012870199546070365,
0.09521197007481297,0.009257620397676913,
0.09526184538653366,0.019373706454612623,
0.09531172069825436,0.016265882444654566,
0.09536159600997507,-0.01595826552503066,
0.09541147132169576,0.02415346517474385,
0.09546134663341646,0.025823051013813176,
0.09551122194513716,-0.009826759553120526,
0.09556109725685785,0.00984438418062679,
0.09561097256857855,0.004015861692023321,
0.09566084788029926,0.004354997463918905,
0.09571072319201995,-0.01045054260049826,
0.09576059850374065,0.0011095139689103282,
0.09581047381546134,0.02111038191156332,
0.09586034912718204,-0.02314846686239588,
0.09591022443890275,-0.01630489873728349,
0.09596009975062345,0.0342450531644773,
0.09600997506234414,-0.030032215205300767,
0.09605985037406484,-0.014813545111409648,
0.09610972568578553,-0.015403981845818836,
0.09615960099750623,-0.011943211453407106,
0.09620947630922694,0.001665240964604942,
0.09625935162094763,-0.011592822778802612,
0.09630922693266833,-0.013327725739435917,
0.09635910224438902,0.004647427686078716,
0.09640897755610972,0.008878065382580538,
0.09645885286783043,0.01875287056615262,
0.09650872817955113,-0.02202902705826627,
0.09655860349127182,0.007413981182490061,
0.09660847880299252,-0.024951117039046625,
0.09665835411471321,0.0047045064982891805,
0.09670822942643391,-0.011488631359713466,
0.09675810473815462,-0.02155551611924859,
0.09680798004987531,-0.015510603007199076,
0.09685785536159601,0.0038301582065274568,
0.0969077306733167,-0.0034777859188294584,
0.0969576059850374,-8.570026098723895e-05,
0.09700748129675811,-0.027145639746841824,
0.0970573566084788,0.0014776666174675015,
0.0971072319201995,0.006156303173347092,
0.0971571072319202,-0.0058402201720884955,
0.0972069825436409,0.005841529891069655,
0.09725685785536159,-0.028311813242915963,
0.0973067331670823,0.011239691952267273,
0.097356608478803,-0.00830198052285646,
0.09740648379052369,-0.014363916212771347,
0.09745635910224439,-0.017684402857503473,
0.09750623441396508,-0.012502443716311124,
0.09755610972568579,-0.01827160040993743,
0.09760598503740649,-0.022983552315202865,
0.09765586034912718,-0.015906241701127793,
0.09770573566084788,-0.03509254077997423,
0.09775561097256857,0.0195876652388263,
0.09780548628428928,-0.014502687280780214,
0.09785536159600998,-0.025434739316565546,
0.09790523690773068,-0.04292586630095505,
0.09795511221945137,-0.003305508766317508,
0.09800498753117207,-0.0009424567157124714,
0.09805486284289276,-0.0112682994465331,
0.09810473815461347,-0.011258262956040791,
0.09815461346633417,-0.006336674540910633,
0.09820448877805486,0.009956671489917676,
0.09825436408977556,-0.009387556396221056,
0.09830423940149625,-0.02533953445547781,
0.09835411471321696,-0.013565194130989618,
0.09840399002493766,0.017544535465212008,
0.09845386533665836,-0.02368202425169315,
0.09850374064837905,-0.021912236961803562,
0.09855361596009975,-0.013577268534712337,
0.09860349127182044,0.006505663361054192,
0.09865336658354115,-0.003772784620827219,
0.09870324189526185,-0.02083102254441345,
0.09875311720698254,-0.02672365089936942,
0.09880299251870324,-0.025722965985527473,
0.09885286783042393,-0.0024539918625328602,
0.09890274314214464,-0.013265705897568949,
0.09895261845386534,-0.003786819455813323,
0.09900249376558604,-0.014865308807163862,
0.09905236907730673,-0.03210155853327509,
0.09910224438902743,-0.013586088097596368,
0.09915211970074812,0.007283571048491073,
0.09920199501246883,-0.016763937177741835,
0.09925187032418953,-0.01865682497343018,
0.09930174563591022,-0.00225001717324976,
0.09935162094763092,-0.019106156833860556,
0.09940149625935162,-0.02432714250942486,
0.09945137157107233,0.008645267811172818,
0.09950124688279302,-0.013903730158738699,
0.09955112219451372,-0.03399414576900091,
0.09960099750623441,0.009569686459202307,
0.09965087281795511,0.008142008451959937,
0.0997007481296758,-0.01603166700108611,
0.09975062344139651,-0.0010196098674796397,
0.09980049875311721,0.00024549301802340336,
0.0998503740648379,0.016969618824291564,
0.0999002493765586,-0.02841823490917866,
0.0999501246882793,-0.022130425611115775,
0.1,-0.007483107648099592,
0.1000498753117207,-0.010333704781684199,
0.1000997506234414,-0.025695875248802458,
0.10014962593516209,-0.03038751677657889,
0.10019950124688279,-0.02653659052323713,
0.1002493765586035,-0.029850418074240014,
0.1002992518703242,0.0017428569626042733,
0.10034912718204489,-0.030067156381658237,
0.10039900249376559,-0.006324324785583002,
0.10044887780548628,-0.00037835727880042996,
0.10049875311720698,-0.018652522617602245,
0.10054862842892769,-0.006849803494554022,
0.10059850374064838,0.000129470152659638,
0.10064837905236908,-0.015505696623913105,
0.10069825436408977,-0.0027727879429659437,
0.10074812967581047,-0.0251823289166228,
0.10079800498753118,0.025132424433336027,
0.10084788029925187,-0.03141806818191236,
0.10089775561097257,-0.024970292193509026,
0.10094763092269327,-0.00833596334776903,
0.10099750623441396,-0.0005159196609966221,
0.10104738154613466,8.74736703728625e-05,
0.10109725685785537,-0.00833045809818698,
0.10114713216957606,-0.006735972087364896,
0.10119700748129676,-0.01569549595235424,
0.10124688279301745,-0.014572863047952092,
0.10129675810473815,-0.011238202563683745,
0.10134663341645886,-0.009280452780333185,
0.10139650872817955,-0.004479004807732915,
0.10144638403990025,-0.0055613337858885425,
0.10149625935162095,-0.024212408432400218,
0.10154613466334164,-0.001981703670429792,
0.10159600997506234,-0.022667812887688692,
0.10164588528678305,0.004133191176583046,
0.10169576059850374,0.01598624522222506,
0.10174563591022444,-0.02377688232767922,
0.10179551122194513,-0.03082777001326413,
0.10184538653366583,-0.026669158298126515,
0.10189526184538654,-0.013985492577215614,
0.10194513715710724,-0.03038478602893952,
0.10199501246882793,-0.014984261978055137,
0.10204488778054863,0.01397979717697395,
0.10209476309226932,-0.004212797279054231,
0.10214463840399003,-0.008201658107175174,
0.10219451371571073,-0.013279500699618123,
0.10224438902743142,0.007328636066500821,
0.10229426433915212,-0.025797921901025835,
0.10234413965087281,-0.005924769678504751,
0.10239401496259351,-0.013229888596030095,
0.10244389027431422,-0.014623526147158176,
0.10249376558603492,-0.0008774413125890671,
0.10254364089775561,-0.002348942004386,
0.10259351620947631,0.015116559891574522,
0.102643391521197,-0.012839504595933398,
0.10269326683291771,0.02430197597847221,
0.10274314214463841,-0.00391679418875359,
0.1027930174563591,-0.01807992042602923,
0.1028428927680798,-0.005222361319301208,
0.1028927680798005,-0.016894135637662636,
0.10294264339152119,0.019036012051484325,
0.1029925187032419,-0.024858871660913294,
0.1030423940149626,-0.006927437175793958,
0.10309226932668329,-0.015699962810264353,
0.10314214463840399,-0.010397295943972776,
0.10319201995012468,-0.002285243091370582,
0.10324189526184539,0.023036979055389192,
0.10329177057356609,-0.0096797588685649,
0.10334164588528678,-0.023173320195029865,
0.10339152119700748,-0.019925142200208766,
0.10344139650872818,-0.0016161648548473273,
0.10349127182044887,0.004858404513420308,
0.10354114713216958,0.02019204846033261,
0.10359102244389028,-0.003960914686763976,
0.10364089775561097,0.006758061975408081,
0.10369077306733167,0.00975872662329769,
0.10374064837905236,0.005104483319599977,
0.10379052369077307,-0.004765193539305795,
0.10384039900249377,-0.0013707353088543194,
0.10389027431421446,0.0021172348470774897,
0.10394014962593516,0.0057211124034702715,
0.10399002493765586,-0.010002673558058627,
0.10403990024937655,0.03585292917403622,
0.10408977556109726,-0.010796335991746956,
0.10413965087281796,0.04286939538408353,
0.10418952618453865,-0.005048949735458955,
0.10423940149625935,-0.006598911092508141,
0.10428927680798004,0.02616384375909725,
0.10433915211970075,0.03764843673347807,
0.10438902743142145,-0.01064055815860454,
0.10443890274314215,0.03730141557435317,
0.10448877805486284,-0.01282873187115614,
0.10453865336658354,0.02551068793159367,
0.10458852867830425,0.01988450783788693,
0.10463840399002494,-0.0011611109362780984,
0.10468827930174564,0.03526002418766224,
0.10473815461346633,-0.01622505565003662,
0.10478802992518703,0.009990537952259453,
0.10483790523690772,0.002846073719723759,
0.10488778054862843,0.035091145185462254,
0.10493765586034913,0.02019405495238239,
0.10498753117206983,0.014117951062078134,
0.10503740648379052,0.012575025287624457,
0.10508728179551122,0.014009027650587815,
0.10513715710723193,-0.003966138145357595,
0.10518703241895262,-0.005345847732745903,
0.10523690773067332,0.0037533221289869616,
0.10528678304239401,0.0054560627612924625,
0.10533665835411471,0.006903907785105076,
0.1053865336658354,0.030102953181327732,
0.10543640897755611,0.019858982408243707,
0.10548628428927681,0.036397097197306695,
0.1055361596009975,-0.012219801472655771,
0.1055860349127182,0.019506723066643854,
0.1056359102244389,0.019984264494267573,
0.10568578553615961,0.032193901191781685,
0.1057356608478803,0.012170386079593625,
0.105785536159601,0.013050167893040795,
0.1058354114713217,0.005475265558477176,
0.10588528678304239,-0.0014957099601775013,
0.10593516209476309,0.008416868458763908,
0.1059850374064838,0.019984516292888183,
0.10603491271820449,0.014513459092855294,
0.10608478802992519,0.025967738857723792,
0.10613466334164588,0.028525667827952027,
0.10618453865336658,0.04877119446393853,
0.10623441396508729,0.02918595482137151,
0.10628428927680798,0.006652537650578695,
0.10633416458852868,0.03454316820969239,
0.10638403990024937,0.0030270031429417664,
0.10643391521197007,0.01614668230315866,
0.10648379052369077,0.01824199539499071,
0.10653366583541148,0.021331381707337508,
0.10658354114713217,0.01595876295332047,
0.10663341645885287,0.02109781056468704,
0.10668329177057356,0.030779056290881866,
0.10673316708229426,0.03262728303757076,
0.10678304239401497,-0.0001701922719829635,
0.10683291770573566,0.02281221346693468,
0.10688279301745636,0.05271339655720378,
0.10693266832917706,0.014232794930995798,
0.10698254364089775,0.00015161877672036084,
0.10703241895261846,0.004187659115094874,
0.10708229426433916,0.03013701251682684,
0.10713216957605985,0.038095264861362214,
0.10718204488778055,0.03930740969120505,
0.10723192019950124,0.029243539304235455,
0.10728179551122194,0.015370812024030386,
0.10733167082294265,0.02320889662354337,
0.10738154613466334,0.03207374358996751,
0.10743142144638404,0.03604587045127172,
0.10748129675810474,-0.0021135206943215905,
0.10753117206982543,0.018702093776589802,
0.10758104738154614,0.023466409670179197,
0.10763092269326684,0.03936972163207067,
0.10768079800498753,0.01739987556625512,
0.10773067331670823,0.012917359815899625,
0.10778054862842892,0.03397602266741721,
0.10783042394014962,0.01899770197663825,
0.10788029925187033,0.029612294581219317,
0.10793017456359102,0.05289632971198777,
0.10798004987531172,0.034604603854996294,
0.10802992518703242,0.0158793935172021,
0.10807980049875311,0.03669805843473504,
0.10812967581047382,0.011034340896496499,
0.10817955112219452,0.018002988677877065,
0.10822942643391521,0.04670200258438989,
0.10827930174563591,0.016060126633878357,
0.1083291770573566,0.03388775394616915,
0.1083790523690773,0.03768557033405168,
0.10842892768079801,-0.01117012330727784,
0.1084788029925187,0.026862020059984514,
0.1085286783042394,0.04436487865476367,
0.1085785536159601,0.019156711986308646,
0.10862842892768079,0.04230286165994257,
0.1086783042394015,0.0220780244200904,
0.1087281795511222,0.017331116253094858,
0.1087780548628429,0.04605263892912434,
0.10882793017456359,0.03834626371549363,
0.10887780548628428,0.0382938414059088,
0.108927680798005,0.02134410607251803,
0.10897755610972569,0.03072179803895817,
0.10902743142144639,0.02920473961940482,
0.10907730673316708,0.029272381516296547,
0.10912718204488778,0.03883604985429539,
0.10917705735660847,0.027280898820395676,
0.10922693266832918,0.030089375386842292,
0.10927680798004988,0.011494478131998036,
0.10932668329177057,0.002070236932752184,
0.10937655860349127,0.03625204206232775,
0.10942643391521197,0.02533425418755123,
0.10947630922693267,0.038733905460857365,
0.10952618453865337,0.03771430694841078,
0.10957605985037407,0.030153875658693458,
0.10962593516209476,0.03027232663840915,
0.10967581047381546,0.009885058815295132,
0.10972568578553615,0.007820845566879373,
0.10977556109725686,0.031661867415165426,
0.10982543640897756,0.017968782159714515,
0.10987531172069825,0.04335740687151109,
0.10992518703241895,0.03506091181702778,
0.10997506234413965,0.04360600180959273,
0.11002493765586036,0.008695186574386927,
0.11007481296758105,0.005777005654552397,
0.11012468827930175,0.0335149776900176,
0.11017456359102244,0.005001587838818811,
0.11022443890274314,0.021844534368758294,
0.11027431421446383,0.028990017235617123,
0.11032418952618454,0.04775264915238347,
0.11037406483790524,0.02787453249313526,
0.11042394014962593,0.05370874049729308,
0.11047381546134663,0.03878520800991868,
0.11052369077306733,0.04569258464425083,
0.11057356608478804,0.03359604795336084,
0.11062344139650873,0.043581630570130266,
0.11067331670822943,0.04812162166481707,
0.11072319201995012,0.022277521125816668,
0.11077306733167082,0.030967349635883944,
0.11082294264339151,0.033027754982901905,
0.11087281795511222,0.034202997160724634,
0.11092269326683292,0.021738174025101788,
0.11097256857855362,0.03467933147500716,
0.11102244389027431,0.029978377186374694,
0.111072319201995,0.008440529676754991,
0.11112219451371572,0.04692524221986505,
0.11117206982543641,0.026675469964137076,
0.11122194513715711,0.04531065249450183,
0.1112718204488778,0.02253728080807651,
0.1113216957605985,0.0025604025670582023,
0.11137157107231921,0.01572770075838631,
0.1114214463840399,0.011944081919276353,
0.1114713216957606,-0.014123652411316953,
0.1115211970074813,0.011212891725616226,
0.11157107231920199,0.020213534116190517,
0.11162094763092269,0.013955574419154517,
0.1116708229426434,0.03127474846115119,
0.11172069825436409,0.009396956031950609,
0.11177057356608479,0.023111479213132308,
0.11182044887780548,0.03948165132584294,
0.11187032418952618,0.012751601969566949,
0.11192019950124689,0.016480748887268318,
0.11197007481296758,0.013484068852331162,
0.11201995012468828,0.022704313231093422,
0.11206982543640898,0.032734338216769215,
0.11211970074812967,0.024661139414443155,
0.11216957605985037,0.03189204690108315,
0.11221945137157108,0.02810275926404512,
0.11226932668329177,0.02187171224440856,
0.11231920199501247,0.021330513476019997,
0.11236907730673316,0.0047841282849388385,
0.11241895261845386,0.03141498111180962,
0.11246882793017457,0.02615458315933908,
0.11251870324189527,0.006284538279570397,
0.11256857855361596,0.03760403934208274,
0.11261845386533666,0.053930185531133365,
0.11266832917705735,0.008638596655754715,
0.11271820448877805,0.04067228839504866,
0.11276807980049876,0.04173966402047373,
0.11281795511221945,0.0014847686054195973,
0.11286783042394015,0.026278141491948816,
0.11291770573566084,0.019872083273947225,
0.11296758104738154,0.041175009098475435,
0.11301745635910225,0.042683715029272165,
0.11306733167082295,0.03334550373395116,
0.11311720698254364,0.045474133902829374,
0.11316708229426434,0.006501436846173903,
0.11321695760598503,0.0217520781699932,
0.11326683291770574,0.01594472224770492,
0.11331670822942644,-0.005138624718009004,
0.11336658354114713,0.025939004078572754,
0.11341645885286783,0.015542692504145781,
0.11346633416458853,0.013688755465264045,
0.11351620947630922,0.031382310021407255,
0.11356608478802993,0.02020153258445162,
0.11361596009975063,0.01951880599009367,
0.11366583541147132,0.024123160168524248,
0.11371571072319202,0.011351062741477343,
0.11376558603491271,0.0024192702656705423,
0.11381546134663342,0.02387460782600726,
0.11386533665835412,0.013096484446301586,
0.11391521197007481,0.003016101818166538,
0.11396508728179551,0.005319536487237434,
0.1140149625935162,0.02387234006195143,
0.1140648379052369,-0.015786714526571485,
0.11411471321695761,0.020663888274785373,
0.1141645885286783,-0.037316263812055446,
0.114214463840399,0.02749801730699792,
0.1142643391521197,0.009252334327221865,
0.1143142144638404,0.018690294570779163,
0.1143640897755611,0.03738644921901126,
0.1144139650872818,-0.014007812494419496,
0.1144638403990025,-0.023019466861263726,
0.11451371571072319,0.015385196001168305,
0.11456359102244389,0.00408654633240159,
0.11461346633416458,-0.010099083232069619,
0.11466334164588529,0.016289260642812033,
0.11471321695760599,0.003725857945569235,
0.11476309226932668,-0.008076428056244127,
0.11481296758104738,-0.0011543729592834026,
0.11486284289276807,0.010503907054393944,
0.11491271820448878,0.018230473613347356,
0.11496259351620948,0.02136848072813672,
0.11501246882793018,0.02053129457703038,
0.11506234413965087,0.005596845393155632,
0.11511221945137157,0.01234577952314932,
0.11516209476309226,0.01665287511562245,
0.11521197007481297,0.0041651234691371265,
0.11526184538653367,-0.001993121558145434,
0.11531172069825436,0.014451871441835663,
0.11536159600997506,0.013507896736020762,
0.11541147132169575,-0.013172572324991045,
0.11546134663341646,0.007200646648923416,
0.11551122194513716,0.010029168031336275,
0.11556109725685786,0.0006267032594151656,
0.11561097256857855,0.003138505044362008,
0.11566084788029925,0.0109517529325573,
0.11571072319201996,0.003077662264384988,
0.11576059850374065,0.040733468985053096,
0.11581047381546135,0.012426208366652309,
0.11586034912718204,0.010899036409411325,
0.11591022443890274,0.0023325094572924036,
0.11596009975062344,-0.007597050456863019,
0.11600997506234415,0.005867604864769896,
0.11605985037406484,-0.0016010380180711016,
0.11610972568578554,0.008188765926107927,
0.11615960099750623,-0.017169449350444184,
0.11620947630922693,0.0012113283237113674,
0.11625935162094764,0.014764352964598815,
0.11630922693266833,-0.015974406156495043,
0.11635910224438903,-0.005112563322311905,
0.11640897755610972,0.012537025571073614,
0.11645885286783042,0.003119015029501573,
0.11650872817955112,0.00015607404116111051,
0.11655860349127183,-0.012042162949306863,
0.11660847880299252,0.0012357037230072742,
0.11665835411471322,-0.0006654913962915606,
0.11670822942643391,-0.02265305444935756,
0.11675810473815461,0.0017100429817012925,
0.11680798004987532,-0.011838748889975128,
0.11685785536159601,-0.01015040028377533,
0.11690773067331671,-0.013975141279846353,
0.1169576059850374,-0.0349548556530238,
0.1170074812967581,-0.033877664255774306,
0.1170573566084788,0.018944132336344517,
0.1171072319201995,-0.01761057471989348,
0.1171571072319202,-0.0019752553447708477,
0.1172069825436409,0.004237321230107196,
0.1172568578553616,0.006096067804355648,
0.11730673316708229,-0.0009572284392302182,
0.117356608478803,-0.013808495821433484,
0.1174064837905237,0.007986352856923711,
0.11745635910224439,-0.010666153752743948,
0.11750623441396509,-0.007748274135597539,
0.11755610972568578,-0.016655421357135096,
0.11760598503740648,0.0005477568186318289,
0.11765586034912719,-0.008213348379759282,
0.11770573566084788,-0.010204083075488637,
0.11775561097256858,-0.015605564374375932,
0.11780548628428927,-0.027281669208856614,
0.11785536159600997,-0.016811149905838582,
0.11790523690773068,-0.02757498621291917,
0.11795511221945137,-0.0023449337934006997,
0.11800498753117207,-0.009789841649902691,
0.11805486284289277,-0.005051308607834038,
0.11810473815461346,-0.009630159985092968,
0.11815461346633417,-0.011027237168491627,
0.11820448877805487,0.022419947822998394,
0.11825436408977556,-0.013155085901093835,
0.11830423940149626,-0.0226394953067275,
0.11835411471321695,-0.042675883920054766,
0.11840399002493765,-0.009362204312518259,
0.11845386533665836,0.0020109849836878746,
0.11850374064837906,-0.037930829043432895,
0.11855361596009975,0.009024889207051195,
0.11860349127182045,-0.031211648271172062,
0.11865336658354114,-0.006354939916078139,
0.11870324189526185,-0.01903119168233908,
0.11875311720698255,-0.033007644288209445,
0.11880299251870324,-0.000648929646186,
0.11885286783042394,-0.054459068337959646,
0.11890274314214463,-0.013734174445452847,
0.11895261845386533,-0.004060573052646955,
0.11900249376558604,-0.007814921066759344,
0.11905236907730674,-0.004428391210583224,
0.11910224438902743,-0.04825883522281931,
0.11915211970074813,-0.02287108832502966,
0.11920199501246882,-0.008219921441021601,
0.11925187032418953,-0.03290170011989673,
0.11930174563591023,-0.035686230484958954,
0.11935162094763092,-0.04681455442902529,
0.11940149625935162,-0.007683070023938439,
0.11945137157107232,-0.012372890930811332,
0.11950124688279301,0.010071435238501536,
0.11955112219451372,-0.006394061138848448,
0.11960099750623442,-0.016993343176046394,
0.11965087281795511,-0.0023420933718618087,
0.11970074812967581,-0.00969107930516192,
0.1197506234413965,-0.032756724156223216,
0.11980049875311721,-0.007532599852082697,
0.11985037406483791,-0.02155631433829041,
0.1199002493765586,-0.004950047953406423,
0.1199501246882793,-0.011738606043624438,
0.12,-0.026165459889565038,
0.1200498753117207,-0.02660662945457323,
0.1200997506234414,0.005763081051819821,
0.1201496259351621,-0.020559359456029637,
0.12019950124688279,-0.010563491805677238,
0.12024937655860349,-0.01951217471654179,
0.12029925187032418,0.003329149714479819,
0.1203491271820449,0.016507531127785496,
0.12039900249376559,-0.005353383200279003,
0.12044887780548628,-0.009552498273755348,
0.12049875311720698,-0.004829525784623619,
0.12054862842892768,-2.018105643810872e-06,
0.12059850374064839,-0.030708439061333942,
0.12064837905236908,0.021402745247750536,
0.12069825436408978,-0.013010456797631019,
0.12074812967581047,-0.010517021636239968,
0.12079800498753117,-0.025108427875102875,
0.12084788029925186,-0.013459563717032186,
0.12089775561097257,0.0005239891851584553,
0.12094763092269327,0.02890337525985792,
0.12099750623441397,-0.012049384072285408,
0.12104738154613466,-0.00036869245552031797,
0.12109725685785536,0.004849867177039868,
0.12114713216957607,-0.014128060358371428,
0.12119700748129676,-0.01428416421482147,
0.12124688279301746,-0.0028839807455572465,
0.12129675810473815,-0.021749339078516,
0.12134663341645885,0.0075907755569344995,
0.12139650872817954,-0.021722303143595807,
0.12144638403990025,-0.009451930545786268,
0.12149625935162095,-0.01491312006445453,
0.12154613466334165,-0.024364532960468577,
0.12159600997506234,-0.014042220168636186,
0.12164588528678304,-0.007003381213803275,
0.12169576059850375,0.001733550275551719,
0.12174563591022444,-0.012568190330339651,
0.12179551122194514,-0.011697525285111861,
0.12184538653366583,-0.007670633902544898,
0.12189526184538653,-0.010800633096422527,
0.12194513715710723,-0.0021745310076611954,
0.12199501246882793,0.004960911747123219,
0.12204488778054863,-0.014232567767609523,
0.12209476309226933,0.003664590590866332,
0.12214463840399002,-0.019428137652733074,
0.12219451371571072,-0.015768407979687538,
0.12224438902743143,0.010745302177103953,
0.12229426433915212,-0.025986306783690447,
0.12234413965087282,-0.016382866673596626,
0.12239401496259351,0.019979554792238702,
0.12244389027431421,-0.030080230520947493,
0.12249376558603492,-0.009089203530387887,
0.12254364089775562,0.020283201401367953,
0.12259351620947631,0.00033829283776506155,
0.122643391521197,0.022372702000935555,
0.1226932668329177,0.017794613848227683,
0.1227431421446384,-0.013296221789723974,
0.12279301745635911,-0.007652488464687304,
0.1228428927680798,-0.024347115301733058,
0.1228927680798005,0.029047317830129173,
0.1229426433915212,0.0013990834066249676,
0.12299251870324189,0.018663046754574426,
0.1230423940149626,-0.017275482813502982,
0.1230922693266833,-0.013500045651806493,
0.12314214463840399,0.016570876443834884,
0.12319201995012469,-0.01480432098661863,
0.12324189526184538,0.007641746821915059,
0.12329177057356608,0.0010200235423183444,
0.12334164588528679,0.003900440496458375,
0.12339152119700748,-0.0015330192027633782,
0.12344139650872818,0.0009053418047610265,
0.12349127182044888,0.007440229349173894,
0.12354114713216957,0.01536808632338861,
0.12359102244389028,-0.036943479366203874,
0.12364089775561098,0.014702642845160405,
0.12369077306733167,0.022007889103081935,
0.12374064837905237,-0.008133931697227172,
0.12379052369077306,-0.03221727552047259,
0.12384039900249376,0.0016814290020082147,
0.12389027431421447,0.002140677595036655,
0.12394014962593516,0.02094663396420131,
0.12399002493765586,0.006781745492572627,
0.12403990024937656,0.013119820933102926,
0.12408977556109725,0.03350952719708536,
0.12413965087281796,0.01333123256327261,
0.12418952618453866,0.018315986194195097,
0.12423940149625935,0.030837320147115294,
0.12428927680798005,0.024075652367366744,
0.12433915211970074,-0.004138756575460437,
0.12438902743142144,0.053176012203652305,
0.12443890274314215,-0.009227962834934779,
0.12448877805486284,0.0077805448326549835,
0.12453865336658354,0.0062218683784217845,
0.12458852867830424,-0.00043589120290296775,
0.12463840399002493,-0.0011413090589513595,
0.12468827930174564,0.0002366717064246765,
0.12473815461346634,0.02875484676726546,
0.12478802992518703,0.003347914869465311,
0.12483790523690773,0.01776240970159408,
0.12488778054862842,0.02344242568277277,
0.12493765586034913,0.02235833101366131,
0.12498753117206983,0.028808458333163246,
0.12503740648379053,0.035784177600470826,
0.12508728179551123,0.03309528141936159,
0.12513715710723192,0.012913547766692627,
0.12518703241895263,0.020425368328730365,
0.1252369077306733,0.005878909693474212,
0.12528678304239402,0.00505241250825726,
0.1253366583541147,0.0026655475516802647,
0.1253865336658354,0.044075345051231396,
0.12543640897755612,0.025138117472835748,
0.1254862842892768,-0.002137173463851373,
0.1255361596009975,0.030712342802943944,
0.1255860349127182,0.012684483325934519,
0.1256359102244389,-0.009969109330943717,
0.1256857855361596,0.0039093164316298095,
0.1257356608478803,0.01565246190372489,
0.125785536159601,0.0431912637778264,
0.12583541147132168,-0.005444962136814436,
0.1258852867830424,0.015808802007139237,
0.1259351620947631,0.014580205913330434,
0.12598503740648379,-0.008897043209635861,
0.1260349127182045,0.048117134746323315,
0.12608478802992518,0.012000090770169385,
0.1261346633416459,0.03780724259610532,
0.1261845386533666,0.014443954538978093,
0.12623441396508728,0.01564424315532417,
0.126284289276808,0.007749569173141362,
0.12633416458852867,-0.005693343772731216,
0.12638403990024938,0.014598248758594792,
0.1264339152119701,0.015648880478339865,
0.12648379052369077,0.009471429159755598,
0.12653366583541148,-0.0076562819732161475,
0.12658354114713216,0.011959560560167776,
0.12663341645885287,-0.01390832869518066,
0.12668329177057355,0.03942008591490737,
0.12673316708229426,0.04017624271891172,
0.12678304239401497,0.02766606799658673,
0.12683291770573565,0.061475723135921034,
0.12688279301745636,0.03597236356351888,
0.12693266832917705,0.03758592869409951,
0.12698254364089775,0.012807479587384317,
0.12703241895261846,0.057633881666107174,
0.12708229426433915,0.032012578557481054,
0.12713216957605986,0.023331276384725798,
0.12718204488778054,0.005674832992605121,
0.12723192019950125,0.001993341481160916,
0.12728179551122196,0.023791762894589754,
0.12733167082294264,0.024787402006058484,
0.12738154613466335,0.019025643611091013,
0.12743142144638403,0.010450250268285307,
0.12748129675810474,0.02330171931171929,
0.12753117206982545,0.04185432391660409,
0.12758104738154613,0.03264653561599422,
0.12763092269326684,0.02558980288082211,
0.12768079800498752,0.03167622382413199,
0.12773067331670823,0.024468822427498,
0.1277805486284289,0.03407451124978884,
0.12783042394014962,0.03241729096202076,
0.12788029925187033,0.04739408051153349,
0.12793017456359101,0.042196378000238545,
0.12798004987531172,0.013949118409124276,
0.1280299251870324,0.022826585370365617,
0.12807980049875312,0.07345707603470346,
0.12812967581047383,0.021105061353193955,
0.1281795511221945,-0.0038320435177255155,
0.12822942643391522,0.02777350810479448,
0.1282793017456359,0.03636387768134129,
0.1283291770573566,0.02809384800351542,
0.12837905236907732,0.019085257805067164,
0.128428927680798,0.025270819386049786,
0.1284788029925187,0.04815057514000584,
0.1285286783042394,0.031270271878969226,
0.1285785536159601,0.0012004578446284837,
0.1286284289276808,0.01567539965210034,
0.1286783042394015,0.019624611285188755,
0.1287281795511222,0.036298172595570735,
0.12877805486284288,0.02460966572820061,
0.1288279301745636,0.038141615855553854,
0.1288778054862843,0.014981827537989392,
0.12892768079800498,0.04844105902534282,
0.1289775561097257,0.007929017639323546,
0.12902743142144638,0.016894831814687303,
0.12907730673316709,0.03441077378403797,
0.12912718204488777,0.03904115953025272,
0.12917705735660848,0.020874145364825413,
0.1292269326683292,0.03954213525503497,
0.12927680798004987,0.04853730003994889,
0.12932668329177058,0.013487627278350324,
0.12937655860349126,0.004751781026716126,
0.12942643391521197,0.012338962509523845,
0.12947630922693268,0.018341419580734483,
0.12952618453865336,0.03218885718922436,
0.12957605985037407,0.04118446212657691,
0.12962593516209475,0.06840825247679179,
0.12967581047381546,0.02504545911539936,
0.12972568578553617,0.012026757300456607,
0.12977556109725685,0.018477360906829186,
0.12982543640897756,0.019277752206100986,
0.12987531172069824,0.01793247950551204,
0.12992518703241895,0.02357515672069436,
0.12997506234413966,0.02587417113363433,
0.13002493765586035,0.02866493602826661,
0.13007481296758105,0.008300593411321236,
0.13012468827930174,0.048816888495263985,
0.13017456359102245,0.005868388072518261,
0.13022443890274316,0.05387642957505814,
0.13027431421446384,0.029252769668023065,
0.13032418952618455,0.05840285954278923,
0.13037406483790523,0.0424987653156041,
0.13042394014962594,0.04575539895776863,
0.13047381546134662,0.018681501333887046,
0.13052369077306733,0.04186732461291206,
0.13057356608478804,0.05232471093000558,
0.13062344139650872,0.019566008000149522,
0.13067331670822943,0.05494536361438801,
0.1307231920199501,0.0333473809297993,
0.13077306733167082,0.013877759738065674,
0.13082294264339153,0.007122330356497578,
0.13087281795511221,0.01568521875792016,
0.13092269326683292,-0.005470440628662761,
0.1309725685785536,0.01619006915089024,
0.13102244389027431,0.03911992250687537,
0.13107231920199502,0.05070587848293584,
0.1311221945137157,0.02421470093970329,
0.13117206982543642,0.008126829415198503,
0.1312219451371571,0.029351501211868573,
0.1312718204488778,0.04587547637444467,
0.13132169576059852,0.03875020482191404,
0.1313715710723192,0.03410222324505472,
0.1314214463840399,0.028983176805106356,
0.1314713216957606,0.004027990006596212,
0.1315211970074813,0.04288327914639503,
0.13157107231920198,0.013367928206572594,
0.1316209476309227,0.027758212839351506,
0.1316708229426434,0.02291764149896536,
0.13172069825436408,0.024757705512561477,
0.1317705735660848,0.03902717767340484,
0.13182044887780547,-0.002047104704590099,
0.13187032418952618,0.007693398128206845,
0.1319201995012469,0.0154219261659329,
0.13197007481296757,0.02994249028474242,
0.13201995012468828,0.024058018925809027,
0.13206982543640897,0.03552783643887009,
0.13211970074812968,-0.010415837547011648,
0.13216957605985039,0.016086742059054512,
0.13221945137157107,0.04285238333529955,
0.13226932668329178,0.03165201498565014,
0.13231920199501246,0.05759410404824028,
0.13236907730673317,-0.005297557501817665,
0.13241895261845388,0.012007584243128585,
0.13246882793017456,0.0073617924689349835,
0.13251870324189527,0.029964217187195597,
0.13256857855361595,0.033548114130183285,
0.13261845386533666,0.011060276932433036,
0.13266832917705737,0.026199255199247616,
0.13271820448877805,0.04331336698750135,
0.13276807980049876,0.024523431293899466,
0.13281795511221944,0.004920375051312832,
0.13286783042394015,-0.0009118846140304289,
0.13291770573566083,0.003373537556834217,
0.13296758104738154,-0.012980950685997097,
0.13301745635910225,0.04242520275666019,
0.13306733167082294,0.013455278959151107,
0.13311720698254365,0.004448848277158891,
0.13316708229426433,0.03232340896486179,
0.13321695760598504,0.03969106897360426,
0.13326683291770575,0.029935366909895823,
0.13331670822942643,0.01396372034249414,
0.13336658354114714,-0.002344335627088783,
0.13341645885286782,0.029077269030008096,
0.13346633416458853,0.020965273284328147,
0.13351620947630924,0.024467217135514214,
0.13356608478802992,0.03438636728510823,
0.13361596009975063,0.005489381922430514,
0.1336658354114713,0.02307058512106556,
0.13371571072319202,-0.0062252156036210135,
0.13376558603491273,0.03981056648750707,
0.1338154613466334,0.019129143457675198,
0.13386533665835412,-0.004029378036532388,
0.1339152119700748,0.0029862115346362458,
0.13396508728179551,0.017876575134165518,
0.1340149625935162,0.004532972233339124,
0.1340648379052369,0.002342711306198163,
0.13411471321695762,0.012387927902026795,
0.1341645885286783,-0.007902893292834485,
0.134214463840399,0.029826183537324323,
0.1342643391521197,0.02694681641579165,
0.1343142144638404,-0.0023793649835913734,
0.1343640897755611,0.004397478807183113,
0.1344139650872818,0.005161522660267629,
0.1344638403990025,-0.018589095494576387,
0.13451371571072318,0.011937491366931088,
0.1345635910224439,0.027652752986089397,
0.1346134663341646,0.00035976539411301106,
0.13466334164588528,0.01804618054928052,
0.134713216957606,0.02485356271597729,
0.13476309226932667,0.01026528828898493,
0.13481296758104738,0.022358706006186092,
0.1348628428927681,0.019068785391697252,
0.13491271820448877,0.005418825510537346,
0.13496259351620948,-0.0017773486851293888,
0.13501246882793017,-0.0002770725699880643,
0.13506234413965088,0.00023909810949591243,
0.13511221945137158,0.019476025041525794,
0.13516209476309227,0.022903536822639167,
0.13521197007481298,0.02041621781173868,
0.13526184538653366,0.038369275456223345,
0.13531172069825437,0.01040086964065429,
0.13536159600997505,0.015889079555457066,
0.13541147132169576,0.01080572829643647,
0.13546134663341647,0.0054104450142589645,
0.13551122194513715,0.009573984062177694,
0.13556109725685786,-0.00639985769240518,
0.13561097256857854,0.007008470320419218,
0.13566084788029925,0.011754557799808558,
0.13571072319201996,0.007813562934169044,
0.13576059850374064,0.020869080534872422,
0.13581047381546135,-0.01999713199441651,
0.13586034912718203,-0.009884295593422012,
0.13591022443890274,0.003883163491894949,
0.13596009975062345,-0.022657746190546488,
0.13600997506234414,0.013982765531083479,
0.13605985037406484,0.022293534019053138,
0.13610972568578553,0.015781919140316732,
0.13615960099750624,-0.014177061090437093,
0.13620947630922695,0.007220353929357132,
0.13625935162094763,0.0027188046458145555,
0.13630922693266834,0.0009837143238106967,
0.13635910224438902,0.008364447383226434,
0.13640897755610973,0.032667592602059925,
0.1364588528678304,0.0019100315430407968,
0.13650872817955112,-0.03343443357381393,
0.13655860349127183,-0.00521650367508469,
0.1366084788029925,-0.007771542875191093,
0.13665835411471322,0.019460874416702398,
0.1367082294264339,0.007794411966488194,
0.1367581047381546,0.006493862688869652,
0.13680798004987532,0.005161714015968084,
0.136857855361596,-0.01185422558638874,
0.1369077306733167,0.005079052156198929,
0.1369576059850374,-0.004227050992125018,
0.1370074812967581,-0.011778627623723635,
0.13705735660847881,-0.021282983946332792,
0.1371072319201995,-0.018920105551207086,
0.1371571072319202,0.0010093558281750901,
0.1372069825436409,0.008664980573885508,
0.1372568578553616,0.0056455233172064846,
0.1373067331670823,-0.024275980349523385,
0.137356608478803,-0.04728199740984838,
0.1374064837905237,-0.003524932822722081,
0.13745635910224438,0.011276473733081238,
0.1375062344139651,-0.02580210273863634,
0.1375561097256858,-0.020415686320632037,
0.13760598503740648,-0.011155975469352018,
0.1376558603491272,-0.017407673957128653,
0.13770573566084787,-0.011779220385068387,
0.13775561097256858,-0.013878158346155176,
0.13780548628428926,-0.006697615523684761,
0.13785536159600997,-0.006149323331562569,
0.13790523690773068,-0.005386305087737516,
0.13795511221945136,0.0020218421397360607,
0.13800498753117207,0.015894033770416892,
0.13805486284289276,0.002265075215873944,
0.13810473815461347,-0.0037565387921905235,
0.13815461346633418,-0.01340684705895544,
0.13820448877805486,-0.006026294351546514,
0.13825436408977557,-0.016823115485323146,
0.13830423940149625,-0.0004932991738845587,
0.13835411471321696,0.008572756458931956,
0.13840399002493767,-0.03816693513537717,
0.13845386533665835,0.004284559963404707,
0.13850374064837906,0.013901515399145178,
0.13855361596009974,-0.0023894981312274563,
0.13860349127182045,-0.007737434596603183,
0.13865336658354116,-0.009457602668315732,
0.13870324189526184,0.001947471547668115,
0.13875311720698255,-0.024500271076299304,
0.13880299251870323,-0.02699066480923018,
0.13885286783042394,-0.01744488770356281,
0.13890274314214462,-0.0062617945270251486,
0.13895261845386533,-0.003095752859630964,
0.13900249376558604,-0.011788644812960571,
0.13905236907730673,0.018082895260939747,
0.13910224438902744,-0.003851525816685814,
0.13915211970074812,0.007314781010675772,
0.13920199501246883,0.0007907060990486794,
0.13925187032418954,-0.023719431669570648,
0.13930174563591022,-0.03293441335790458,
0.13935162094763093,-0.00900009659382879,
0.1394014962593516,0.008818580690989673,
0.13945137157107232,-0.01812258761087604,
0.13950124688279303,-0.02073077990065811,
0.1395511221945137,-0.004637630624152163,
0.13960099750623442,-0.013394471194190339,
0.1396508728179551,-0.0032223807043746163,
0.1397007481296758,-0.009300797325815478,
0.13975062344139652,-0.005770889367276964,
0.1398004987531172,-0.013814375898623017,
0.1398503740648379,0.014552242911946402,
0.1399002493765586,0.0004161091311307239,
0.1399501246882793,-0.007821686043079649,
0.14,-0.025889357277322417,
0.1400498753117207,-0.012786965730839844,
0.1400997506234414,-0.011981162436667987,
0.1401496259351621,0.009338252719864574,
0.1401995012468828,-0.01094478721363805,
0.14024937655860348,0.0021272958619778584,
0.1402992518703242,-0.03693376251672116,
0.1403491271820449,0.004314971057803008,
0.14039900249376558,0.014227432687500784,
0.1404488778054863,-0.019686646104776828,
0.14049875311720697,0.01620336423764163,
0.14054862842892768,0.01454201806373441,
0.1405985037406484,-0.009582236747714143,
0.14064837905236907,0.0024944999944256536,
0.14069825436408978,0.010802143428230769,
0.14074812967581046,-0.008728869167529617,
0.14079800498753117,-0.013411104946876905,
0.14084788029925188,0.0032312999587358754,
0.14089775561097256,-0.0202894626559256,
0.14094763092269327,-0.009337764215360877,
0.14099750623441396,0.026240696371048807,
0.14104738154613466,0.012234172796173214,
0.14109725685785537,-0.03904714154101565,
0.14114713216957606,0.0007972425102142668,
0.14119700748129677,-0.00660343422970766,
0.14124688279301745,-0.0035778858736430024,
0.14129675810473816,0.008286986887394205,
0.14134663341645887,-0.023358104375319023,
