time,amplitude,label
0.0,0.017052404582361416,
4.987531172069826e-05,0.016512183307285506,
9.975062344139652e-05,0.006982707813047114,
0.00014962593516209475,-0.028550612025508414,
0.00019950124688279303,0.01315506072042465,
0.00024937655860349125,0.012657821922518681,
0.0002992518703241895,0.00022262705636529826,
0.00034912718204488776,-0.011874933249035508,
0.00039900249376558606,0.011280708721031303,
0.0004488778054862843,0.03789051136604845,
0.0004987531172069825,0.003839040615353519,
0.0005486284289276808,0.01617705381320885,
0.000598503740648379,0.023986514773179198,
0.0006483790523690773,0.02219930848492923,
0.0006982543640897755,-0.0010985672567593325,
0.0007481296758104738,0.026142023976589927,
0.0007980049875311721,-0.01380809707768539,
0.0008478802992518703,0.029704657650448336,
0.0008977556109725686,0.01887420533865203,
0.0009476309226932668,-0.006334854801664345,
0.000997506234413965,0.024732551751351008,
0.0010473815461346633,0.015521625779247844,
0.0010972568578553616,-0.015396983543752714,
0.00114713216957606,-0.016575342549899497,
0.001197007481296758,0.033099670501367084,
0.0012468827930174563,0.022251363229546725,
0.0012967581047381546,0.023820742225746264,
0.001346633416458853,0.015408258341088589,
0.001396508728179551,0.01726968317502388,
0.0014463840399002493,0.018056606601589476,
0.0014962593516209476,0.00024375253782660082,
0.001546134663341646,0.02785468913256224,
0.0015960099750623442,-0.016939547369418988,
0.0016458852867830423,0.0062957375621041645,
0.0016957605985037406,0.043100403870777834,
0.001745635910224439,0.037282243998292885,
0.0017955112219451373,0.006177053185105134,
0.0018453865336658353,0.04204228653276175,
0.0018952618453865336,0.031989374436703355,
0.001945137157107232,-0.0006638240258804232,
0.00199501246882793,0.017077128188885345,
0.0020448877805486283,0.03997187298963979,
0.0020947630922693266,-0.007041439074199806,
0.002144638403990025,0.003938315191196005,
0.0021945137157107233,0.03468325177428791,
0.0022443890274314216,0.021711519440289893,
0.00229426433915212,0.006063187728482463,
0.0023441396508728177,0.018724168322091214,
0.002394014962593516,0.00484856677317913,
0.0024438902743142144,0.003924047843769303,
0.0024937655860349127,0.0210497286552215,
0.002543640897755611,-0.0049056484205642625,
0.0025935162094763093,0.013020962192699555,
0.0026433915211970076,0.03959886758787731,
0.002693266832917706,0.008708057194719128,
0.002743142144638404,0.01500336212651493,
0.002793017456359102,0.04666098422576651,
0.0028428927680798004,0.0255735674548404,
0.0028927680798004987,0.020108349906236108,
0.002942643391521197,0.026118194260247855,
0.0029925187032418953,0.03948374046630136,
0.0030423940149625936,0.027257598201192196,
0.003092269326683292,0.025210048200470223,
0.00314214463840399,0.008767262357369198,
0.0031920199501246885,0.005040624809669856,
0.0032418952618453864,0.003380282003740496,
0.0032917705735660847,0.02667765317020518,
0.003341645885286783,0.017896575224320727,
0.0033915211970074813,0.013389110671310281,
0.0034413965087281796,0.004758575082398762,
0.003491271820448878,0.01436856923574322,
0.003541147132169576,0.02142444948313124,
0.0035910224438902745,0.03129547478611675,
0.0036408977556109724,0.03199230980624183,
0.0036907730673316707,0.0017868451185784687,
0.003740648379052369,0.023814940954563067,
0.0037905236907730673,0.04970229211657149,
0.0038403990024937656,0.029076010584611192,
0.003890274314214464,0.031563530877469624,
0.003940149625935162,0.034715685290662435,
0.00399002493765586,0.023080812680927435,
0.004039900249376558,0.02806633949869472,
0.004089775561097257,0.006274670904227932,
0.004139650872817955,0.013005095428392177,
0.004189526184538653,0.05019362960862597,
0.004239401496259352,-0.0022901132054727394,
0.00428927680798005,0.03575532088018167,
0.004339152119700748,0.0031827762471553847,
0.0043890274314214465,0.02176870071690057,
0.004438902743142145,0.036104162489168624,
0.004488778054862843,0.011834521941189315,
0.004538653366583541,0.026184624905592854,
0.00458852867830424,0.003786694986842004,
0.004638403990024938,0.026828092829552654,
0.0046882793017456355,0.02487924139822313,
0.004738154613466334,0.012239067294480838,
0.004788029925187032,0.005269883837197294,
0.00483790523690773,0.02168190887224524,
0.004887780548628429,0.0070271883263714335,
0.004937655860349127,0.009082998167338579,
0.004987531172069825,-0.003251109974735534,
0.005037406483790524,-0.0011879849475190662,
0.005087281795511222,-0.0014298156381004172,
0.00513715710723192,0.0004176380443296421,
0.0051870324189526185,0.024915938508081825,
0.005236907730673317,0.0033540288823617863,
0.005286783042394015,0.03634945624403429,
0.0053366583541147134,-0.009104650508572548,
0.005386533665835412,0.026769427602118298,
0.00543640897755611,-0.013128682182509534,
0.005486284289276808,0.031069428914631752,
0.005536159600997507,0.0007898108140302965,
0.005586034912718204,0.004074587448661382,
0.005635910224438902,-0.01915780700061487,
0.005685785536159601,0.01725264981967079,
0.005735660847880299,-0.0007705091392810164,
0.005785536159600997,0.02650559055098054,
0.005835411471321696,-0.0009282043842387469,
0.005885286783042394,0.0007913108454096346,
0.005935162094763092,0.011746197764735298,
0.0059850374064837905,0.04598565011832414,
0.006034912718204489,0.036118601272631244,
0.006084788029925187,-0.002746967126464595,
0.0061346633416458855,0.016015890708291878,
0.006184538653366584,-0.009333098661419806,
0.006234413965087282,-0.004186985908371504,
0.00628428927680798,0.025860508693952143,
0.006334164588528679,-0.017465998415829742,
0.006384039900249377,-0.004651081705545216,
0.006433915211970074,0.013535529953294663,
0.006483790523690773,-0.0025372073516571683,
0.006533665835411471,-0.00422242785508155,
0.006583541147132169,0.0035474461279418334,
0.006633416458852868,0.03428943681473758,
0.006683291770573566,-0.009265823159664698,
0.006733167082294264,0.010906435101524682,
0.0067830423940149626,0.029549343447487674,
0.006832917705735661,-0.01730962219259962,
0.006882793017456359,-0.0038883766976213242,
0.0069326683291770575,0.00028700128702522677,
0.006982543640897756,0.045169039883815154,
0.007032418952618454,0.001884515452786872,
0.007082294264339152,0.018911129732446033,
0.007132169576059851,0.01329454105359882,
0.007182044887780549,0.015132764094297702,
0.007231920199501247,0.003283647197710884,
0.007281795511221945,0.025893952810192522,
0.007331670822942643,-0.008171304656297985,
0.007381546134663341,-0.00249648044400347,
0.00743142144638404,0.01880914930578008,
0.007481296758104738,0.0071536179402621625,
0.007531172069825436,0.015530718108734496,
0.007581047381546135,0.0186776516365749,
0.007630922693266833,0.008136610614400212,
0.007680798004987531,0.02362538558932146,
0.0077306733167082295,0.009258532785835884,
0.007780548628428928,0.0009616074046315442,
0.007830423940149626,-0.00943657685585738,
0.007880299251870324,0.02247018373592997,
0.007930174563591023,0.04010429777324555,
0.00798004987531172,-0.005998836452381577,
0.00802992518703242,-0.005361780201060068,
0.008079800498753117,0.022921706380495926,
0.008129675810473816,-0.009863347169910306,
0.008179551122194513,0.014919421635114484,
0.008229426433915213,0.020650784547439432,
0.00827930174563591,0.031346976701006606,
0.00832917705735661,0.0266935382829991,
0.008379052369077307,-0.008736124379546305,
0.008428927680798006,0.0025446335043876173,
0.008478802992518703,0.0034024141592360942,
0.0085286783042394,-0.008647588745877103,
0.0085785536159601,0.004341043196589896,
0.008628428927680797,-0.008731213205805988,
0.008678304239401496,-0.013142707695316037,
0.008728179551122194,0.023737561122185707,
0.008778054862842893,-0.0010946050073749364,
0.00882793017456359,0.008500431090385558,
0.00887780548628429,0.022338344326297086,
0.008927680798004987,0.016996245096104052,
0.008977556109725686,-0.00789167417012947,
0.009027431421446384,-0.02469896843603789,
0.009077306733167083,-0.018732999439638368,
0.00912718204488778,-0.0007253790965518913,
0.00917705735660848,0.0023716876133838835,
0.009226932668329177,0.0069997293379121875,
0.009276807980049876,-0.022740802491439158,
0.009326683291770574,0.02017621872240083,
0.009376558603491271,0.012824688828253987,
0.00942643391521197,0.02118093964789923,
0.009476309226932668,-0.00299745075437635,
0.009526184538653367,0.0151953288403608,
0.009576059850374064,-0.022663783238628346,
0.009625935162094763,0.0013332801669713795,
0.00967581047381546,-0.014278179278828438,
0.00972568578553616,-0.04727871067140463,
0.009775561097256857,-0.005612010817923593,
0.009825436408977557,0.01610656818875447,
0.009875311720698254,-0.007679916429244316,
0.009925187032418953,-0.00675438954693789,
0.00997506234413965,-0.012393478220300395,
0.01002493765586035,-0.007219691225405886,
0.010074812967581047,-0.005128189640932095,
0.010124688279301746,-0.00016375104669623126,
0.010174563591022444,-0.000723946714026401,
0.010224438902743141,-0.025534304896831547,
0.01027431421446384,-0.000865193042584097,
0.010324189526184538,0.00245559233927668,
0.010374064837905237,-0.0026300794650879374,
0.010423940149625935,-0.007797183625413601,
0.010473815461346634,0.0023438450554262094,
0.010523690773067331,-0.04063291009179768,
0.01057356608478803,-0.016882651035024083,
0.010623441396508728,-0.024293486675802816,
0.010673316708229427,-0.023515549732039228,
0.010723192019950124,-0.011238331986750515,
0.010773067331670824,-0.005897698405175528,
0.010822942643391521,0.0013328542218661033,
0.01087281795511222,-0.00808286677406381,
0.010922693266832918,-0.021720799371405905,
0.010972568578553617,-0.007055380213419763,
0.011022443890274314,0.013149387284462119,
0.011072319201995013,-0.026671134605601172,
0.01112219451371571,-0.01617247908581992,
0.011172069825436408,-0.013672911174225545,
0.011221945137157107,-0.00410362581684961,
0.011271820448877805,-0.024671255066084495,
0.011321695760598504,-0.013896124584727918,
0.011371571072319201,-0.006817086983860452,
0.0114214463840399,0.008709967098156364,
0.011471321695760598,-0.032873884005648384,
0.011521197007481297,-0.01599439228186729,
0.011571072319201995,-0.005190106302290219,
0.011620947630922694,-0.0037867105778509203,
0.011670822942643391,-0.02696734121832666,
0.01172069825436409,0.004643282340028471,
0.011770573566084788,0.002356501291837029,
0.011820448877805487,0.007766188770181141,
0.011870324189526184,-0.018461706887026835,
0.011920199501246884,-0.019897235435353194,
0.011970074812967581,-0.01838254703919762,
0.012019950124688279,-0.005622886379390488,
0.012069825436408978,-0.009476227403101447,
0.012119700748129675,-0.023732097982697667,
0.012169576059850374,-0.027221097548832434,
0.012219451371571072,-0.0009208108842437245,
0.012269326683291771,-0.02084919670500919,
0.012319201995012468,-0.013319037431432397,
0.012369077306733168,-0.01159619071121445,
0.012418952618453865,0.0040846661148147695,
0.012468827930174564,-0.03232500599485308,
0.012518703241895262,-0.016844535518276783,
0.01256857855361596,-0.012529213087493562,
0.012618453865336658,-0.01617729767771296,
0.012668329177057357,-0.023242810699728597,
0.012718204488778055,-0.04257925038341065,
0.012768079800498754,-0.015921870586019862,
0.012817955112219451,-0.030195792083801923,
0.012867830423940149,0.010420155564331554,
0.012917705735660848,-0.0015743376247846184,
0.012967581047381545,-0.0069105885999225895,
0.013017456359102245,-0.017490576099571206,
0.013067331670822942,-0.005675637789879057,
0.013117206982543641,-0.014018890565731024,
0.013167082294264339,-0.003993052660611717,
0.013216957605985038,-0.020871528661703942,
0.013266832917705735,0.003701951906299246,
0.013316708229426434,-0.012144779733031474,
0.013366583541147132,-0.01690460204596075,
0.013416458852867831,-0.01943717465042075,
0.013466334164588529,-0.04380238914414108,
0.013516209476309228,-0.031090226802646597,
0.013566084788029925,-0.02684822968504568,
0.013615960099750624,-0.022794720347265932,
0.013665835411471322,0.0027326798578467017,
0.01371571072319202,-0.023978262279412722,
0.013765586034912718,-0.01421219640895578,
0.013815461346633416,-0.01103734671848823,
0.013865336658354115,-0.008189919503699093,
0.013915211970074812,-0.014458416076703885,
0.013965087281795512,-0.0035205478708344104,
0.014014962593516209,-0.024850774264264158,
0.014064837905236908,-0.036953179368993505,
0.014114713216957606,-0.02436431397355021,
0.014164588528678305,-0.011148749037464264,
0.014214463840399002,0.00826682567156567,
0.014264339152119701,-0.008373701504485824,
0.014314214463840399,-0.016529070822898968,
0.014364089775561098,0.01453735980609681,
0.014413965087281795,-0.016052685987928552,
0.014463840399002495,-0.014414436064516494,
0.014513715710723192,-0.006644270529235569,
0.01456359102244389,-0.012960431039476241,
0.014613466334164589,-0.018669114796786363,
0.014663341645885286,-0.018759994142605475,
0.014713216957605985,-0.03370966063735556,
0.014763092269326683,-0.020098355321423005,
0.014812967581047382,-0.0027897669304084455,
0.01486284289276808,-0.03285579851800328,
0.014912718204488778,-0.045742394081537616,
0.014962593516209476,-0.020657109632754606,
0.015012468827930175,-0.007679757653930613,
0.015062344139650873,-0.016693486533633194,
0.015112219451371572,-0.00851519812055575,
0.01516209476309227,-0.03124267739982229,
0.015211970074812968,-0.021654970060903667,
0.015261845386533666,-0.02764218814488019,
0.015311720698254365,-0.015716049142893224,
0.015361596009975062,-0.010742331652951114,
0.01541147132169576,0.007708432587498225,
0.015461346633416459,-0.0216489664763721,
0.015511221945137156,-0.0023042982104551236,
0.015561097256857856,-0.018782465693712686,
0.015610972568578553,-8.81566844118005e-05,
0.015660847880299252,-0.018102105992650004,
0.01571072319201995,-0.0029348281447664683,
0.015760598503740647,-0.00012367418369923014,
0.015810473815461346,-0.010475764076032623,
0.015860349127182045,-0.012417499346592977,
0.015910224438902745,-0.019395314723663674,
0.01596009975062344,-0.010047127026440627,
0.01600997506234414,-0.025707701629966266,
0.01605985037406484,-0.007954376632126512,
0.016109725685785538,-0.012871950830808034,
0.016159600997506234,-0.011017483078286875,
0.016209476309226933,-0.0034589748544793606,
0.016259351620947632,-0.030726653800557262,
0.016309226932668328,-0.03173408875072848,
0.016359102244389027,-0.0076113228611574294,
0.016408977556109726,-0.027799336625801502,
0.016458852867830425,-0.0038679983907243254,
0.01650872817955112,-0.006698031708429803,
0.01655860349127182,-0.01559634596517814,
0.01660847880299252,-0.015479880330138406,
0.01665835411471322,-0.01609814251546795,
0.016708229426433914,-0.010518569554360091,
0.016758104738154613,-0.018255127725682024,
0.016807980049875312,-0.03212117103905453,
0.01685785536159601,-0.0055583951474679335,
0.016907730673316707,0.0030385293370616736,
0.016957605985037406,-0.025649340430647517,
0.017007481296758106,-0.0038972576751814068,
0.0170573566084788,-0.004781537839381973,
0.0171072319201995,0.01272907819059272,
0.0171571072319202,-0.013951062746533304,
0.0172069825436409,0.003023389961911026,
0.017256857855361595,-0.003384817682935513,
0.017306733167082294,0.020082701051243594,
0.017356608478802993,-0.032894651958119435,
0.017406483790523692,0.0027335723977058735,
0.017456359102244388,-0.0052491030900401504,
0.017506234413965087,-0.013134568491567076,
0.017556109725685786,-0.028994616751964984,
0.017605985037406485,0.0017434344441637174,
0.01765586034912718,0.010904813614541646,
0.01770573566084788,-0.007532785443392521,
0.01775561097256858,-0.017161440225720897,
0.01780548628428928,0.0005323860429433331,
0.017855361596009974,-0.0170994616425324,
0.017905236907730673,-0.017391000136295968,
0.017955112219451373,1.5029228470417669e-05,
0.018004987531172068,-0.031977557030745,
0.018054862842892767,0.026701324011974576,
0.018104738154613467,-0.010250458114768322,
0.018154613466334166,-0.0065263234533674335,
0.01820448877805486,0.00539223451328997,
0.01825436408977556,-0.007072331316355088,
0.01830423940149626,-0.009027888388236245,
0.01835411471321696,0.022549897871069896,
0.018403990024937655,-0.02270663890062101,
0.018453865336658354,-0.0033194261212785825,
0.018503740648379053,-0.01830441202228769,
0.018553615960099752,0.011182109435028311,
0.018603491271820448,-0.007178293690261662,
0.018653366583541147,0.014929610926936808,
0.018703241895261846,0.00924111689991724,
0.018753117206982542,-0.0019423258654124728,
0.01880299251870324,-0.020392042608783398,
0.01885286783042394,0.019738379252692364,
0.01890274314214464,0.017133640047545702,
0.018952618453865335,0.013234602782647435,
0.019002493765586034,-0.0037425372859602127,
0.019052369077306733,0.021811426186014723,
0.019102244389027433,0.015844825763581902,
0.01915211970074813,0.00918949324609879,
0.019201995012468828,-0.00019359620098410987,
0.019251870324189527,0.008572177770097701,
0.019301745635910226,-0.013226501617700375,
0.01935162094763092,0.016062915071830927,
0.01940149625935162,0.0020079795584800673,
0.01945137157107232,0.019985194246841087,
0.01950124688279302,-0.004595645585308023,
0.019551122194513715,-0.01283032518676637,
0.019600997506234414,0.029574189603991934,
0.019650872817955113,-0.012296535036822338,
0.01970074812967581,0.043239042121394414,
0.019750623441396508,-0.0101379949538531,
0.019800498753117207,4.1929453680160725e-05,
0.019850374064837906,-0.0019345792001585153,
0.019900249376558602,0.0025897667855435784,
0.0199501246882793,-0.009759179402836129,
0.02,0.007517322604933527,
0.0200498753117207,0.008730329695901585,
0.020099750623441395,-0.0025160530108923815,
0.020149625935162094,0.0019604765206071833,
0.020199501246882794,-0.006411115278758803,
0.020249376558603493,0.005640643293772037,
0.02029925187032419,-0.01585788882600197,
0.020349127182044888,0.009334932943432931,
0.020399002493765587,0.040003522480538616,
0.020448877805486283,-0.011078111352805961,
0.02049875311720698,0.02055381310037193,
0.02054862842892768,0.012525280662222402,
0.02059850374064838,-0.0038458508824239443,
0.020648379052369076,0.04222055077680739,
0.020698254364089775,0.01938727675881107,
0.020748129675810474,0.005439336327315678,
0.020798004987531173,0.012351186448101471,
0.02084788029925187,0.012009945964954428,
0.020897755610972568,0.0215895017489128,
0.020947630922693267,0.015239056554235516,
0.020997506234413967,0.025299743401806234,
0.021047381546134662,0.024500881798209587,
0.02109725685785536,0.005694969117872121,
0.02114713216957606,0.0056789514872525315,
0.02119700748129676,0.022146899577453992,
0.021246882793017455,0.02757558511584902,
0.021296758104738155,0.02673038908656639,
0.021346633416458854,0.006562242880749343,
0.02139650872817955,0.01695810405253685,
0.02144638403990025,-0.00860321118518836,
0.021496259351620948,0.021886708492538456,
0.021546134663341647,0.01784945254963396,
0.021596009975062343,0.062051534592945254,
0.021645885286783042,0.010725457420324215,
0.02169576059850374,0.02236549282045805,
0.02174563591022444,0.011536977804231009,
0.021795511221945136,0.023136427656030797,
0.021845386533665835,0.013713624787550267,
0.021895261845386534,0.01565886276736539,
0.021945137157107233,0.019679999542153603,
0.02199501246882793,0.055758314473080425,
0.02204488778054863,0.04016520072884141,
0.022094763092269327,0.017644442453613025,
0.022144638403990027,-0.000781858754173366,
0.022194513715710722,-0.0032676161383789863,
0.02224438902743142,-0.020882674817288328,
0.02229426433915212,0.03680882327676886,
0.022344139650872816,0.048915493360728944,
0.022394014962593516,0.0037740370658203553,
0.022443890274314215,0.0015558633168565143,
0.022493765586034914,0.011301210297578933,
0.02254364089775561,0.019700929967979366,
0.02259351620947631,0.03758263604516383,
0.022643391521197008,0.03908557762416265,
0.022693266832917707,0.029113196202265185,
0.022743142144638403,0.005342106372075134,
0.022793017456359102,0.01706198874726029,
0.0228428927680798,0.034605589012376266,
0.0228927680798005,0.02394756599092031,
0.022942643391521196,0.02068034117201386,
0.022992518703241895,0.032910091004700784,
0.023042394014962594,0.045949042466767925,
0.02309226932668329,0.004931083244020321,
0.02314214463840399,0.020688148123408207,
0.02319201995012469,0.04039662030823409,
0.023241895261845388,0.01032536619301438,
0.023291770573566083,0.0167454649871741,
0.023341645885286783,0.00540229918947939,
0.02339152119700748,0.010386825650820108,
0.02344139650872818,0.031122702613706945,
0.023491271820448877,0.031242724538179025,
0.023541147132169576,0.02311722729682199,
0.023591022443890275,0.03396402919728897,
0.023640897755610974,0.020843520894995464,
0.02369077306733167,0.004253398934159963,
0.02374064837905237,0.002563476166767411,
0.023790523690773068,0.014375936152193665,
0.023840399002493767,0.004096299425779978,
0.023890274314214463,0.015432415998836452,
0.023940149625935162,0.0010717932157684913,
0.02399002493765586,0.021779246605894937,
0.024039900249376557,0.033959198943538715,
0.024089775561097256,0.01732652692560193,
0.024139650872817955,0.011861293676719934,
0.024189526184538655,0.047743507830701165,
0.02423940149625935,0.0035940019004320617,
0.02428927680798005,-0.029432426660676976,
0.02433915211970075,0.04465212461607852,
0.024389027431421448,0.0214895304057442,
0.024438902743142144,0.028400018649584045,
0.024488778054862843,0.05170342618168274,
0.024538653366583542,0.025580543234406075,
0.02458852867830424,0.012948027424918625,
0.024638403990024937,0.04028667345272688,
0.024688279301745636,0.005435661825078705,
0.024738154613466335,0.026960037838758014,
0.02478802992518703,0.040807178835207236,
0.02483790523690773,0.018762450453458243,
0.02488778054862843,0.007564217638942182,
0.02493765586034913,0.022942617400340513,
0.024987531172069824,0.011545849075088445,
0.025037406483790523,0.04691600401270041,
0.025087281795511222,0.012618967976822472,
0.02513715710723192,0.030173503548966266,
0.025187032418952617,-0.01459914113816502,
0.025236907730673316,0.022935220770566967,
0.025286783042394016,0.026442614836387206,
0.025336658354114715,0.009657921276067257,
0.02538653366583541,0.008737670762502247,
0.02543640897755611,0.020380690705142715,
0.02548628428927681,0.044445532032018384,
0.025536159600997508,0.00787208481207688,
0.025586034912718204,0.016206155452670946,
0.025635910224438903,0.03428742468430031,
0.025685785536159602,0.031155444822486784,
0.025735660847880298,0.016612786875036832,
0.025785536159600997,0.042450526685464354,
0.025835411471321696,0.028622717003019292,
0.025885286783042395,0.025633547312160707,
0.02593516209476309,0.018499059206794705,
0.02598503740648379,0.027202295834963273,
0.02603491271820449,0.0043956250019910395,
0.02608478802992519,0.006046272526748319,
0.026134663341645884,0.016962341018667365,
0.026184538653366583,0.01329448107642699,
0.026234413965087282,0.011791390685661898,
0.02628428927680798,0.027112756114875586,
0.026334164588528677,0.022715519700435883,
0.026384039900249377,0.02360112385684714,
0.026433915211970076,0.010878041953494216,
0.02648379052369077,0.03756298523485462,
0.02653366583541147,0.019312154920959584,
0.02658354114713217,0.0039188976783332725,
0.02663341645885287,0.0025959751655211995,
0.026683291770573565,0.019216263380210253,
0.026733167082294264,0.028351365399463105,
0.026783042394014963,0.006421959569956687,
0.026832917705735662,-0.010397839676170716,
0.026882793017456358,0.018062696031765028,
0.026932668329177057,0.014473020028175076,
0.026982543640897756,0.01764124139700427,
0.027032418952618455,0.015587488365201262,
0.02708229426433915,0.023205223792794914,
0.02713216957605985,0.03484717453979663,
0.02718204488778055,0.03459487189861786,
0.02723192019950125,0.002057773299851795,
0.027281795511221944,-0.0030201778803091786,
0.027331670822942643,0.0341666655180332,
0.027381546134663343,0.029991610509214034,
0.02743142144638404,0.023145164735962537,
0.027481296758104738,-0.01970473265189613,
0.027531172069825437,0.012033525729807612,
0.027581047381546136,0.0016921091459931314,
0.02763092269326683,0.005067881168194925,
0.02768079800498753,-0.005282579059130654,
0.02773067331670823,0.007119069550118264,
0.02778054862842893,0.025750007795813032,
0.027830423940149625,0.02937082157382345,
0.027880299251870324,0.020863987889964436,
0.027930174563591023,0.036062946231137274,
0.027980049875311722,0.0386803515488337,
0.028029925187032418,0.022213890726033143,
0.028079800498753117,-0.02167734898260837,
0.028129675810473816,0.02114851958019241,
0.028179551122194512,0.017297565355143686,
0.02822942643391521,0.00928475503061317,
0.02827930174563591,0.003349197847960061,
0.02832917705735661,-0.007211695812382706,
0.028379052369077305,0.0009933593617190602,
0.028428927680798004,-0.0009491881988489383,
0.028478802992518704,-0.005425722339463413,
0.028528678304239403,0.01756644093192717,
0.0285785536159601,0.004901390843673462,
0.028628428927680798,0.018609475838448204,
0.028678304239401497,0.022362838203541135,
0.028728179551122196,0.01703703614062943,
0.02877805486284289,0.02349782811697368,
0.02882793017456359,0.019855691600146656,
0.02887780548628429,0.019549668931591175,
0.02892768079800499,0.025394005862671896,
0.028977556109725685,-0.009689039971165004,
0.029027431421446384,0.016351206621262875,
0.029077306733167083,-0.019909832104303405,
0.02912718204488778,0.0030554870489969714,
0.029177057356608478,0.003713019358019337,
0.029226932668329177,-0.011245431531645254,
0.029276807980049877,0.011684293733979653,
0.029326683291770572,0.015569932969466209,
0.02937655860349127,0.03016783323325263,
0.02942643391521197,0.00497614492785228,
0.02947630922693267,-0.03574595387247166,
0.029526184538653365,0.005475777632614124,
0.029576059850374065,-0.04098543025860005,
0.029625935162094764,0.004349561738281835,
0.029675810473815463,-0.002202366926373247,
0.02972568578553616,-0.015390418968490997,
0.029775561097256858,-0.009415291506851827,
0.029825436408977557,0.010672079436819797,
0.029875311720698253,0.023594673322070152,
0.029925187032418952,0.0013221426714486928,
0.02997506234413965,-0.031007461951307234,
0.03002493765586035,0.006150698274124743,
0.030074812967581046,-0.010893597093084451,
0.030124688279301745,0.006596499902359429,
0.030174563591022444,-0.013246032962049504,
0.030224438902743143,0.0016394127271122608,
0.03027431421446384,0.000997220555940659,
0.03032418952618454,-0.014378303812394253,
0.030374064837905237,-0.015117835042562372,
0.030423940149625937,-0.005460157370017673,
0.030473815461346632,0.0012362769913407488,
0.03052369077306733,0.009469666814312086,
0.03057356608478803,-0.056560749008347955,
0.03062344139650873,-0.02121581016101311,
0.030673316708229426,-0.0055887312835883555,
0.030723192019950125,-0.005057462508833249,
0.030773067331670824,-0.012045957493982042,
0.03082294264339152,-0.031304909340575865,
0.03087281795511222,0.002746963339208701,
0.030922693266832918,-0.005475145665265272,
0.030972568578553617,-0.0018603368026015475,
0.031022443890274313,-0.024784655325149223,
0.031072319201995012,-0.0030276301649400364,
0.03112219451371571,0.013127788786490471,
0.03117206982543641,-0.0194296608221144,
0.031221945137157106,-0.05455528846581166,
0.03127182044887781,-0.001523193383258136,
0.031321695760598504,-0.035817666106765435,
0.0313715710723192,-0.00927322908745416,
0.0314214463840399,-0.05102497636335289,
0.0314713216957606,-0.0007421083416559535,
0.031521197007481294,-0.025659719792772383,
0.031571072319202,-0.012639332204078264,
0.03162094763092269,-0.005784727574714071,
0.03167082294264339,0.021557997679356705,
0.03172069825436409,-0.007551751379676853,
0.03177057356608479,-0.03288938279270517,
0.03182044887780549,-0.02040931422560712,
0.031870324189526185,-0.018228870587299356,
0.03192019950124688,-0.012298054000465956,
0.03197007481296758,-0.02055975422485931,
0.03201995012468828,-0.03283167078527449,
0.032069825436408975,-0.021589898444276043,
0.03211970074812968,-0.020732148372008555,
0.03216957605985037,-0.019199190984227347,
0.032219451371571076,0.008003345687942035,
0.03226932668329177,-0.009062750450077426,
0.03231920199501247,-0.02046379394857739,
0.03236907730673317,-0.0047365140265144025,
0.032418952618453865,-0.022594567053917033,
0.03246882793017456,0.002627293392150145,
0.032518703241895264,-0.026271502294578655,
0.03256857855361596,0.0009258703539223451,
0.032618453865336655,-0.021430843370653013,
0.03266832917705736,-0.013762682195201688,
0.032718204488778053,-0.005116016496837452,
0.032768079800498756,-0.003995064640811388,
0.03281795511221945,-0.02961518411317577,
0.03286783042394015,0.0033433924673549366,
0.03291770573566085,-0.008449385183590011,
0.032967581047381546,0.013833282931761223,
0.03301745635910224,-0.013337808523618069,
0.033067331670822944,0.0009253909144092479,
0.03311720698254364,0.010542796163167483,
0.03316708229426434,-0.02774421374436481,
0.03321695760598504,-0.011800913547869166,
0.033266832917705734,-0.007893447781478933,
0.03331670822942644,0.00654663603683775,
0.03336658354114713,-0.008494015856412284,
0.03341645885286783,-0.013928037301112601,
0.03346633416458853,-0.0018959984709883953,
0.033516209476309226,0.008327414650900637,
0.03356608478802992,-0.02346654067356617,
0.033615960099750625,0.006852410074736231,
0.03366583541147132,0.012575278236291818,
0.03371571072319202,-0.0030611899435944966,
0.03376558603491272,-0.022913816335230704,
0.033815461346633414,-0.014937616660122978,
0.03386533665835412,-0.019536033311581356,
0.03391521197007481,-0.015034744303550307,
0.03396508728179551,-0.011989489894227785,
0.03401496259351621,-0.0221970798562023,
0.03406483790523691,-0.02593193301331531,
0.0341147132169576,-0.027395528428636653,
0.034164588528678305,-0.022037916186020853,
0.034214463840399,0.004331143649169901,
0.034264339152119704,-0.01413834566629833,
0.0343142144638404,-0.045375020240563405,
0.034364089775561095,-0.01274979848405473,
0.0344139650872818,0.015182951544258094,
0.03446384039900249,-0.04171451724203512,
0.03451371571072319,-0.02348292416332164,
0.03456359102244389,0.004443193422626127,
0.03461346633416459,-0.044139010472348306,
0.03466334164588529,0.0047474640314572256,
0.034713216957605986,-0.01015001388173823,
0.03476309226932668,-0.007639604021706634,
0.034812967581047384,-0.036578328032538174,
0.03486284289276808,0.002258396176438287,
0.034912718204488775,-0.024463863392894906,
0.03496259351620948,-0.009163482456930244,
0.035012468827930174,-0.005018450459917724,
0.03506234413965087,-0.01188770017049148,
0.03511221945137157,-0.007733586192942926,
0.03516209476309227,-0.03501660970950324,
0.03521197007481297,-0.047348546879471196,
0.035261845386533666,-0.032290074060835845,
0.03531172069825436,-0.023988180230552734,
0.035361596009975065,-0.013718350075044709,
0.03541147132169576,-0.01783605525518024,
0.035461346633416456,-0.009458484576428589,
0.03551122194513716,-0.03904156812201777,
0.035561097256857854,-0.005398525373197009,
0.03561097256857856,-0.02554504012861746,
0.03566084788029925,-0.015768328190872927,
0.03571072319201995,-0.01519445328396089,
0.03576059850374065,0.02440944081991695,
0.03581047381546135,0.003732701886993057,
0.03586034912718204,-0.0019231072231211226,
0.035910224438902745,0.01145306434858029,
0.03596009975062344,-0.002149538314901068,
0.036009975062344136,-0.00969535705591594,
0.03605985037406484,-0.018650268912842917,
0.036109725685785535,0.0041417168075474995,
0.03615960099750624,-0.037851180744736784,
0.03620947630922693,-0.03500558001926167,
0.03625935162094763,-0.016433953426738458,
0.03630922693266833,-0.01151714380943543,
0.03635910224438903,-0.01852635801510443,
0.03640897755610972,0.004286189782223705,
0.036458852867830426,-0.03635157441329933,
0.03650872817955112,-0.028750003010652746,
0.036558603491271824,0.01185419073624767,
0.03660847880299252,0.0007135099848300415,
0.036658354114713215,-0.005214706245174549,
0.03670822942643392,0.012727198537509117,
0.036758104738154614,-0.003412685567895271,
0.03680798004987531,-0.02812701753840017,
0.03685785536159601,-0.014387167593944518,
0.03690773067331671,0.005685659189210513,
0.0369576059850374,-0.03001535940506408,
0.037007481296758106,-0.0024617729827843653,
0.0370573566084788,0.0059744479860929355,
0.037107231920199504,0.0051059625875041585,
0.0371571072319202,-0.03758158875960986,
0.037206982543640896,0.00534592121953081,
0.0372568578553616,-0.01841840890087574,
0.037306733167082294,-0.01863609292350015,
0.03735660847880299,-0.009485643626366263,
0.03740648379052369,-0.01851470461129022,
0.03745635910224439,0.018685224700080903,
0.037506234413965084,-0.011169237576532381,
0.037556109725685786,-0.016957467167960386,
0.03760598503740648,-0.004615792090805073,
0.037655860349127185,-0.009752268011362452,
0.03770573566084788,-0.019336153679769555,
0.037755610972568576,-0.023495596371569533,
0.03780548628428928,0.013796298156847265,
0.037855361596009975,0.012643029354682785,
0.03790523690773067,-0.0007798457588052547,
0.03795511221945137,-0.014847223163950549,
0.03800498753117207,-0.034452517507156964,
0.03805486284289277,0.00144177089696972,
0.03810473815461347,0.007162116245741813,
0.03815461346633416,-0.0016091811585250792,
0.038204488778054865,-0.010648873411967484,
0.03825436408977556,0.00047966020211183315,
0.03830423940149626,0.020130186753725944,
0.03835411471321696,0.011428481614573214,
0.038403990024937655,-0.019551152540604737,
0.03845386533665835,-0.014465182198698266,
0.03850374064837905,-0.013117220309546908,
0.03855361596009975,0.017517101861074597,
0.03860349127182045,-0.0158584418475986,
0.03865336658354115,-0.0014514217857528222,
0.03870324189526184,0.01251903883457577,
0.038753117206982546,-0.016962441454016174,
0.03880299251870324,-0.002440604818170853,
0.03885286783042394,-0.028625487920890917,
0.03890274314214464,-0.0033818262785428287,
0.038952618453865336,0.016138513889639203,
0.03900249376558604,0.0034639205698785156,
0.039052369077306734,0.008980210170855195,
0.03910224438902743,0.0011428674269279874,
0.03915211970074813,-0.013389671278210825,
0.03920199501246883,-0.006530138416339782,
0.039251870324189524,0.005843601494345461,
0.039301745635910226,0.03175554296231091,
0.03935162094763092,0.01893608149791151,
0.03940149625935162,0.004669017411288447,
0.03945137157107232,0.013117379802441397,
0.039501246882793016,0.012492854028977495,
0.03955112219451372,0.021404834864123354,
0.039600997506234414,-0.012216291020418664,
0.03965087281795511,-0.038970324602638946,
0.03970074812967581,-0.015546000446138346,
0.03975062344139651,-0.01797134032766347,
0.039800498753117204,0.004196816439944689,
0.03985037406483791,-0.009367296293187647,
0.0399002493765586,0.003592169725456512,
0.039950124688279305,0.006307377883744561,
0.04,0.03347849467566037,
0.0400498753117207,0.013600306622988364,
0.0400997506234414,0.004253402466399693,
0.040149625935162095,0.005611297116750165,
0.04019950124688279,0.005457187918212866,
0.04024937655860349,-0.004721920910213038,
0.04029925187032419,-0.0009300470887873783,
0.040349127182044885,0.023162930157289048,
0.04039900249376559,0.023256536253199754,
0.04044887780548628,0.009138538088806953,
0.040498753117206986,0.043768540076294306,
0.04054862842892768,0.025614387460725307,
0.04059850374064838,0.019512083277255877,
0.04064837905236908,0.02281147445113204,
0.040698254364089775,0.003169404073706021,
0.04074812967581047,0.0312765029333682,
0.040798004987531174,0.0292431901268818,
0.04084788029925187,0.003454741222022663,
0.040897755610972565,-0.00031649431492610826,
0.04094763092269327,0.021721343315737194,
0.04099750623441396,0.024999938831382254,
0.041047381546134666,0.004971974677840146,
0.04109725685785536,-0.001195205574580055,
0.04114713216957606,0.029543575319489385,
0.04119700748129676,0.013727091203198889,
0.041246882793017456,0.020414140285551954,
0.04129675810473815,0.014315927481993757,
0.041346633416458854,0.023714496816036285,
0.04139650872817955,-0.00039869771809519783,
0.04144638403990025,0.034681320365420265,
0.04149625935162095,0.0029778593257682503,
0.041546134663341644,0.04418444022569616,
0.04159600997506235,0.007925905765999726,
0.04164588528678304,0.002988128917178501,
0.04169576059850374,0.031112453461398987,
0.04174563591022444,0.02950760224133101,
0.041795511221945136,0.007340862228388404,
0.04184538653366583,0.014916271307362998,
0.041895261845386535,0.060547380844883536,
0.04194513715710723,0.014924158774024974,
0.04199501246882793,0.01593663563985811,
0.04204488778054863,0.004502950650846748,
0.042094763092269324,0.045858254552902655,
0.04214463840399003,0.012451234636271388,
0.04219451371571072,0.01907943423726423,
0.04224438902743142,0.02739092632954966,
0.04229426433915212,0.01688010843212413,
0.04234413965087282,0.037290162361723445,
0.04239401496259352,0.02611178560552225,
0.042443890274314215,0.021297801947513812,
0.04249376558603491,-0.006059219300182446,
0.042543640897755614,-0.0032767807919482396,
0.04259351620947631,0.05468830744609557,
0.042643391521197005,-0.009058000146957054,
0.04269326683291771,0.010893444464482961,
0.0427431421446384,0.015766031876684742,
0.0427930174563591,0.012321360363135707,
0.0428428927680798,0.014275988006789172,
0.0428927680798005,0.0075204456315788315,
0.0429426433915212,0.018197828724431427,
0.042992518703241896,0.025033830871217883,
0.04304239401496259,0.01552605932699691,
0.043092269326683294,0.009973528466698063,
0.04314214463840399,0.018998235288459005,
0.043192019950124685,0.009880673431248398,
0.04324189526184539,0.04430091701892251,
0.043291770573566084,0.019088760904528154,
0.043341645885286786,0.030989341981478822,
0.04339152119700748,0.015280315529990617,
0.04344139650872818,0.050311004699251496,
0.04349127182044888,-0.009757747096038459,
0.043541147132169576,0.0555409253478092,
0.04359102244389027,0.021009593813243133,
0.043640897755610975,0.02394374480514809,
0.04369077306733167,0.02421733162238721,
0.043740648379052366,0.026213846107086457,
0.04379052369077307,0.035664358615443675,
0.043840399002493764,-0.0007632066820594183,
0.04389027431421447,-0.008542922760129745,
0.04394014962593516,0.022759786663572826,
0.04399002493765586,0.029058316011055168,
0.04403990024937656,0.03960099805930608,
0.04408977556109726,0.020494446005271033,
0.04413965087281795,0.05333235630409819,
0.044189526184538655,0.02470660599712844,
0.04423940149625935,0.004606697222905822,
0.04428927680798005,0.04539694763756011,
0.04433915211970075,0.0291413724379697,
0.044389027431421445,0.021049759836234243,
0.04443890274314215,-0.01499566801797253,
0.04448877805486284,0.034453671891249565,
0.04453865336658354,0.03256532140994556,
0.04458852867830424,0.01669738097283764,
0.04463840399002494,0.005146006617336375,
0.04468827930174563,0.02643466707646233,
0.044738154613466335,0.01902692902507761,
0.04478802992518703,0.01504802997526193,
0.044837905236907734,0.020559126163131974,
0.04488778054862843,0.00723805644261467,
0.044937655860349125,0.004169295934619465,
0.04498753117206983,0.0007535988334520342,
0.045037406483790524,0.020222923322116095,
0.04508728179551122,0.015343490297206545,
0.04513715710723192,0.011300417529100736,
0.04518703241895262,0.03833455230763282,
0.04523690773067331,0.03437774693089399,
0.045286783042394016,0.012044093100965035,
0.04533665835411471,0.03401917656892723,
0.045386533665835414,0.0037182706405386144,
0.04543640897755611,0.008515827781291996,
0.045486284289276806,0.021925154799910317,
0.04553615960099751,0.02368010890291628,
0.045586034912718204,0.032170438114394684,
0.0456359102244389,0.008928653697789156,
0.0456857855361596,0.02307098651601912,
0.0457356608478803,0.03096849306775035,
0.045785536159601,0.018763261134674664,
0.045835411471321696,0.0037498850725381783,
0.04588528678304239,0.020337393247090465,
0.045935162094763095,0.03305079340293658,
0.04598503740648379,0.017692845567228697,
0.046034912718204486,0.02826978863686677,
0.04608478802992519,0.03293635366797227,
0.046134663341645885,0.012478133915643341,
0.04618453865336658,-0.006658287088476024,
0.04623441396508728,0.032714735752281024,
0.04628428927680798,0.005584569762918849,
0.04633416458852868,0.003998841484168372,
0.04638403990024938,0.02597926172294093,
0.04643391521197007,-0.00526658829348383,
0.046483790523690775,0.021892775702391367,
0.04653366583541147,0.03546536249996253,
0.04658354114713217,0.033656750058854046,
0.04663341645885287,0.007182252937133536,
0.046683291770573565,-0.024006514817765043,
0.04673316708229427,0.03350817719087105,
0.04678304239401496,0.04344149086958002,
0.04683291770573566,0.012046618837700494,
0.04688279301745636,0.022378863301669556,
0.04693266832917706,0.01652181035534907,
0.04698254364089775,0.02176948956548947,
0.047032418952618456,0.007225165856687376,
0.04708229426433915,0.015687310668095075,
0.04713216957605985,0.01650302074685414,
0.04718204488778055,0.028143085519920577,
0.047231920199501246,0.03753533768145062,
0.04728179551122195,0.007319578148021388,
0.047331670822942644,0.00984139424072533,
0.04738154613466334,0.014979979264398143,
0.04743142144638404,0.03408162673726528,
0.04748129675810474,0.019812301133556972,
0.047531172069825434,-0.024096740295153185,
0.047581047381546136,0.009452773248207326,
0.04763092269326683,0.009837975987600639,
0.047680798004987535,0.016684590423577363,
0.04773067331670823,-0.02439198081877822,
0.047780548628428926,0.01389507172266475,
0.04783042394014963,0.015465225992331352,
0.047880299251870324,0.01811003483481591,
0.04793017456359102,0.018024912220418216,
0.04798004987531172,0.006749709927536302,
0.04802992518703242,0.017054188490346196,
0.048079800498753114,-0.004876609092206113,
0.04812967581047382,0.02918803827802053,
0.04817955112219451,0.016406112230185357,
0.048229426433915215,0.02811146972665316,
0.04827930174563591,-0.017047068903542163,
0.048329177057356607,0.005625653553199925,
0.04837905236907731,-0.0035584207335705104,
0.048428927680798005,0.012178461393828784,
0.0484788029925187,0.01878104075190197,
0.0485286783042394,0.009208141882663121,
0.0485785536159601,-0.00864014165593586,
0.048628428927680795,-0.008587965658565106,
0.0486783042394015,0.03193968760887171,
0.04872817955112219,0.011015668555146175,
0.048778054862842896,0.012592267927790998,
0.04882793017456359,0.022534888688128543,
0.04887780548628429,0.005962927364897434,
0.04892768079800499,0.00526380590172286,
0.048977556109725685,0.015718649114628894,
0.04902743142144638,0.017573740996921557,
0.049077306733167084,0.009173952360099203,
0.04912718204488778,0.005371732438105671,
0.04917705735660848,-0.00880216367760026,
0.04922693266832918,0.01798072440081926,
0.04927680798004987,0.01369286258498625,
0.049326683291770576,-0.017650244398134778,
0.04937655860349127,-0.005030067497954137,
0.04942643391521197,0.023281976159595284,
0.04947630922693267,-0.005562200764635367,
0.049526184538653366,0.0042281247012306965,
0.04957605985037406,-0.0010656795827456212,
0.049625935162094764,0.017237540385459275,
0.04967581047381546,-0.011163520808801147,
0.04972568578553616,0.019057641454088236,
0.04977556109725686,-0.012496574205974036,
0.049825436408977554,0.01549018188626387,
0.04987531172069826,-0.00015336937136696473,
0.04992518703241895,-0.014771469965840252,
0.04997506234413965,0.0033890379452674074,
0.05002493765586035,-0.0098805235421891,
0.050074812967581046,-0.00545239562669921,
0.05012468827930175,-0.018498580788729072,
0.050174563591022445,0.001010187146062515,
0.05022443890274314,-0.01149438483169439,
0.05027431421446384,0.017516026156916196,
0.05032418952618454,0.020520028538420033,
0.050374064837905234,0.01850284942891316,
0.05042394014962594,-0.039133504863021286,
0.05047381546134663,0.012155410761124993,
0.05052369077306733,0.009931803300829134,
0.05057356608478803,-0.013945375143181235,
0.05062344139650873,-0.008972796062273046,
0.05067331670822943,-0.003706057921558457,
0.050723192019950125,-0.012976754490842473,
0.05077306733167082,-0.02848770902444716,
0.050822942643391524,-0.013001988824773615,
0.05087281795511222,-0.0413428228508813,
0.050922693266832915,-0.0031691230825114276,
0.05097256857855362,-0.010674436317901324,
0.05102244389027431,-0.002163011106444712,
0.051072319201995016,0.02021797018816101,
0.05112219451371571,-0.005914477491039354,
0.05117206982543641,-0.025891073714149317,
0.05122194513715711,-0.029406461156487727,
0.051271820448877806,0.012727846565893439,
0.0513216957605985,0.012567490768521481,
0.051371571072319204,-0.03491573986281468,
0.0514214463840399,-0.034204339184746635,
0.051471321695760595,-0.03498116802266175,
0.0515211970074813,-0.011636950844189272,
0.051571072319201994,-0.016498371699276527,
0.051620947630922696,-0.005627518054574192,
0.05167082294264339,0.00759170052357587,
0.05172069825436409,-0.018705166096518826,
0.05177057356608479,0.010185148898958534,
0.051820448877805486,-0.009738183244286032,
0.05187032418952618,-0.012736143457462016,
0.051920199501246884,-0.005824332967740552,
0.05197007481296758,-0.011998954370602286,
0.052019950124688276,0.0006933668152988379,
0.05206982543640898,-0.025120722551042095,
0.052119700748129674,-0.015984198553484933,
0.05216957605985038,-0.009888752834669069,
0.05221945137157107,-0.000975125592962053,
0.05226932668329177,0.007953404087870547,
0.05231920199501247,0.0010855072469494898,
0.05236907730673317,-0.0073394390984034856,
0.05241895261845386,-0.024589124015082408,
0.052468827930174565,-0.026189815604913343,
0.05251870324189526,-0.00802225252519427,
0.05256857855361596,-0.0484016577713277,
0.05261845386533666,-0.0232203216088552,
0.052668329177057355,-0.028850799473991832,
0.05271820448877806,-0.014447688834163782,
0.05276807980049875,0.01863361499858846,
0.05281795511221945,-0.02834280313472546,
0.05286783042394015,-0.00041682620058257173,
0.05291770573566085,-0.014436594634658675,
0.05296758104738154,-0.0186310538302085,
0.053017456359102245,-0.03038284714967026,
0.05306733167082294,0.0009775263383756602,
0.053117206982543644,-0.03869897627152047,
0.05316708229426434,-0.016937821268403267,
0.053216957605985035,0.007904211418527974,
0.05326683291770574,-0.017883733236791446,
0.053316708229426434,0.01746517333066957,
0.05336658354114713,-0.0009753780890556368,
0.05341645885286783,-0.006651268495061187,
0.05346633416458853,-0.015686102548076286,
0.05351620947630923,-0.01414369381367995,
0.053566084788029926,-0.04089708149103684,
0.05361596009975062,-0.009850695224020134,
0.053665835411471324,-0.025597474810991748,
0.05371571072319202,-0.0011275613314468969,
0.053765586034912716,-0.01392648076861644,
0.05381546134663342,-0.004908494594784065,
0.053865336658354114,-0.009940243987908248,
0.05391521197007481,-0.022749060535031958,
0.05396508728179551,-0.019295703718368543,
0.05401496259351621,-0.003550206083456183,
0.05406483790523691,-0.0032665659785961077,
0.054114713216957606,-0.01685779782173935,
0.0541645885286783,0.0034565965847924637,
0.054214463840399005,-0.003320107166726335,
0.0542643391521197,-0.03049549532320115,
0.054314214463840396,-0.042923628633052574,
0.0543640897755611,-0.0038805404463875086,
0.054413965087281795,-0.012520080228236655,
0.0544638403990025,-0.018760421795209786,
0.05451371571072319,-0.03292720871864021,
0.05456359102244389,0.008075468197959228,
0.05461346633416459,-0.042081192704502064,
0.05466334164588529,-0.011123498197468886,
0.05471321695760598,-0.02390306506780812,
0.054763092269326685,-0.021110481849288876,
0.05481296758104738,-0.04992942629809336,
0.05486284289276808,-0.031554262000320035,
0.05491271820448878,0.0015336513975832394,
0.054962593516209475,-0.012793488406227928,
0.05501246882793018,-0.0333904097581829,
0.05506234413965087,-0.012962610063449152,
0.05511221945137157,-0.01444587487665617,
0.05516209476309227,-0.014224204666067193,
0.05521197007481297,-0.018647762031975084,
0.05526184538653366,-0.007412041331177733,
0.055311720698254366,-0.01162348831371665,
0.05536159600997506,-0.021601716682102364,
0.05541147132169576,-0.01756796057915342,
0.05546134663341646,-0.01629674454119843,
0.055511221945137156,-0.027840844447860565,
0.05556109725685786,-0.0245450036717709,
0.055610972568578554,-0.011311584267342772,
0.05566084788029925,-0.021675127547088256,
0.05571072319201995,-0.006071123595105191,
0.05576059850374065,0.006113842765195681,
0.055810473815461344,0.005618057432752139,
0.055860349127182046,-0.02132961417261891,
0.05591022443890274,-0.02602257299126586,
0.055960099750623445,-0.02063389059278277,
0.05600997506234414,-0.006735316668707765,
0.056059850374064836,0.009531211026368306,
0.05610972568578554,-0.0013816423174420021,
0.056159600997506234,-0.01790619866527486,
0.05620947630922693,0.002196984290360837,
0.05625935162094763,-0.0031741110015350623,
0.05630922693266833,0.014420360921017998,
0.056359102244389024,-0.01808870621773803,
0.05640897755610973,-0.021081722067299892,
0.05645885286783042,-0.017130563923898938,
0.056508728179551125,0.007971231695096462,
0.05655860349127182,-0.010888837032973128,
0.056608478802992516,-0.02519043622047859,
0.05665835411471322,-0.035576326435838204,
0.056708229426433915,0.002065093547961956,
0.05675810473815461,-0.00908161166011167,
0.05680798004987531,-0.0006731124802444996,
0.05685785536159601,0.0028717357123429106,
0.05690773067331671,-0.006306731420484739,
0.05695760598503741,-0.02902459423791987,
0.0570074812967581,-0.023494121949479346,
0.057057356608478806,0.008771210490447389,
0.0571072319201995,-0.0022459504100668425,
0.0571571072319202,-0.018965433704997068,
0.0572069825436409,-0.025712330907283098,
0.057256857855361595,0.009408609116856089,
0.05730673316708229,0.004790731530015628,
0.057356608478802994,-0.01730450400093857,
0.05740648379052369,0.015164148836801013,
0.05745635910224439,-0.009243139146432877,
0.05750623441396509,-0.0047087368981342855,
0.05755610972568578,-0.006898323572326052,
0.057605985037406486,-0.021365134282242165,
0.05765586034912718,-0.02274055218068792,
0.05770573566084788,0.0006919043586034127,
0.05775561097256858,-0.014716139481026215,
0.057805486284289276,0.010569963029985426,
0.05785536159600998,-0.014681749027782597,
0.057905236907730674,-0.01704068196881907,
0.05795511221945137,0.017229753645838796,
0.05800498753117207,-0.014136332958207865,
0.05805486284289277,-0.015085051358682345,
0.058104738154613464,-0.005879564308482289,
0.05815461346633417,0.014478403402944956,
0.05820448877805486,0.016518274630879744,
0.05825436408977556,0.009600788085652661,
0.05830423940149626,0.006945466288463129,
0.058354114713216956,-0.0019568339894239983,
0.05840399002493766,0.029908932541535954,
0.058453865336658355,-0.01858356090859555,
0.05850374064837905,0.0037415968946851006,
0.05855361596009975,-0.021940734855553787,
0.05860349127182045,0.0251393484119487,
0.058653366583541144,0.01717825209735592,
0.05870324189526185,0.00035181034508792886,
0.05875311720698254,-0.000522664855752474,
0.05880299251870324,0.022770872243955964,
0.05885286783042394,0.04834916825219961,
0.05890274314214464,-0.010029521428823848,
0.05895261845386534,0.01714766769741513,
0.059002493765586035,0.0016828859918361738,
0.05905236907730673,-0.003048294720722897,
0.059102244389027433,0.025938633082468923,
0.05915211970074813,0.0006327658939833227,
0.059201995012468825,0.008066953672792579,
0.05925187032418953,-0.0074602039757237105,
0.05930174563591022,0.03986334704678566,
0.059351620947630926,0.023978891132014887,
0.05940149625935162,0.007938768891091038,
0.05945137157107232,-0.009029177127399687,
0.05950124688279302,0.004993834345476003,
0.059551122194513716,0.0017810454540850501,
0.05960099750623441,0.014542261253038506,
0.059650872817955114,0.019812145084756393,
0.05970074812967581,0.015766730026360098,
0.059750623441396505,0.009631286615092736,
0.05980049875311721,-0.0035018624745936245,
0.059850374064837904,0.010384011793826161,
0.059900249376558606,-0.004447696483894583,
0.0599501246882793,-0.003985836815038944,
0.06,0.0471311947802737,
0.0600498753117207,-0.006900515767577626,
0.060099750623441396,-0.0028616897849353187,
0.06014962593516209,-0.023907357903600393,
0.060199501246882794,0.031123844318357574,
0.06024937655860349,0.020879039783592665,
0.06029925187032419,0.011560955366639177,
0.06034912718204489,0.018112255450367896,
0.060399002493765584,0.009523604764826343,
0.06044887780548629,0.008694626783151582,
0.06049875311720698,0.004187412708961957,
0.06054862842892768,0.01671918549157317,
0.06059850374064838,0.007926627049268973,
0.06064837905236908,0.006487769528884132,
0.06069825436408977,0.0470208018167788,
0.060748129675810475,0.00046133822689298914,
0.06079800498753117,0.010884850870410735,
0.06084788029925187,0.021479930423244732,
0.06089775561097257,0.035194938235690074,
0.060947630922693265,0.045821241530506186,
0.06099750623441397,0.005751047856085621,
0.06104738154613466,0.0031950776871839393,
0.06109725685785536,-0.010384174955525165,
0.06114713216957606,0.030257447504044,
0.06119700748129676,0.01539063862872645,
0.06124688279301746,0.021629230283125044,
0.061296758104738155,0.013649521157246956,
0.06134663341645885,0.01312170248147584,
0.061396508728179554,0.06062448593054422,
0.06144638403990025,0.008394547370433412,
0.061496259351620945,0.02768472617481442,
0.06154613466334165,0.007664753679779125,
0.061596009975062344,0.0345163215490274,
0.06164588528678304,0.017470504627330005,
0.06169576059850374,0.03352203819694257,
0.06174563591022444,0.062054968918697634,
0.06179551122194514,0.007681941177085172,
0.061845386533665836,0.030163778557510568,
0.06189526184538653,0.021747105462654903,
0.061945137157107234,0.014503385006053913,
0.06199501246882793,0.0005624536809302298,
0.062044887780548626,0.06042564304011017,
0.06209476309226933,0.008878244153539949,
0.062144638403990024,0.04003362231617237,
0.06219451371571072,0.025514632213357934,
0.06224438902743142,0.03944314527550513,
0.06229426433915212,0.01494192032589797,
0.06234413965087282,0.020517334720227345,
0.062394014962593516,0.019927194769828134,
0.06244389027431421,0.012939990492882653,
0.062493765586034915,0.04854332851698701,
0.06254364089775562,0.027356614508123184,
0.06259351620947631,0.03188015963495169,
0.06264339152119701,0.014655934574531543,
0.0626932668329177,0.00021461165329416526,
0.0627431421446384,0.031104006640824647,
0.0627930174563591,-0.017196476366428785,
0.0628428927680798,0.01013431022104864,
0.0628927680798005,0.020789326017453955,
0.0629426433915212,0.023341640782526506,
0.06299251870324189,0.04491715270482777,
0.06304239401496259,0.01632639990452387,
0.0630922693266833,0.02371998306078402,
0.063142144638404,0.0184481525087114,
0.06319201995012469,0.03094879102095542,
0.06324189526184539,0.009441159673074719,
0.06329177057356608,0.03533917833897307,
0.06334164588528678,0.035431192395722025,
0.06339152119700749,-5.829796156706091e-05,
0.06344139650872818,0.008505371177108246,
0.06349127182044888,0.03253573135147222,
0.06354114713216957,0.04737025419406318,
0.06359102244389027,0.05505233284768296,
0.06364089775561098,0.023904398213307244,
0.06369077306733167,0.03285901875006729,
0.06374064837905237,-0.011209161563454174,
0.06379052369077307,0.0318542855079973,
0.06384039900249376,0.014164938315359567,
0.06389027431421446,0.01489931967579674,
0.06394014962593517,-0.01122153644933361,
0.06399002493765586,-0.014063774390763346,
0.06403990024937656,0.027234419881519017,
0.06408977556109725,0.03285322175519164,
0.06413965087281795,0.03684327692933631,
0.06418952618453866,0.017840023240301057,
0.06423940149625935,0.022155980889754574,
0.06428927680798005,0.020184055200146517,
0.06433915211970075,0.01044082030723215,
0.06438902743142144,0.018537723588676974,
0.06443890274314215,0.031501811839892965,
0.06448877805486285,0.03185804589942906,
0.06453865336658354,0.014906809356777883,
0.06458852867830424,0.023918565685501124,
0.06463840399002493,0.01582973512344617,
0.06468827930174563,0.016716160918807753,
0.06473815461346634,0.025465952690868404,
0.06478802992518704,0.02846747994318813,
0.06483790523690773,-0.0062631531313897155,
0.06488778054862843,0.006047530049700208,
0.06493765586034912,0.0400880226393624,
0.06498753117206983,0.04028227920348087,
0.06503740648379053,0.028652005776435334,
0.06508728179551122,0.04190989066067746,
0.06513715710723192,0.02124515140362488,
0.06518703241895261,0.047011457468590284,
0.06523690773067331,0.007336582986406569,
0.06528678304239402,0.036562962809668864,
0.06533665835411472,-0.00413280770891478,
0.06538653366583541,0.010894510629658622,
0.06543640897755611,0.017170316794644917,
0.0654862842892768,0.02231643504309191,
0.06553615960099751,0.04209887879167068,
0.06558603491271821,0.03511007696355206,
0.0656359102244389,0.014691970901512422,
0.0656857855361596,0.02323464317927409,
0.0657356608478803,0.012894019833946535,
0.06578553615960099,0.026105024276216877,
0.0658354114713217,0.02732044534813261,
0.0658852867830424,0.0038424603973362913,
0.06593516209476309,0.018038687918896793,
0.06598503740648379,0.02495977676079042,
0.06603491271820448,-0.004951729900258769,
0.06608478802992519,0.018039209462979842,
0.06613466334164589,0.026611804491527384,
0.06618453865336658,0.026962660780340292,
0.06623441396508728,0.040393478995922646,
0.06628428927680798,0.011941002349872262,
0.06633416458852869,0.01584807824690066,
0.06638403990024938,0.05312681484582295,
0.06643391521197008,0.0017049229912149341,
0.06648379052369077,0.01172408620155171,
0.06653366583541147,0.01637228411418758,
0.06658354114713216,0.04338516145027545,
0.06663341645885287,0.05146627152067544,
0.06668329177057357,0.005355565043051257,
0.06673316708229426,0.01318379922468341,
0.06678304239401496,0.02707648998137745,
0.06683291770573566,0.009252404699060515,
0.06688279301745637,0.024797412906333256,
0.06693266832917706,0.003973463811433686,
0.06698254364089776,0.015860574127895134,
0.06703241895261845,0.04100344896144484,
0.06708229426433915,0.043745665567884257,
0.06713216957605984,0.017852205704636998,
0.06718204488778055,-0.003429990854754029,
0.06723192019950125,0.003316031111042051,
0.06728179551122195,0.04568312869389891,
0.06733167082294264,-0.0051610292929449905,
0.06738154613466334,0.04770755730922402,
0.06743142144638405,-0.0026041139143021686,
0.06748129675810474,0.025568405584823775,
0.06753117206982544,0.004025319488851816,
0.06758104738154613,0.03378938619343802,
0.06763092269326683,0.012545465475803924,
0.06768079800498752,0.01602586678669908,
0.06773067331670823,0.010885947923263695,
0.06778054862842893,0.00596604899643445,
0.06783042394014963,-0.00225511508781266,
0.06788029925187032,-0.000779383605593981,
0.06793017456359102,0.03827539075864692,
0.06798004987531173,0.0338836309047239,
0.06802992518703242,0.016844409225283158,
0.06807980049875312,0.012382338189842709,
0.06812967581047381,0.015401216727557017,
0.06817955112219451,0.014873005325049881,
0.0682294264339152,-0.011815499896522277,
0.06827930174563591,0.008394610763424957,
0.06832917705735661,-0.015131467277946203,
0.0683790523690773,0.02023709215001788,
0.068428927680798,0.01197669214604574,
0.0684788029925187,0.035554998123265374,
0.06852867830423941,0.019246689652522537,
0.0685785536159601,0.0011142530658694045,
0.0686284289276808,0.03771704825399201,
0.0686783042394015,0.0056020084467910125,
0.06872817955112219,-0.004934687054561622,
0.0687780548628429,0.027222925757688685,
0.0688279301745636,0.00862395660839765,
0.06887780548628429,0.0010317191522794021,
0.06892768079800499,-0.0022134997953927437,
0.06897755610972568,0.006793290726637201,
0.06902743142144638,0.016580832707813145,
0.06907730673316709,0.012049970586011007,
0.06912718204488778,-0.004468819381662771,
0.06917705735660848,0.0018046905702220977,
0.06922693266832917,0.014589072730449588,
0.06927680798004987,0.009610468087444899,
0.06932668329177058,0.013735102264237015,
0.06937655860349128,0.0006619730688422242,
0.06942643391521197,0.005610638412031306,
0.06947630922693267,-0.0034659377838841634,
0.06952618453865336,0.007274777860872944,
0.06957605985037406,0.0019385993883695492,
0.06962593516209477,-0.007584608164481794,
0.06967581047381546,0.018072828516204512,
0.06972568578553616,0.019849965076487296,
0.06977556109725686,0.012927310952760781,
0.06982543640897755,0.018032153011443217,
0.06987531172069826,0.023635307293695687,
0.06992518703241896,0.011151990417503383,
0.06997506234413965,0.010839545651496639,
0.07002493765586035,0.02268853330477535,
0.07007481296758104,0.020379101218823026,
0.07012468827930174,0.009369498820786196,
0.07017456359102245,-0.008599879634819573,
0.07022443890274314,0.01350512456367593,
0.07027431421446384,-0.00046680865687270855,
0.07032418952618454,-0.01326970236549192,
0.07037406483790523,-0.013922538508249382,
0.07042394014962594,0.026980491815250647,
0.07047381546134664,0.013605468578060543,
0.07052369077306733,-0.0002296753024813845,
0.07057356608478803,-0.0034515553630467084,
0.07062344139650872,0.001769831214624761,
0.07067331670822943,-0.017228148228456804,
0.07072319201995013,-0.03298378305395513,
0.07077306733167082,0.014421559216354619,
0.07082294264339152,-0.017635738284514434,
0.07087281795511222,-0.016999768810755204,
0.07092269326683291,-0.01141724223747973,
0.07097256857855362,-0.023446817315719702,
0.07102244389027432,-0.002459620785028413,
0.07107231920199501,0.03579892503018401,
0.07112219451371571,0.0228876157346678,
0.0711720698254364,-0.01255005718333826,
0.07122194513715711,-0.01733165962128108,
0.07127182044887781,-0.008795221472123464,
0.0713216957605985,-0.007472504034727259,
0.0713715710723192,-0.0172312055906437,
0.0714214463840399,-0.0035600741073509344,
0.07147132169576059,0.012443871240653673,
0.0715211970074813,-0.007084604848001839,
0.071571072319202,-0.016813270298312342,
0.0716209476309227,-0.007818546162761635,
0.07167082294264339,-0.02846038551860466,
0.07172069825436408,-0.03189747528816378,
0.0717705735660848,-0.027543555921875473,
0.07182044887780549,-0.010060333113958536,
0.07187032418952619,-0.01610022787464254,
0.07192019950124688,-0.010415077250880764,
0.07197007481296758,-0.028088449451339755,
0.07201995012468827,-0.019078543397570678,
0.07206982543640898,-0.03366085148148441,
0.07211970074812968,-0.026141566761913367,
0.07216957605985037,-0.025857336119602184,
0.07221945137157107,-0.01401629855546855,
0.07226932668329177,0.00714176808952019,
0.07231920199501247,0.004884797513380255,
0.07236907730673317,0.0019952009211251266,
0.07241895261845387,0.004800915023460101,
0.07246882793017456,0.003444042722915694,
0.07251870324189526,-0.011398219779477687,
0.07256857855361595,-0.004904611988062756,
0.07261845386533666,0.001473506822009231,
0.07266832917705736,0.006726884812552708,
0.07271820448877805,0.0032026718862828672,
0.07276807980049875,-0.03503687443507739,
0.07281795511221945,-0.04006277933807639,
0.07286783042394016,-0.013658296209655965,
0.07291770573566085,-0.019646163200225497,
0.07296758104738155,0.0065493851051207225,
0.07301745635910224,0.0008732501577097679,
0.07306733167082294,-0.0065190190073044245,
0.07311720698254365,-0.021159659793603902,
0.07316708229426434,-0.019481061000375825,
0.07321695760598504,0.00018029311621934468,
0.07326683291770573,-0.04395965997079883,
0.07331670822942643,-0.017480020111493248,
0.07336658354114713,0.0018959033759426668,
0.07341645885286784,-0.0073041105317727655,
0.07346633416458853,0.004714374747604749,
0.07351620947630923,-0.03447114888650202,
0.07356608478802992,0.00018213491690062013,
0.07361596009975062,-0.01353274877221885,
0.07366583541147133,-0.01397126141190638,
0.07371571072319202,-0.011700460807729135,
0.07376558603491272,-0.024380704990613903,
0.07381546134663342,-0.004514973241672946,
0.07386533665835411,-0.015562270917454813,
0.0739152119700748,-0.018145204488027828,
0.07396508728179552,-0.01182238109949232,
0.07401496259351621,-0.010170077756985214,
0.07406483790523691,-0.0471990705627023,
0.0741147132169576,-0.008718374073846022,
0.0741645885286783,-0.02988055404477888,
0.07421446384039901,-0.03187556491456548,
0.0742643391521197,-0.006566581038392721,
0.0743142144638404,-0.022094203595099296,
0.0743640897755611,-0.027971027690638958,
0.07441396508728179,-0.00562319477309123,
0.07446384039900249,0.009898126733839793,
0.0745137157107232,-0.0020582361014332765,
0.07456359102244389,0.014473620163284674,
0.07461346633416459,-0.010820507601165468,
0.07466334164588528,-0.017400780052337615,
0.07471321695760598,-0.005130748113048337,
0.07476309226932669,-0.02734197242134194,
0.07481296758104738,-0.03817655215335818,
0.07486284289276808,0.0026195591880473004,
0.07491271820448878,-0.014460726492403405,
0.07496259351620947,-0.023401215256688902,
0.07501246882793017,-0.015969724027490355,
0.07506234413965088,-0.019035466828958413,
0.07511221945137157,-0.010092182271201112,
0.07516209476309227,-0.01296653193711647,
0.07521197007481296,0.008152926824116034,
0.07526184538653366,-0.007343810335899604,
0.07531172069825437,-0.049364052698269004,
0.07536159600997507,0.021138701078976634,
0.07541147132169576,0.006026474358834707,
0.07546134663341646,-0.023048281275567226,
0.07551122194513715,0.012090868038427727,
0.07556109725685786,-0.027707890162236678,
0.07561097256857856,0.00680009832292053,
0.07566084788029925,-0.011689979861432545,
0.07571072319201995,-0.029646132308300807,
0.07576059850374064,-0.03197042220261387,
0.07581047381546134,-0.049112049665374295,
0.07586034912718205,0.00759229153442593,
0.07591022443890275,-0.004882319990336323,
0.07596009975062344,0.006050547032226751,
0.07600997506234414,-0.017282526879693644,
0.07605985037406483,-0.02891296534611782,
0.07610972568578554,-0.01030405311793882,
0.07615960099750624,-0.02157648707677963,
0.07620947630922693,0.0009226157393978623,
0.07625935162094763,-0.032998930531394424,
0.07630922693266833,0.023811623557520797,
0.07635910224438902,-0.004119540338283027,
0.07640897755610973,-0.030284908059576038,
0.07645885286783043,-0.010150861278013446,
0.07650872817955112,-0.005768565295337689,
0.07655860349127182,-0.021116214315112073,
0.07660847880299251,-0.027931945586598738,
0.07665835411471322,-0.027553764549125018,
0.07670822942643392,-0.006663879785917766,
0.07675810473815461,-0.00872374981605785,
0.07680798004987531,-0.026161891010957068,
0.076857855361596,-0.04450439006209123,
0.0769077306733167,0.000508649557966344,
0.07695760598503741,0.028594436062341595,
0.0770074812967581,-0.012960324189412004,
0.0770573566084788,-0.02302773499879726,
0.0771072319201995,-0.019817653896010153,
0.0771571072319202,0.008151610409464966,
0.0772069825436409,-0.0010160419945239385,
0.0772568578553616,-0.009088917822823447,
0.0773067331670823,3.5171488624119104e-05,
0.07735660847880299,0.012847103551906847,
0.07740648379052369,-0.023269906210587016,
0.0774563591022444,-0.02890688704780056,
0.07750623441396509,-0.028556034914340063,
0.07755610972568579,0.019645669094628046,
0.07760598503740648,-0.02086516145566998,
0.07765586034912718,-0.01818270468283209,
0.07770573566084787,0.00020804092337527126,
0.07775561097256858,0.019787709533336653,
0.07780548628428928,-0.02235197428749337,
0.07785536159600998,0.010098253621419643,
0.07790523690773067,-0.00017872029085184537,
0.07795511221945137,0.015092323890591185,
0.07800498753117208,0.007448601317082188,
0.07805486284289277,0.00640888272915016,
0.07810473815461347,0.009347756111762801,
0.07815461346633416,0.02325698826674998,
0.07820448877805486,0.011426410099966658,
0.07825436408977555,-0.003061555887882871,
0.07830423940149626,0.012781009711313567,
0.07835411471321696,0.002209111960161238,
0.07840399002493766,0.008589292231097407,
0.07845386533665835,-0.003679027707692702,
0.07850374064837905,-0.012941980615126188,
0.07855361596009976,0.016045191078545355,
0.07860349127182045,-0.018168987856069147,
0.07865336658354115,0.020101103599192642,
0.07870324189526184,0.022613612387983588,
0.07875311720698254,0.022966643018688157,
0.07880299251870324,-0.03505347156532024,
0.07885286783042394,-0.008294349885948307,
0.07890274314214464,0.011673861599769481,
0.07895261845386534,0.0015318728811499665,
0.07900249376558603,0.01956667765275713,
0.07905236907730673,0.011912201431959469,
0.07910224438902744,0.016735246666050724,
0.07915211970074813,-0.007010819831936015,
0.07920199501246883,-0.005837799392536227,
0.07925187032418952,0.014029035176460264,
0.07930174563591022,-0.007975825998425097,
0.07935162094763092,0.02311924852645097,
0.07940149625935163,0.029815408823442045,
0.07945137157107232,0.010100441286968543,
0.07950124688279302,0.010496449320722854,
0.07955112219451371,0.004431856107977237,
0.07960099750623441,0.025366163880078566,
0.07965087281795512,-0.003818149048464045,
0.07970074812967581,0.009567870423977113,
0.07975062344139651,0.029448693245339903,
0.0798004987531172,0.012708537082840752,
0.0798503740648379,0.004518309220144211,
0.07990024937655861,-0.004994802264785905,
0.0799501246882793,0.012054572162910162,
0.08,0.010019090939373237,
0.0800498753117207,0.028609979204190575,
0.0800997506234414,-0.009604497268319674,
0.08014962593516209,0.02495670473954513,
0.0801995012468828,0.03059267126391034,
0.0802493765586035,0.0011985914985684545,
0.08029925187032419,-0.0022856144915282713,
0.08034912718204489,0.011377280400719642,
0.08039900249376558,0.02308974807052733,
0.08044887780548629,0.00965613633217879,
0.08049875311720699,0.012214506666980965,
0.08054862842892768,0.004112991964995403,
0.08059850374064838,0.02980780962686376,
0.08064837905236907,0.013658074962263948,
0.08069825436408977,0.038053732868389936,
0.08074812967581048,0.01863497362667901,
0.08079800498753117,0.02245682403122148,
0.08084788029925187,-0.001290367021245832,
0.08089775561097257,0.02367031470981628,
0.08094763092269326,0.030397884728440995,
0.08099750623441397,0.007036802947912601,
0.08104738154613467,0.03412781640619689,
0.08109725685785536,0.03285981591240363,
0.08114713216957606,0.019770760122222147,
0.08119700748129675,0.021804174055505984,
0.08124688279301745,0.01469649645988918,
0.08129675810473816,0.02896385927916513,
0.08134663341645886,0.03456760861561744,
0.08139650872817955,0.01752886867027884,
0.08144638403990025,0.04695845266284113,
0.08149625935162094,0.007914844382915242,
0.08154613466334165,0.03716475344964114,
0.08159600997506235,0.01974319594957823,
0.08164588528678304,0.01385264943811162,
0.08169576059850374,0.010535228253754279,
0.08174563591022443,0.017135637613053614,
0.08179551122194513,-0.00020976623575334405,
0.08184538653366584,0.048445014217578145,
0.08189526184538654,0.04739416900419707,
0.08194513715710723,0.0066584120197418755,
0.08199501246882793,0.003433757930779449,
0.08204488778054862,0.008350294375796131,
0.08209476309226933,0.01107934350328853,
0.08214463840399003,0.008454049652428092,
0.08219451371571072,0.015543193227352169,
0.08224438902743142,0.048241253056427694,
0.08229426433915212,0.039617728793063516,
0.08234413965087282,0.006262218155805566,
0.08239401496259352,0.03776108691763011,
0.08244389027431422,0.03654034118024888,
0.08249376558603491,-0.000294181333474957,
0.08254364089775561,0.019356066507423934,
0.0825935162094763,0.03814413029148575,
0.08264339152119701,0.03055334745075768,
0.08269326683291771,0.02801033139650354,
0.0827431421446384,0.027579005979117544,
0.0827930174563591,0.02214572127882313,
0.0828428927680798,-0.021161812419746167,
0.0828927680798005,0.013415763824055819,
0.0829426433915212,0.03962893391702314,
0.0829925187032419,0.023184272836573257,
0.08304239401496259,0.05436073215133119,
0.08309226932668329,0.04725309398268272,
0.08314214463840398,0.02935265761929406,
0.0831920199501247,0.030643509534720986,
0.08324189526184539,0.007472887086507271,
0.08329177057356608,0.037016707458444896,
0.08334164588528678,0.014626680433153847,
0.08339152119700748,0.029468509875411046,
0.08344139650872819,0.046183923134931984,
0.08349127182044888,0.023989301652028422,
0.08354114713216958,0.025640191244574496,
0.08359102244389027,0.031245340873428458,
0.08364089775561097,0.032635376587266195,
0.08369077306733166,0.026820605326954843,
0.08374064837905237,0.010663675198233956,
0.08379052369077307,0.022895848364800565,
0.08384039900249377,0.02384226881746209,
0.08389027431421446,0.025616254355282,
0.08394014962593516,0.018862444741939256,
0.08399002493765587,0.00725669845530251,
0.08403990024937656,0.036927280698113844,
0.08408977556109726,0.032724299229107856,
0.08413965087281795,0.018681385597311344,
0.08418952618453865,0.037841340099163755,
0.08423940149625936,0.0054752481497082305,
0.08428927680798005,0.029801128138015533,
0.08433915211970075,0.018908002716078995,
0.08438902743142145,0.05244637216035487,
0.08443890274314214,0.0016415147299207525,
0.08448877805486284,0.007279850118110564,
0.08453865336658355,0.06463625447499599,
0.08458852867830424,0.03594523535588288,
0.08463840399002494,0.06448259265597156,
0.08468827930174563,0.022412839867585868,
0.08473815461346633,0.015320348243308003,
0.08478802992518704,0.025939710596225234,
0.08483790523690773,0.007520217337095566,
0.08488778054862843,0.025163841600032894,
0.08493765586034913,0.03654142084392607,
0.08498753117206982,0.024758923949803353,
0.08503740648379052,0.01964632175800563,
0.08508728179551123,0.01902332397691956,
0.08513715710723192,0.02803356209747728,
0.08518703241895262,0.020050526708548774,
0.08523690773067331,0.013751243562537806,
0.08528678304239401,0.03087629691049646,
0.08533665835411472,0.014122439656628356,
0.08538653366583542,0.03019435810993093,
0.08543640897755611,0.0007618028231340356,
0.0854862842892768,0.02577120540190793,
0.0855361596009975,0.03613909797573815,
0.0855860349127182,0.025290169175392004,
0.08563591022443891,0.037426192273494044,
0.0856857855361596,0.016466850560592102,
0.0857356608478803,0.009955728606900341,
0.085785536159601,0.029647911410261005,
0.08583541147132169,0.041538274680966734,
0.0858852867830424,-0.004478074264993526,
0.0859351620947631,0.03630132139208807,
0.08598503740648379,0.01809947599616668,
0.08603491271820449,0.008750825704658788,
0.08608478802992518,0.043355991275085076,
0.08613466334164588,0.008185550015860072,
0.08618453865336659,0.04099800784617966,
0.08623441396508728,-0.017108930981704337,
0.08628428927680798,0.01636507179374707,
0.08633416458852868,0.015887285461213704,
0.08638403990024937,0.012235646696024104,
0.08643391521197008,-0.013727260518958579,
0.08648379052369078,0.019058243593543165,
0.08653366583541147,0.01808066119295513,
0.08658354114713217,0.011715015116736314,
0.08663341645885286,0.05813144281920092,
0.08668329177057357,0.0432117684988855,
0.08673316708229427,0.004316287335391153,
0.08678304239401496,0.023643824358064308,
0.08683291770573566,0.0014846441916916316,
0.08688279301745636,0.002088292346552556,
0.08693266832917705,0.03937781390503803,
0.08698254364089776,0.019102032738956377,
0.08703241895261846,-0.0030397730442153492,
0.08708229426433915,0.005992411660977668,
0.08713216957605985,0.024510604350408933,
0.08718204488778054,0.02950920752151289,
0.08723192019950125,0.003400563713526119,
0.08728179551122195,0.015989563058124344,
0.08733167082294264,0.035555087500672135,
0.08738154613466334,0.036757441796589484,
0.08743142144638404,-0.0037251365298661236,
0.08748129675810473,0.036405629923451116,
0.08753117206982544,0.0073427065530912924,
0.08758104738154614,0.006716257234091453,
0.08763092269326683,0.04077898968757858,
0.08768079800498753,0.030559720576972985,
0.08773067331670822,0.013307921964100649,
0.08778054862842893,0.013441384476288435,
0.08783042394014963,0.017793565241709077,
0.08788029925187033,0.012344924520272403,
0.08793017456359102,0.012527172849707844,
0.08798004987531172,0.033177639714560864,
0.08802992518703241,0.025202757127639717,
0.08807980049875312,-0.002413251499019272,
0.08812967581047382,0.019992413991966315,
0.08817955112219451,0.013357191453540267,
0.08822942643391521,-0.007708265806327382,
0.0882793017456359,0.01058584248618564,
0.08832917705735661,0.009683170516197583,
0.08837905236907731,-0.01796106363491884,
0.088428927680798,0.009330642130767322,
0.0884788029925187,0.010104761848681674,
0.0885286783042394,-0.005174801413715178,
0.0885785536159601,-0.009059140047858329,
0.0886284289276808,-0.013419740792012561,
0.0886783042394015,0.01054471939507224,
0.0887281795511222,0.025044672369341575,
0.08877805486284289,-0.014309125870982247,
0.08882793017456359,0.010484367163317403,
0.0888778054862843,0.01020066813510383,
0.08892768079800499,-0.025191692143834685,
0.08897755610972569,-0.009868842086027452,
0.08902743142144638,0.025900594727064928,
0.08907730673316708,-0.04369164224047473,
0.08912718204488779,-0.029048379186670095,
0.08917705735660848,0.012507573608260067,
0.08922693266832918,-0.008609995838772014,
0.08927680798004987,-0.027483140680334944,
0.08932668329177057,0.026037005109535653,
0.08937655860349127,-0.010483746040613386,
0.08942643391521198,-0.01187245305990416,
0.08947630922693267,-0.0018181699526836426,
0.08952618453865337,-0.018004402200757986,
0.08957605985037406,0.002543600633452895,
0.08962593516209476,0.03100472720967042,
0.08967581047381547,0.010775083504618366,
0.08972568578553616,0.029771285825677535,
0.08977556109725686,0.003661577985182276,
0.08982543640897755,-0.02553028538638716,
0.08987531172069825,-0.0036733693292132887,
0.08992518703241895,-0.003395231658259756,
0.08997506234413966,-0.010114697327810916,
0.09002493765586035,-0.005072906894314006,
0.09007481296758105,0.010082977525570549,
0.09012468827930174,0.009607336121069385,
0.09017456359102244,0.003958632789974363,
0.09022443890274315,-0.024221861244285214,
0.09027431421446384,0.036146903807618015,
0.09032418952618454,0.0036259983618441,
0.09037406483790524,-0.021543576401029517,
0.09042394014962593,0.0110574583133129,
0.09047381546134663,0.021487490083446272,
0.09052369077306734,-0.0005090458879710093,
0.09057356608478803,0.0008537618912314274,
0.09062344139650873,-0.012912761350213381,
0.09067331670822942,-0.006173197469748494,
0.09072319201995012,0.005480609420142709,
0.09077306733167083,-0.0013882780269144487,
0.09082294264339152,-0.01930179261622023,
0.09087281795511222,-0.003962220925548323,
0.09092269326683292,0.001987627767497193,
0.09097256857855361,-0.0014240569804619546,
0.09102244389027432,-0.012896899606202097,
0.09107231920199502,-0.011520387142167002,
0.09112219451371571,0.0053769240646747134,
0.09117206982543641,-0.003909478091281711,
0.0912219451371571,-0.00720033127478263,
0.0912718204488778,-0.026987052590308154,
0.09132169576059851,-0.012060025440942791,
0.0913715710723192,-0.0036334309193981275,
0.0914214463840399,-0.016896597720428078,
0.0914713216957606,-0.005268186138328114,
0.09152119700748129,-0.03227284905165121,
0.091571072319202,-0.006862783445565564,
0.0916209476309227,-0.0033010254064863897,
0.09167082294264339,-0.04590083110240187,
0.09172069825436409,-0.00035642387231912993,
0.09177057356608478,0.010825481172804265,
0.09182044887780548,0.004417403802325489,
0.09187032418952619,0.003551090507839267,
0.09192019950124689,-0.0031333629843575284,
0.09197007481296758,-0.01619681485340771,
0.09201995012468828,0.011860769192674713,
0.09206982543640897,0.009426815358643797,
0.09211970074812968,-0.017567078374659588,
0.09216957605985038,-0.022493523482489963,
0.09221945137157107,0.0031474449179536724,
0.09226932668329177,-0.004380789780369111,
0.09231920199501246,-0.0060450720418101685,
0.09236907730673316,-0.024305648943414998,
0.09241895261845387,-0.026178799015644783,
0.09246882793017457,-0.003871540528851954,
0.09251870324189526,-0.0004393527215881335,
0.09256857855361596,-0.008671794740796254,
0.09261845386533665,-0.0006471734778980883,
0.09266832917705736,-0.013261745483949447,
0.09271820448877806,-0.018950950739275944,
0.09276807980049875,-0.002927720601629699,
0.09281795511221945,0.010802243228417606,
0.09286783042394015,-0.02136937425797746,
0.09291770573566084,-0.04926345790776492,
0.09296758104738155,-0.020456593427926197,
0.09301745635910225,-0.012061213368510026,
0.09306733167082294,-0.01095668732616214,
0.09311720698254364,-0.0030353454164382485,
0.09316708229426433,-0.005002729150422173,
0.09321695760598504,-0.02445762465508739,
0.09326683291770574,0.006971661990483394,
0.09331670822942643,-0.010460919040044103,
0.09336658354114713,-0.022769292148192927,
0.09341645885286783,-0.0016202849008563214,
0.09346633416458854,0.02358304707762821,
0.09351620947630923,-0.008901227653399294,
0.09356608478802993,0.017975137676413858,
0.09361596009975062,-0.004975851116019364,
0.09366583541147132,-0.017032857679566735,
0.09371571072319201,-0.0009702691046084549,
0.09376558603491272,-0.0056524376076763005,
0.09381546134663342,-0.013801493463271133,
0.09386533665835411,-0.015026443435125273,
0.09391521197007481,-0.007133990144986032,
0.0939650872817955,-0.025864196463356595,
0.09401496259351622,-0.0060080986922514115,
0.09406483790523691,0.0008195761506526403,
0.09411471321695761,-0.017033404653638968,
0.0941645885286783,-0.02218841740239215,
0.094214463840399,-0.034346792101020665,
0.0942643391521197,-0.02704613849251975,
0.0943142144638404,-0.03726392578721298,
0.0943640897755611,-0.015892204534155522,
0.0944139650872818,-0.020322767526748265,
0.09446384039900249,-0.013795117099932159,
0.09451371571072319,-0.02726051412742493,
0.0945635910224439,-0.0272433447234608,
0.09461346633416459,-0.007033188796095423,
0.09466334164588529,-0.007488873170922277,
0.09471321695760598,-0.05309994177758241,
0.09476309226932668,-0.04208278255207201,
0.09481296758104737,-0.011925217562122722,
0.09486284289276808,-0.0026079848741202612,
0.09491271820448878,-0.00848543389197096,
0.09496259351620948,-0.006531650550609851,
0.09501246882793017,-0.00034035008181394766,
0.09506234413965087,-0.01754256430210995,
0.09511221945137158,-0.0473716234225911,
0.09516209476309227,-0.009952076578045307,
0.09521197007481297,-0.03694809763568142,
0.09526184538653366,-0.0173189593786338,
0.09531172069825436,0.02254523264211747,
0.09536159600997507,-0.03692122606622565,
0.09541147132169576,-0.0027395600642728356,
0.09546134663341646,-0.019693240494465067,
0.09551122194513716,0.0020726176275119076,
0.09556109725685785,-0.011407202494758916,
0.09561097256857855,-0.0229085355206887,
0.09566084788029926,-0.013787697790223326,
0.09571072319201995,-0.03997896062537043,
0.09576059850374065,0.0039408017511736275,
0.09581047381546134,-0.0014987224616769077,
0.09586034912718204,-0.01995457914303781,
0.09591022443890275,-0.02753482877847923,
0.09596009975062345,-0.014796170179303247,
0.09600997506234414,0.006700214760861314,
0.09605985037406484,0.005428799330121536,
0.09610972568578553,-0.019213470745198365,
0.09615960099750623,-0.011931468185732567,
0.09620947630922694,-0.018020264824559037,
0.09625935162094763,0.006547475186459489,
0.09630922693266833,-0.033758395564116,
0.09635910224438902,0.0006176793341409739,
0.09640897755610972,-0.005653178202382932,
0.09645885286783043,0.010555282952395472,
0.09650872817955113,-0.031265278104860315,
0.09655860349127182,-0.01076274116281958,
0.09660847880299252,0.0006133221636877295,
0.09665835411471321,-0.002615955344674218,
0.09670822942643391,-0.01938340912150353,
0.09675810473815462,0.019576488762227624,
0.09680798004987531,-0.02485847195398429,
0.09685785536159601,0.009229082836463324,
0.0969077306733167,-0.0032436546794253505,
0.0969576059850374,-0.017837271232822978,
0.09700748129675811,0.01093339080282706,
0.0970573566084788,-0.0021057238333701805,
0.0971072319201995,0.010154430989186483,
0.0971571072319202,0.00016678944347413424,
0.0972069825436409,-0.000598270713854454,
0.09725685785536159,-0.005951068736323513,
0.0973067331670823,-0.022155585076719816,
0.097356608478803,-0.0013767918723013462,
0.09740648379052369,0.0016486973972656355,
0.09745635910224439,0.0006305903321170772,
0.09750623441396508,-0.01671955526866323,
0.09755610972568579,-0.010487909689875383,
0.09760598503740649,0.005715311751355649,
0.09765586034912718,-0.021012068751749186,
0.09770573566084788,0.006142744566965389,
0.09775561097256857,-0.02259914260123831,
0.09780548628428928,0.003645235054372539,
0.09785536159600998,0.0073765546129948,
0.09790523690773068,0.00534693826817119,
0.09795511221945137,0.021864541280638642,
0.09800498753117207,-0.013663823617719714,
0.09805486284289276,0.008934494830271584,
0.09810473815461347,0.00021291297901859406,
0.09815461346633417,0.0002866244147025341,
0.09820448877805486,0.010764071553390622,
0.09825436408977556,0.010407868847520381,
0.09830423940149625,0.0055405967436178895,
0.09835411471321696,0.0015296768995940718,
0.09840399002493766,0.029621724572271135,
0.09845386533665836,0.025067446994919355,
0.09850374064837905,-0.02074673781137689,
0.09855361596009975,0.0016170677392516879,
0.09860349127182044,0.006001513428548579,
0.09865336658354115,-0.0014652986360432193,
0.09870324189526185,-0.00638999880302283,
0.09875311720698254,0.011703870430330495,
0.09880299251870324,-0.004324869463580502,
0.09885286783042393,-0.020379291477960703,
0.09890274314214464,-0.007637985600738344,
0.09895261845386534,0.016904481604635282,
0.09900249376558604,0.0036675822249771653,
0.09905236907730673,0.012260895096064907,
0.09910224438902743,-0.005732922740284273,
0.09915211970074812,0.022608598772494923,
0.09920199501246883,0.011848456320063466,
0.09925187032418953,0.009557222048119542,
0.09930174563591022,-0.0044282745430802,
0.09935162094763092,0.022084297804682174,
0.09940149625935162,0.002664772932418409,
0.09945137157107233,-0.005623603970822658,
0.09950124688279302,0.0026995393091297157,
0.09955112219451372,0.009825348605759317,
0.09960099750623441,0.0071161424663354345,
0.09965087281795511,0.027015119526643462,
0.0997007481296758,0.009964742016244602,
0.09975062344139651,0.012744026866333202,
0.09980049875311721,0.007553479107877982,
0.0998503740648379,0.004891064996537214,
0.0999002493765586,0.03627879689004672,
0.0999501246882793,0.016034111728150655,
0.1,0.019531914802725467,
0.1000498753117207,0.022231789829422907,
0.1000997506234414,0.031406898654683026,
0.10014962593516209,0.008184261693543367,
0.10019950124688279,0.002341748367791675,
0.1002493765586035,0.01707669436324534,
0.1002992518703242,0.021723795154465958,
0.10034912718204489,0.03223783475362515,
0.10039900249376559,0.013452353444693926,
0.10044887780548628,0.05326463025699121,
0.10049875311720698,0.007556536457174712,
0.10054862842892769,0.01902608724837875,
0.10059850374064838,0.017282818401343655,
0.10064837905236908,0.006049433337292787,
0.10069825436408977,0.036179856221104534,
0.10074812967581047,-0.010332708665862639,
0.10079800498753118,0.008050019352047308,
0.10084788029925187,-0.005877062102976553,
0.10089775561097257,0.011261481697910528,
0.10094763092269327,0.016778093074782473,
0.10099750623441396,0.03685521341774904,
0.10104738154613466,0.005223911259163744,
0.10109725685785537,0.0032718180293955304,
0.10114713216957606,0.02192113843137751,
0.10119700748129676,0.06727408857106472,
0.10124688279301745,0.030413286977320396,
0.10129675810473815,0.03781528914791636,
0.10134663341645886,0.022730854564253264,
0.10139650872817955,0.036570208668344754,
0.10144638403990025,0.0005231841168918117,
0.10149625935162095,0.039108596401292564,
0.10154613466334164,0.023856806321804588,
0.10159600997506234,0.038182183544643214,
0.10164588528678305,0.04235916712907557,
0.10169576059850374,0.02084289273004514,
0.10174563591022444,0.01456151483615507,
0.10179551122194513,0.015078916135929264,
0.10184538653366583,0.00814937308783289,
0.10189526184538654,0.03072121269715336,
0.10194513715710724,0.02294567710122441,
0.10199501246882793,0.023860837037588373,
0.10204488778054863,0.02624512318005608,
0.10209476309226932,0.02789278547366273,
0.10214463840399003,0.028433613561005627,
0.10219451371571073,0.018853784878148407,
0.10224438902743142,-0.027982801988721162,
0.10229426433915212,0.018025950631542862,
0.10234413965087281,0.03460579262416439,
0.10239401496259351,0.027119702649048155,
0.10244389027431422,0.06439869492833501,
0.10249376558603492,0.040931909285904844,
0.10254364089775561,0.021518229605811866,
0.10259351620947631,0.015487860118735904,
0.102643391521197,0.029236635094026357,
0.10269326683291771,0.02345482529745012,
0.10274314214463841,-0.01253478874959095,
0.1027930174563591,0.027489769961890523,
0.1028428927680798,0.03796379843659495,
0.1028927680798005,0.024884966277425914,
0.10294264339152119,0.004601753659537286,
0.1029925187032419,-0.02053088276130863,
0.1030423940149626,0.002144949732746749,
0.10309226932668329,0.029751446447861388,
0.10314214463840399,0.021528139865557135,
0.10319201995012468,0.032383787330097016,
0.10324189526184539,0.03429754698009218,
0.10329177057356609,0.01830034062401567,
0.10334164588528678,0.008199047735291308,
0.10339152119700748,0.04769606614013772,
0.10344139650872818,0.04731678494506797,
0.10349127182044887,0.030002154267471035,
0.10354114713216958,0.02295423043924681,
0.10359102244389028,0.03900769447850874,
0.10364089775561097,0.04931682384266698,
0.10369077306733167,0.038752049749700104,
0.10374064837905236,0.01357122854898183,
0.10379052369077307,0.03341238186327933,
0.10384039900249377,0.02286474698442883,
0.10389027431421446,0.04311268032557274,
0.10394014962593516,0.040881901598351436,
0.10399002493765586,0.030563857560713,
0.10403990024937655,0.03125406916155535,
0.10408977556109726,0.04382142890095911,
0.10413965087281796,0.030758520043839083,
0.10418952618453865,0.037316399574012525,
0.10423940149625935,0.02159673303589174,
0.10428927680798004,0.018747783972905524,
0.10433915211970075,0.029756304527967962,
0.10438902743142145,0.0330961811278551,
0.10443890274314215,0.04553951381610537,
0.10448877805486284,0.051131188866049115,
0.10453865336658354,0.014982795744039037,
0.10458852867830425,0.021435696373358813,
0.10463840399002494,0.016703801622254145,
0.10468827930174564,0.0266011898966121,
0.10473815461346633,0.02759199206761918,
0.10478802992518703,0.04149824619942012,
0.10483790523690772,0.03737609477009529,
0.10488778054862843,0.030135469744888024,
0.10493765586034913,0.015003027060115316,
0.10498753117206983,0.01877440887703185,
0.10503740648379052,0.03872213404614096,
0.10508728179551122,0.028982472132411223,
0.10513715710723193,0.004583467022618137,
0.10518703241895262,0.019385059478072272,
0.10523690773067332,0.009762031104098082,
0.10528678304239401,0.005221486439354505,
0.10533665835411471,0.024680490495100557,
0.1053865336658354,0.028639676539610914,
0.10543640897755611,0.059235007332470654,
0.10548628428927681,-0.015144073987864541,
0.1055361596009975,0.03836821319485963,
0.1055860349127182,0.001936511109869636,
0.1056359102244389,0.016409736776635667,
0.10568578553615961,0.04229448974531934,
0.1057356608478803,0.03397093653360654,
0.105785536159601,0.0012325372689631804,
0.1058354114713217,-0.009771521937953255,
0.10588528678304239,0.029902094061318097,
0.10593516209476309,0.031479188978158594,
0.1059850374064838,0.014217976153849078,
0.10603491271820449,0.008799137906390354,
0.10608478802992519,0.03568721851891894,
0.10613466334164588,0.018809468019809962,
0.10618453865336658,0.029359877448600098,
0.10623441396508729,0.006509144429430014,
0.10628428927680798,0.023454748627879295,
0.10633416458852868,0.030467647086063657,
0.10638403990024937,-0.003758697544098133,
0.10643391521197007,0.002233123989085456,
0.10648379052369077,0.06005107830402946,
0.10653366583541148,0.03103751755153108,
0.10658354114713217,0.04035167700063944,
0.10663341645885287,0.009164639180803966,
0.10668329177057356,0.018157512698663485,
0.10673316708229426,0.0256884199268864,
0.10678304239401497,0.023054574668537678,
0.10683291770573566,0.0015951388562421634,
0.10688279301745636,0.055983842291333845,
0.10693266832917706,-0.0029443137346721257,
0.10698254364089775,-0.011602350942184952,
0.10703241895261846,0.03358393135473801,
0.10708229426433916,0.01595120751763748,
0.10713216957605985,-0.0015828345260745086,
0.10718204488778055,0.034463434404392826,
0.10723192019950124,0.03201373805051516,
0.10728179551122194,0.011404021265991507,
0.10733167082294265,0.04810854513194758,
0.10738154613466334,0.00864165845669919,
0.10743142144638404,0.03816958372253096,
0.10748129675810474,0.0027396139740953115,
0.10753117206982543,0.0463481169717284,
0.10758104738154614,0.003808474794961379,
0.10763092269326684,0.029858394324699226,
0.10768079800498753,0.034317653737163986,
0.10773067331670823,0.03156535907097818,
0.10778054862842892,0.0018670047938472833,
0.10783042394014962,0.01929496463089638,
0.10788029925187033,0.028608621616533124,
0.10793017456359102,-0.0034868547451150055,
0.10798004987531172,0.02745559638535187,
0.10802992518703242,0.01996399780980288,
0.10807980049875311,0.006286791771032762,
0.10812967581047382,0.01742692617510297,
0.10817955112219452,0.023116952493363558,
0.10822942643391521,0.013637488809241928,
0.10827930174563591,0.017753648945971822,
0.1083291770573566,-0.006198993652216215,
0.1083790523690773,0.005598598734325631,
0.10842892768079801,0.03805342001564549,
0.1084788029925187,0.03821595493485954,
0.1085286783042394,0.0003364910067242405,
0.1085785536159601,0.013684693847784455,
0.10862842892768079,0.020070486005094805,
0.1086783042394015,0.014256274994388765,
0.1087281795511222,-0.004395488423720603,
0.1087780548628429,0.013757571486497894,
0.10882793017456359,0.01378522971380491,
0.10887780548628428,-0.006329868167220304,
0.108927680798005,0.011749132302791053,
0.10897755610972569,-0.001986361773095323,
0.10902743142144639,0.002012885444570024,
0.10907730673316708,0.004790950461402764,
0.10912718204488778,0.007660873271589136,
0.10917705735660847,0.021248455133724652,
0.10922693266832918,0.009391460249256061,
0.10927680798004988,0.02980798499340116,
0.10932668329177057,-0.022659645079696693,
0.10937655860349127,0.03376392890387403,
0.10942643391521197,-0.037387633871265535,
0.10947630922693267,-0.0008401703820752242,
0.10952618453865337,0.02587005204513941,
0.10957605985037407,-0.012217573261347169,
0.10962593516209476,0.023233569032584077,
0.10967581047381546,0.014133350976665843,
0.10972568578553615,0.012005477960121573,
0.10977556109725686,-0.006345779123264232,
0.10982543640897756,0.008957725819048815,
0.10987531172069825,-0.009750382027520568,
0.10992518703241895,0.008332692898405485,
0.10997506234413965,0.017578278131643123,
0.11002493765586036,0.025752747025462118,
0.11007481296758105,0.020734854852781426,
0.11012468827930175,0.021433536335909782,
0.11017456359102244,0.012149326036340204,
0.11022443890274314,3.3362337702813735e-05,
0.11027431421446383,0.00989759632434803,
0.11032418952618454,-0.009682521667185912,
0.11037406483790524,0.0162637418875948,
0.11042394014962593,0.012837389201363203,
0.11047381546134663,-0.014386254503701068,
0.11052369077306733,-0.017722043011225628,
0.11057356608478804,0.018902873664577234,
0.11062344139650873,0.0021886819021194608,
0.11067331670822943,0.007544518547650621,
0.11072319201995012,-0.0023269525660360416,
0.11077306733167082,-0.00932536410653231,
0.11082294264339151,-0.027331357776080756,
0.11087281795511222,0.0012076395871567693,
0.11092269326683292,-0.010782822590213542,
0.11097256857855362,-0.019328870706032543,
0.11102244389027431,0.003643329283026516,
0.111072319201995,0.007648853847494065,
0.11112219451371572,0.023056409329790455,
0.11117206982543641,0.02529832848225249,
0.11122194513715711,-0.009856409957605047,
0.1112718204488778,-0.0037206347172843613,
0.1113216957605985,-0.018255973272949935,
0.11137157107231921,-0.03416292002629304,
0.1114214463840399,0.003005850134868971,
0.1114713216957606,-0.018243587476091463,
0.1115211970074813,-0.03486984737505059,
0.11157107231920199,-0.018104044095139812,
0.11162094763092269,0.008002743982484503,
0.1116708229426434,-0.02029766733269667,
0.11172069825436409,0.010228035777927727,
0.11177057356608479,-0.018324905467801286,
0.11182044887780548,-0.031752412967596885,
0.11187032418952618,-0.01715504651965164,
0.11192019950124689,0.020366125652000338,
0.11197007481296758,-0.014133955833219377,
0.11201995012468828,-0.023383277816983405,
0.11206982543640898,-0.024766377045935116,
0.11211970074812967,-0.00014004758956751712,
0.11216957605985037,-0.016779630010431198,
0.11221945137157108,0.00813922642882245,
0.11226932668329177,0.0015503568433624798,
0.11231920199501247,-0.007885618004831339,
0.11236907730673316,-0.019368729517949837,
0.11241895261845386,-0.02712902040396282,
0.11246882793017457,0.0014866708924892065,
0.11251870324189527,-0.005951389956992801,
0.11256857855361596,0.0005025811193851409,
0.11261845386533666,-0.014094105489340366,
0.11266832917705735,0.008294070010886665,
0.11271820448877805,-0.015653897023888384,
0.11276807980049876,-0.008394362345056694,
0.11281795511221945,-0.008397675950381545,
0.11286783042394015,-0.015836784604578248,
0.11291770573566084,-0.03864871284477556,
0.11296758104738154,-0.03366796287186503,
0.11301745635910225,-0.00444532427961831,
0.11306733167082295,-0.01993929582201661,
0.11311720698254364,0.00024471850005165427,
0.11316708229426434,-0.031620755500908024,
0.11321695760598503,-0.034308981264560875,
0.11326683291770574,-0.0029170470249616984,
0.11331670822942644,0.004882494561774314,
0.11336658354114713,0.007992587544114442,
0.11341645885286783,-0.013890014242361873,
0.11346633416458853,-0.012362159663096851,
0.11351620947630922,-0.020472741874496297,
0.11356608478802993,-0.00933531229392098,
0.11361596009975063,-0.012427918054261864,
0.11366583541147132,-0.02275616397058861,
0.11371571072319202,-0.0033550920933230234,
0.11376558603491271,-0.04140012175264758,
0.11381546134663342,0.0013422677604848863,
0.11386533665835412,-0.004713502641034736,
0.11391521197007481,-0.01986294565995802,
0.11396508728179551,-0.010598627327992735,
0.1140149625935162,0.004511660342331551,
0.1140648379052369,0.0069732296757872,
0.11411471321695761,-0.011770332149079377,
0.1141645885286783,-0.023749513423593095,
0.114214463840399,-0.009716279130274183,
0.1142643391521197,0.010352767937667665,
0.1143142144638404,-0.0032647185665994755,
0.1143640897755611,0.0025489523994039545,
0.1144139650872818,-0.03954829671981211,
0.1144638403990025,-0.006463406232721058,
0.11451371571072319,-0.01891819558800786,
0.11456359102244389,-0.02258392818497297,
0.11461346633416458,0.029337931239065505,
0.11466334164588529,0.004657988001606623,
0.11471321695760599,-0.010134245691972535,
0.11476309226932668,-0.026932601076833575,
0.11481296758104738,0.0012975505380751137,
0.11486284289276807,-0.01674416422989853,
0.11491271820448878,0.005426607435290429,
0.11496259351620948,0.0029677689612742104,
0.11501246882793018,0.005730866498276548,
0.11506234413965087,-0.03269465567872931,
0.11511221945137157,-0.028074936293166736,
0.11516209476309226,0.007809707683119673,
0.11521197007481297,-0.0165508584349349,
0.11526184538653367,-0.019571927504784432,
0.11531172069825436,-0.0374104323654206,
0.11536159600997506,0.0018500002598974448,
0.11541147132169575,-0.016414570408123157,
0.11546134663341646,0.0044216219050969684,
0.11551122194513716,-0.011399111511249812,
0.11556109725685786,0.012290144059871961,
0.11561097256857855,0.0020580723107946723,
0.11566084788029925,0.0007393318745835507,
0.11571072319201996,-0.029968260712132752,
0.11576059850374065,0.003508696524999024,
0.11581047381546135,0.014065742115828795,
0.11586034912718204,-0.0296326874170377,
0.11591022443890274,-0.0005152887417778345,
0.11596009975062344,-0.02584786942072946,
0.11600997506234415,-0.012671340861767202,
0.11605985037406484,-0.0066252814684545375,
0.11610972568578554,-0.037919433978032435,
0.11615960099750623,-0.007501745689417144,
0.11620947630922693,-0.0227269104181674,
0.11625935162094764,0.004335434749374867,
0.11630922693266833,-0.010686432925334065,
0.11635910224438903,-0.005291895973932376,
0.11640897755610972,-0.013322389356546949,
0.11645885286783042,0.006174599241215937,
0.11650872817955112,0.013991690862256835,
0.11655860349127183,-0.0014243974774461963,
0.11660847880299252,-0.009699217853765481,
0.11665835411471322,-0.0009226119622052571,
0.11670822942643391,-0.011610796512688697,
0.11675810473815461,-0.012648835502917287,
0.11680798004987532,-0.01277099281481609,
0.11685785536159601,-0.03320011957993476,
0.11690773067331671,0.0025276960250153017,
0.1169576059850374,-0.006224017734528612,
0.1170074812967581,-0.02427388501353831,
0.1170573566084788,-0.011900749768365106,
0.1171072319201995,0.006427771186006091,
0.1171571072319202,-0.02231857665579503,
0.1172069825436409,-0.004229671708662169,
0.1172568578553616,-0.022322590127706224,
0.11730673316708229,0.009966577267044646,
0.117356608478803,-0.004806718188593255,
0.1174064837905237,-0.02684567710154922,
0.11745635910224439,0.003075116899898554,
0.11750623441396509,0.003430052163663543,
0.11755610972568578,0.005165380466080398,
0.11760598503740648,0.0027941992853032015,
0.11765586034912719,0.0015164730201331958,
0.11770573566084788,-0.012969705562450197,
0.11775561097256858,-0.0010808031082612927,
0.11780548628428927,-0.004164954988892712,
0.11785536159600997,0.03642637093880802,
0.11790523690773068,-0.00870788722609484,
0.11795511221945137,0.005570590755180602,
0.11800498753117207,0.003180684168421219,
0.11805486284289277,0.03153920336051663,
0.11810473815461346,0.0035935838425242284,
0.11815461346633417,-0.0062745225821667925,
0.11820448877805487,0.0016624947614216098,
0.11825436408977556,-0.01828737577101219,
0.11830423940149626,-0.0040416303281894305,
0.11835411471321695,0.01686694583473812,
0.11840399002493765,-0.00010040139989174295,
0.11845386533665836,0.001318632652214929,
0.11850374064837906,-0.006218508752037775,
0.11855361596009975,-0.035123862286143274,
0.11860349127182045,0.02835137291776034,
0.11865336658354114,0.026477631802729253,
0.11870324189526185,0.011859989412201826,
0.11875311720698255,0.017503094562728853,
0.11880299251870324,-0.008603658966608984,
0.11885286783042394,0.01351897023872536,
0.11890274314214463,0.021374214439128243,
0.11895261845386533,-0.006376290150899973,
0.11900249376558604,-0.00923509469068888,
0.11905236907730674,0.005334937309956676,
0.11910224438902743,-0.010005015315664414,
0.11915211970074813,0.02210086465961553,
0.11920199501246882,0.0021726952192885965,
0.11925187032418953,0.03997484118593915,
0.11930174563591023,0.003869651800649857,
0.11935162094763092,0.0063606746780517625,
0.11940149625935162,0.022203337529478263,
0.11945137157107232,4.698577725023231e-06,
0.11950124688279301,0.028202504901645296,
0.11955112219451372,0.0015959101978291913,
0.11960099750623442,0.005862863450718111,
0.11965087281795511,0.011627642096139302,
0.11970074812967581,0.013000466076851932,
0.1197506234413965,0.001585491415120075,
0.11980049875311721,0.031460777811254295,
0.11985037406483791,0.011486051531903897,
0.1199002493765586,0.027175808060409118,
0.1199501246882793,0.024837043950875062,
0.12,0.010302109429228615,
0.1200498753117207,0.011461645822792556,
0.1200997506234414,0.025015415897478792,
0.1201496259351621,0.03161042284577471,
0.12019950124688279,0.011482613279485285,
0.12024937655860349,0.03442913342460231,
0.12029925187032418,0.023918784658343337,
0.1203491271820449,0.021918467860508103,
0.12039900249376559,0.03682807938948463,
0.12044887780548628,0.01664388995913444,
0.12049875311720698,0.03948800006660251,
0.12054862842892768,0.010237332601082928,
0.12059850374064839,0.006822629487797247,
0.12064837905236908,0.035037625369863226,
0.12069825436408978,0.007272714076911092,
0.12074812967581047,0.0007543898580206036,
0.12079800498753117,-0.0031923353244118317,
0.12084788029925186,0.0029597608952772227,
0.12089775561097257,0.002146590024304989,
0.12094763092269327,0.03719464938419599,
0.12099750623441397,0.03712190861709068,
0.12104738154613466,0.01608715555996989,
0.12109725685785536,0.021310201032231038,
0.12114713216957607,0.015865137748847544,
0.12119700748129676,0.045925013121679445,
0.12124688279301746,0.009878212260765067,
0.12129675810473815,0.027377292188026807,
0.12134663341645885,0.031317904553479506,
0.12139650872817954,0.022505216353864037,
0.12144638403990025,0.05620526352541716,
0.12149625935162095,0.026900208713216113,
0.12154613466334165,0.02639201254322356,
0.12159600997506234,0.028141267005519215,
0.12164588528678304,0.033169912060246276,
0.12169576059850375,0.019052387256301317,
0.12174563591022444,0.035030314914566846,
0.12179551122194514,0.028471186374698306,
0.12184538653366583,0.011000093373344757,
0.12189526184538653,0.024641610714667122,
0.12194513715710723,0.02234673596236771,
0.12199501246882793,0.02454675933362698,
0.12204488778054863,0.03171488840304441,
0.12209476309226933,0.036157047506780005,
0.12214463840399002,0.05061126022970311,
0.12219451371571072,0.05355737163940202,
0.12224438902743143,0.038832934358769236,
0.12229426433915212,0.03280045707572605,
0.12234413965087282,0.06264367491081196,
0.12239401496259351,0.027877823853955368,
0.12244389027431421,0.011836118961724098,
0.12249376558603492,0.035114902593217576,
0.12254364089775562,0.026156064777973984,
0.12259351620947631,0.057105601337802306,
0.122643391521197,0.01691294570758671,
0.1226932668329177,0.002329987131900465,
0.1227431421446384,0.032296070244235864,
0.12279301745635911,0.020651850884639215,
0.1228428927680798,0.05301604246115245,
0.1228927680798005,0.025882324111107288,
0.1229426433915212,0.03922245661085101,
0.12299251870324189,0.01196486978228235,
0.1230423940149626,0.02946880620578321,
0.1230922693266833,0.015830116910072668,
0.12314214463840399,0.05346840226189904,
0.12319201995012469,0.041154281476514246,
0.12324189526184538,0.02337677483180448,
0.12329177057356608,0.05257076841232488,
0.12334164588528679,0.04388608696536255,
0.12339152119700748,0.011319312564879343,
0.12344139650872818,0.032818913560209564,
0.12349127182044888,0.04200067463024737,
0.12354114713216957,0.025425578059465225,
0.12359102244389028,0.01700575614354169,
0.12364089775561098,0.007084768486602739,
0.12369077306733167,0.025745666762692982,
0.12374064837905237,0.05503715803301659,
0.12379052369077306,0.04356193012388681,
0.12384039900249376,0.015395600057140923,
0.12389027431421447,0.03138790502747975,
0.12394014962593516,0.05452259511657843,
0.12399002493765586,0.0035119961440095958,
0.12403990024937656,0.033069445179138096,
0.12408977556109725,0.03068897363552435,
0.12413965087281796,0.03873480742764156,
0.12418952618453866,0.01741784597053388,
0.12423940149625935,0.03822397050375656,
0.12428927680798005,0.05903734819397208,
0.12433915211970074,0.03312059468150095,
0.12438902743142144,0.019317229816129794,
0.12443890274314215,0.04873077928152939,
0.12448877805486284,0.02442491464417297,
0.12453865336658354,0.036379700002658825,
0.12458852867830424,0.02014823529983807,
0.12463840399002493,0.03615600683430092,
0.12468827930174564,0.04621611256963906,
0.12473815461346634,0.016907638265508663,
0.12478802992518703,0.003128451969994551,
0.12483790523690773,0.03661229521367446,
0.12488778054862842,0.0025622049878631196,
0.12493765586034913,0.025566760766056636,
0.12498753117206983,0.037321681317253844,
0.12503740648379053,-0.005375672066301372,
0.12508728179551123,0.010855022481537992,
0.12513715710723192,0.04141608129772903,
0.12518703241895263,0.04499891696333724,
0.1252369077306733,0.055811059388826814,
0.12528678304239402,0.023452054418150927,
0.1253366583541147,0.0008925411158657963,
0.1253865336658354,0.017046610645188257,
0.12543640897755612,0.03534990171655438,
0.1254862842892768,0.04321044586360025,
0.1255361596009975,0.024560400129752243,
0.1255860349127182,0.01351688917873933,
0.1256359102244389,0.023841472779860498,
0.1256857855361596,0.02257755841886922,
0.1257356608478803,0.022132187503490233,
0.125785536159601,0.02644099834399581,
0.12583541147132168,0.03121981305005496,
0.1258852867830424,0.017228445301132135,
0.1259351620947631,0.021538012780780387,
0.12598503740648379,0.024981089004918713,
0.1260349127182045,0.03283731621221873,
0.12608478802992518,0.012625748593042165,
0.1261346633416459,0.02117405703182716,
0.1261845386533666,0.028259640238857346,
0.12623441396508728,0.04049523740968543,
0.126284289276808,0.024961616447435414,
0.12633416458852867,0.02284154230127751,
0.12638403990024938,0.033523984019486766,
0.1264339152119701,0.03529451808262418,
0.12648379052369077,0.036785683039115565,
0.12653366583541148,0.020434644011731208,
0.12658354114713216,0.028822928732090622,
0.12663341645885287,0.016895892560408732,
0.12668329177057355,0.015029387584144167,
0.12673316708229426,0.03255081577972778,
0.12678304239401497,-0.00011663810528284718,
0.12683291770573565,0.012923629601700076,
0.12688279301745636,0.01811012758864627,
0.12693266832917705,0.02905636253685333,
0.12698254364089775,0.006004181755470657,
0.12703241895261846,0.026475228874499823,
0.12708229426433915,0.0402571696417478,
0.12713216957605986,-0.0011320516753854752,
0.12718204488778054,0.02319878243479325,
0.12723192019950125,0.04742677198147445,
0.12728179551122196,0.013701219454288418,
0.12733167082294264,0.023654121211668003,
0.12738154613466335,0.027054292641168452,
0.12743142144638403,0.012109243908190214,
0.12748129675810474,0.017156103817836284,
0.12753117206982545,0.007357540591835838,
0.12758104738154613,0.003340138939229728,
0.12763092269326684,-0.013744650698720967,
0.12768079800498752,0.029246797034015646,
0.12773067331670823,0.029375455561341482,
0.1277805486284289,-0.005526948043395031,
0.12783042394014962,0.021904092316636217,
0.12788029925187033,0.023120206480884923,
0.12793017456359101,0.00535041176252354,
0.12798004987531172,0.04185482902121977,
0.1280299251870324,0.00467993988719732,
0.12807980049875312,0.006940505856402875,
0.12812967581047383,0.016601450027392783,
0.1281795511221945,0.02013868256404427,
0.12822942643391522,0.021999616833374015,
0.1282793017456359,-0.005920064938217616,
0.1283291770573566,-0.004377147071547179,
0.12837905236907732,0.0394373189770593,
0.128428927680798,0.01086844424068913,
0.1284788029925187,0.014080909206814924,
0.1285286783042394,-0.022694350868529813,
0.1285785536159601,0.03204304611084791,
0.1286284289276808,-0.012250991294662875,
0.1286783042394015,0.017551813167759302,
0.1287281795511222,0.004683830101239325,
0.12877805486284288,0.024384674437878794,
0.1288279301745636,0.01596687995640858,
0.1288778054862843,0.018696544368205024,
0.12892768079800498,0.004158581586067802,
0.1289775561097257,0.001024535082002594,
0.12902743142144638,0.006384889665258528,
0.12907730673316709,0.024487674800860105,
0.12912718204488777,0.03208964672125231,
0.12917705735660848,0.02090615126186414,
0.1292269326683292,0.008647665624405172,
0.12927680798004987,-0.007705092371810931,
0.12932668329177058,0.007218455400948235,
0.12937655860349126,0.006902676880437669,
0.12942643391521197,0.006514618839732969,
0.12947630922693268,0.011978778014907222,
0.12952618453865336,0.008831089898759664,
0.12957605985037407,-0.00016403112999304262,
0.12962593516209475,-0.006819368947735236,
0.12967581047381546,-0.007029152565584641,
0.12972568578553617,0.0019320466825556424,
0.12977556109725685,0.015540219452064182,
0.12982543640897756,-0.0038264018688749027,
0.12987531172069824,-0.0003496612049601524,
0.12992518703241895,-0.0006252953964404747,
0.12997506234413966,-0.00946772438095329,
0.13002493765586035,0.000727180316348601,
0.13007481296758105,0.013665990764801367,
0.13012468827930174,-0.006160992220858111,
0.13017456359102245,0.02261045424321751,
0.13022443890274316,-0.0334550367874621,
0.13027431421446384,-0.005130197769179406,
0.13032418952618455,-0.015118095500204844,
0.13037406483790523,0.001230758261106297,
0.13042394014962594,-0.0011422219806140476,
0.13047381546134662,0.0034336945476577435,
0.13052369077306733,0.005401949691845952,
0.13057356608478804,-0.004603060666957093,
0.13062344139650872,-0.016737078965790866,
0.13067331670822943,-0.014746748283696138,
0.1307231920199501,-0.009482265933228975,
0.13077306733167082,0.027212786905916345,
0.13082294264339153,0.01005185630535384,
0.13087281795511221,-0.003802489166960136,
0.13092269326683292,-0.01620081855826537,
0.1309725685785536,-0.014648403267014979,
0.13102244389027431,0.022775354610545435,
0.13107231920199502,-0.0019988989042858,
0.1311221945137157,0.005586223892682755,
0.13117206982543642,-0.005123833633473306,
0.1312219451371571,0.008025712411577993,
0.1312718204488778,0.017574062149537554,
0.13132169576059852,0.0031543994726046885,
0.1313715710723192,0.016172323223735324,
0.1314214463840399,-0.0164261731080367,
0.1314713216957606,0.0022438116499933526,
0.1315211970074813,0.007955261799480957,
0.13157107231920198,-0.017198757782518493,
0.1316209476309227,-0.010873507558444228,
0.1316708229426434,-0.022712500061767407,
0.13172069825436408,-0.01617232770668194,
0.1317705735660848,0.007576992004114205,
0.13182044887780547,-0.01424709669983967,
0.13187032418952618,0.00012445987817728474,
0.1319201995012469,0.014434751847390388,
0.13197007481296757,-0.028420030184711037,
0.13201995012468828,-0.01901463686948309,
0.13206982543640897,-0.019199846589001708,
0.13211970074812968,-0.005990812631127686,
0.13216957605985039,-0.021313823438471012,
0.13221945137157107,-0.015439318704985338,
0.13226932668329178,-0.0035589281438009887,
0.13231920199501246,-0.000929437519553232,
0.13236907730673317,0.004628632604229519,
0.13241895261845388,0.00036823486925061273,
0.13246882793017456,-0.0026208339728240734,
0.13251870324189527,0.009199848224238371,
0.13256857855361595,0.031502734698707124,
0.13261845386533666,-0.01631637460859712,
0.13266832917705737,0.00963312073973929,
0.13271820448877805,-0.011201284366910756,
0.13276807980049876,0.011530587620545077,
0.13281795511221944,-0.047163169335560334,
0.13286783042394015,-0.022402092466458322,
0.13291770573566083,-0.021856830524110377,
0.13296758104738154,0.011979807395741135,
0.13301745635910225,-0.006089861435490795,
0.13306733167082294,-0.010988484712828974,
0.13311720698254365,-0.00010602717602570602,
0.13316708229426433,-0.010245406932125159,
0.13321695760598504,-0.01863595544826927,
0.13326683291770575,0.00436833939650072,
0.13331670822942643,0.004190934559575549,
0.13336658354114714,-0.012919205382947344,
0.13341645885286782,-0.02608982073209057,
0.13346633416458853,-0.015787280738186464,
0.13351620947630924,-0.009228095160983243,
0.13356608478802992,-0.03383452387506719,
0.13361596009975063,-0.011008058063831523,
0.1336658354114713,0.00454610318277671,
0.13371571072319202,-0.020434141482592386,
0.13376558603491273,0.009253668248801857,
0.1338154613466334,-0.027673345136833283,
0.13386533665835412,-0.0256205325401979,
0.1339152119700748,0.014559000141447715,
0.13396508728179551,-0.01705527574055605,
0.1340149625935162,-0.012614090430314764,
0.1340648379052369,-0.02185959218487679,
0.13411471321695762,0.015808939811372495,
0.1341645885286783,-0.024190231639354718,
0.134214463840399,-0.01851410603287047,
0.1342643391521197,0.015550071098537526,
0.1343142144638404,-0.014770405385490782,
0.1343640897755611,-0.01811991493591763,
0.1344139650872818,-0.005099427474412376,
0.1344638403990025,0.006751949312460698,
0.13451371571072318,0.017664561552005978,
0.1345635910224439,0.00265949087659398,
0.1346134663341646,-0.00263066095563543,
0.13466334164588528,-0.016953620890042938,
0.134713216957606,-0.023457483620055286,
0.13476309226932667,-0.033985507652258856,
0.13481296758104738,-0.019813867855581854,
0.1348628428927681,-0.036254097203107696,
0.13491271820448877,-0.0006032378902698383,
0.13496259351620948,0.004791107809770354,
0.13501246882793017,0.004169541001139046,
0.13506234413965088,-0.03201195934167419,
0.13511221945137158,0.0031652191985581165,
0.13516209476309227,-0.012543015147108061,
0.13521197007481298,0.0023952618956833583,
0.13526184538653366,0.004540393212087934,
0.13531172069825437,0.0049217051656500685,
0.13536159600997505,-0.016393258605681575,
0.13541147132169576,-0.0025579870966084767,
0.13546134663341647,-0.017771252193232098,
0.13551122194513715,0.02299569602987211,
0.13556109725685786,0.01460114261780356,
0.13561097256857854,-0.0038125105091791098,
0.13566084788029925,0.009267128377649156,
0.13571072319201996,-0.002904032284240063,
0.13576059850374064,-0.023290622603776328,
0.13581047381546135,-0.005526797604280745,
0.13586034912718203,-0.013125178688680211,
0.13591022443890274,-0.02054202700489664,
0.13596009975062345,0.02186146103960921,
0.13600997506234414,-0.008759399717223188,
0.13605985037406484,-0.0042955261926583745,
0.13610972568578553,-0.02106343086390536,
0.13615960099750624,-0.012363769949113083,
0.13620947630922695,-0.016998308451380943,
0.13625935162094763,-0.017189480558717316,
0.13630922693266834,0.02573902224954739,
0.13635910224438902,-0.007964199059395197,
0.13640897755610973,-0.0037639202017242654,
0.1364588528678304,-0.015232993483883545,
0.13650872817955112,0.0008730442600357021,
0.13655860349127183,-0.00886686917854479,
0.1366084788029925,-0.002027804104885067,
0.13665835411471322,-0.02131810713044306,
0.1367082294264339,-0.0021070765546013907,
0.1367581047381546,-0.011315290771874964,
0.13680798004987532,0.021786157168472674,
0.136857855361596,0.03471196717775445,
0.1369077306733167,0.008519812049562736,
0.1369576059850374,-0.023575915030248466,
0.1370074812967581,0.005061108521157946,
0.13705735660847881,-0.026809438570446455,
0.1371072319201995,-0.025792940230125683,
0.1371571072319202,0.011231305947708237,
0.1372069825436409,0.01701559712239374,
0.1372568578553616,0.0033332308806293363,
0.1373067331670823,-0.005557663014635218,
0.137356608478803,-0.0011525316925872751,
0.1374064837905237,0.0021766045602556634,
0.13745635910224438,0.03139565114168413,
0.1375062344139651,0.007440664847736851,
0.1375561097256858,-0.005185421018469346,
0.13760598503740648,0.017094757145808003,
0.1376558603491272,0.027764758778319423,
0.13770573566084787,0.0030433245970530824,
0.13775561097256858,0.004219049266193796,
0.13780548628428926,0.014076452717141218,
0.13785536159600997,0.004344633137934715,
0.13790523690773068,-0.0211288102894506,
0.13795511221945136,-0.015444628860478383,
0.13800498753117207,-0.003326398450885405,
0.13805486284289276,0.016146691060021055,
0.13810473815461347,-0.010722329611017718,
0.13815461346633418,-0.0024589961293125353,
0.13820448877805486,0.029798985041724048,
0.13825436408977557,0.0025354619620720775,
0.13830423940149625,-0.008371052881755926,
0.13835411471321696,-0.003265890479851835,
0.13840399002493767,0.02109612108860091,
0.13845386533665835,0.0008852365960201093,
0.13850374064837906,0.009319166561090738,
0.13855361596009974,-0.005725214873791937,
0.13860349127182045,0.015589583436799608,
0.13865336658354116,0.020699061347980847,
0.13870324189526184,0.02619806599448254,
0.13875311720698255,-0.01566675755528607,
0.13880299251870323,0.02264085107611817,
0.13885286783042394,0.007896321605773488,
0.13890274314214462,0.0049062118145200345,
0.13895261845386533,0.0032336404955391213,
0.13900249376558604,0.012432334917610751,
0.13905236907730673,-0.01579570847584258,
0.13910224438902744,0.007044060528450574,
0.13915211970074812,-0.007971829419189214,
0.13920199501246883,-0.0035722572998414144,
0.13925187032418954,0.01412120497191905,
0.13930174563591022,0.011793944552558153,
0.13935162094763093,0.001044158986318917,
0.1394014962593516,0.03250974977266366,
0.13945137157107232,-0.004652195526630036,
0.13950124688279303,0.007106933459759675,
0.1395511221945137,0.004147447119950362,
0.13960099750623442,0.01851207207427997,
0.1396508728179551,0.016251959708286492,
0.1397007481296758,-0.001397007154878796,
0.13975062344139652,-0.01621428028345439,
0.1398004987531172,0.023910552976392684,
0.1398503740648379,0.019647822896780815,
0.1399002493765586,0.011741445123341836,
0.1399501246882793,-0.0014205684751133763,
0.14,0.03983282037918563,
0.1400498753117207,0.0059802953420106005,
0.1400997506234414,0.02040762600489773,
0.1401496259351621,0.03412121579773782,
0.1401995012468828,0.020710054182540887,
0.14024937655860348,0.01211462273872349,
0.1402992518703242,0.009615541908155533,
0.1403491271820449,0.013119491791084466,
0.14039900249376558,-0.00011101927586192745,
0.1404488778054863,0.011394084568307717,
0.14049875311720697,0.006757138086048943,
0.14054862842892768,0.010859486606576516,
0.1405985037406484,0.0029831855155492484,
0.14064837905236907,0.022809219536162707,
0.14069825436408978,0.023422333568923887,
0.14074812967581046,0.04419829341112022,
0.14079800498753117,0.029046301642314906,
0.14084788029925188,0.036931485069144496,
0.14089775561097256,0.040243914575789394,
0.14094763092269327,0.0027745612541540815,
0.14099750623441396,0.013526610300258118,
0.14104738154613466,0.004415986830263643,
0.14109725685785537,0.036368795919371956,
0.14114713216957606,0.004586829417428148,
0.14119700748129677,0.05243136316936987,
0.14124688279301745,0.023554919136012556,
0.14129675810473816,0.012357990423118286,
0.14134663341645887,0.028513951145933386,
