time,amplitude,label
0.0,-0.012232375720435416,
4.987531172069826e-05,-0.015196200119548182,
9.975062344139652e-05,0.0005630246491005395,
0.00014962593516209475,-0.04210129519953616,
0.00019950124688279303,-0.0057433626049303715,
0.00024937655860349125,-0.031226838448309736,
0.0002992518703241895,-0.017105337492087914,
0.00034912718204488776,-0.020632419049285405,
0.00039900249376558606,-0.047427729526448255,
0.0004488778054862843,-0.027721952985413717,
0.0004987531172069825,-0.005412194319598667,
0.0005486284289276808,-0.010324322430833963,
0.000598503740648379,-0.032760343207332066,
0.0006483790523690773,-0.01313951608637809,
0.0006982543640897755,-0.03658257699832806,
0.0007481296758104738,0.007885866009568709,
0.0007980049875311721,-0.025103246231176227,
0.0008478802992518703,-0.008505924558393562,
0.0008977556109725686,-0.028469624249528043,
0.0009476309226932668,-0.013545919999031597,
0.000997506234413965,-0.036423628754226646,
0.0010473815461346633,0.0011501212273992666,
0.0010972568578553616,-0.015648152387614557,
0.00114713216957606,-0.022298732244762157,
0.001197007481296758,-0.006952505326147975,
0.0012468827930174563,0.0026984218174692792,
0.0012967581047381546,-0.012368053792419053,
0.001346633416458853,-0.010682822504672129,
0.001396508728179551,0.024112145122262507,
0.0014463840399002493,-0.012538834679978735,
0.0014962593516209476,0.016051966382616405,
0.001546134663341646,-0.01490773011766576,
0.0015960099750623442,-0.030620039865098293,
0.0016458852867830423,-0.03607546664012532,
0.0016957605985037406,-0.022695024723294016,
0.001745635910224439,-0.02019142636050829,
0.0017955112219451373,-0.009937092231070815,
0.0018453865336658353,-0.013990651068669306,
0.0018952618453865336,-0.0174468533533608,
0.001945137157107232,-0.00867894176884453,
0.00199501246882793,-0.02559572943450969,
0.0020448877805486283,-0.021179588608005888,
0.0020947630922693266,0.014807400460370103,
0.002144638403990025,-0.015586100193909803,
0.0021945137157107233,-0.020559380889434722,
0.0022443890274314216,0.01590253425838435,
0.00229426433915212,-0.01424224055127233,
0.0023441396508728177,0.01212080790036145,
0.002394014962593516,0.031563753593707854,
0.0024438902743142144,-0.026095872687836225,
0.0024937655860349127,-0.0060990080014139605,
0.002543640897755611,-0.022129911745023004,
0.0025935162094763093,-0.005291515196340597,
0.0026433915211970076,0.003529453024267685,
0.002693266832917706,-0.02004192758681405,
0.002743142144638404,-0.012464202705716276,
0.002793017456359102,0.01541269741737225,
0.0028428927680798004,0.011736792056122915,
0.0028927680798004987,0.018540583232192886,
0.002942643391521197,-0.027581632188575272,
0.0029925187032418953,0.014507595993067264,
0.0030423940149625936,-0.007817527502328574,
0.003092269326683292,0.021713759508772638,
0.00314214463840399,0.007331037855611197,
0.0031920199501246885,0.020950372491924853,
0.0032418952618453864,0.004920786705482767,
0.0032917705735660847,0.001338720186057409,
0.003341645885286783,-0.001468321420979265,
0.0033915211970074813,0.006968313023670927,
0.0034413965087281796,-0.013723572095772338,
0.003491271820448878,-0.0018616234261079815,
0.003541147132169576,0.006412979194891291,
0.0035910224438902745,0.007663363392069264,
0.0036408977556109724,0.009468779985858575,
0.0036907730673316707,0.011232330919103606,
0.003740648379052369,0.02116845691405573,
0.0037905236907730673,0.00480524750733569,
0.0038403990024937656,0.015089312746079681,
0.003890274314214464,-0.0028946906281451116,
0.003940149625935162,0.032314887096087964,
0.00399002493765586,-0.004785497216445604,
0.004039900249376558,0.006910583432364708,
0.004089775561097257,0.018415381094768375,
0.004139650872817955,-0.004648198036559126,
0.004189526184538653,0.015389015369486569,
0.004239401496259352,0.0038776544252736612,
0.00428927680798005,-0.0029329524624471326,
0.004339152119700748,-0.011881700764129375,
0.0043890274314214465,0.003669523884956023,
0.004438902743142145,0.017940870332664755,
0.004488778054862843,0.0007387110093258582,
0.004538653366583541,0.0031325626102809857,
0.00458852867830424,0.02040459035623291,
0.004638403990024938,0.006604651811451567,
0.0046882793017456355,0.030908135290272212,
0.004738154613466334,-0.004702490633822104,
0.004788029925187032,0.008311854994042208,
0.00483790523690773,0.005549727211329606,
0.004887780548628429,-0.005883979756813956,
0.004937655860349127,0.014200716490473317,
0.004987531172069825,-0.008008230080424518,
0.005037406483790524,0.011664832836426269,
0.005087281795511222,0.016959155405603187,
0.00513715710723192,0.006993655746577591,
0.0051870324189526185,0.024379042808332987,
0.005236907730673317,-0.00023932782512698682,
0.005286783042394015,0.0013429506728734,
0.0053366583541147134,0.009938575479255272,
0.005386533665835412,0.013502093725378876,
0.00543640897755611,-0.011071733013698008,
0.005486284289276808,0.014565220447377219,
0.005536159600997507,-0.018369759297310342,
0.005586034912718204,-0.001875772747577175,
0.005635910224438902,0.046437780004740095,
0.005685785536159601,0.018939070872079532,
0.005735660847880299,0.0187210269829613,
0.005785536159600997,0.033246708507674666,
0.005835411471321696,0.015210618183506556,
0.005885286783042394,0.016879777633635906,
0.005935162094763092,0.01208523039721178,
0.0059850374064837905,0.04369378648704746,
0.006034912718204489,0.02808625838649074,
0.006084788029925187,0.014225229526433677,
0.0061346633416458855,0.022927334650458653,
0.006184538653366584,0.038696925057251697,
0.006234413965087282,0.031096702170412265,
0.00628428927680798,0.019472361018702054,
0.006334164588528679,0.02734266408911637,
0.006384039900249377,0.030608072308719272,
0.006433915211970074,0.015412276552792613,
0.006483790523690773,0.014639919140000523,
0.006533665835411471,0.010363604367921733,
0.006583541147132169,0.026272901807443474,
0.006633416458852868,0.0334274911378408,
0.006683291770573566,0.0055839458494240934,
0.006733167082294264,0.031223127009803862,
0.0067830423940149626,0.03241130229580805,
0.006832917705735661,0.044074139262342174,
0.006882793017456359,0.008294189849961197,
0.0069326683291770575,0.033261851086236825,
0.006982543640897756,0.021046511610388008,
0.007032418952618454,0.0005575952713123659,
0.007082294264339152,0.018587564765145507,
0.007132169576059851,0.024544444817489672,
0.007182044887780549,0.038788598165518606,
0.007231920199501247,0.04267012014944609,
0.007281795511221945,0.033718074339706805,
0.007331670822942643,0.017121750217037445,
0.007381546134663341,0.009889062211563309,
0.00743142144638404,0.021606424331175808,
0.007481296758104738,0.027444631448613373,
0.007531172069825436,0.013970119186756457,
0.007581047381546135,0.01084674518133405,
0.007630922693266833,0.02068684665478521,
0.007680798004987531,0.03475414319044612,
0.0077306733167082295,0.05248834832944764,
0.007780548628428928,0.02077239001884734,
0.007830423940149626,0.003329817197258802,
0.007880299251870324,0.0019844396386246195,
0.007930174563591023,0.03363076146673416,
0.00798004987531172,0.029600890318397098,
0.00802992518703242,-0.001967642767429525,
0.008079800498753117,0.014753333132197746,
0.008129675810473816,0.013996478246758114,
0.008179551122194513,0.018668581281273966,
0.008229426433915213,0.022570792282567555,
0.00827930174563591,0.02854018519401693,
0.00832917705735661,0.01954967434433119,
0.008379052369077307,-0.0018975369844567574,
0.008428927680798006,0.016597331371057157,
0.008478802992518703,0.020764202104313567,
0.0085286783042394,0.04625592011887683,
0.0085785536159601,0.013767706922856402,
0.008628428927680797,0.02264655483800768,
0.008678304239401496,0.024490482106294825,
0.008728179551122194,0.016795908050645396,
0.008778054862842893,0.059574469443407455,
0.00882793017456359,-0.008652823220982073,
0.00887780548628429,0.01623755647652284,
0.008927680798004987,0.021557333075133047,
0.008977556109725686,0.019965765852936582,
0.009027431421446384,0.0046343330427771525,
0.009077306733167083,-0.003625903222826441,
0.00912718204488778,0.030863440090240606,
0.00917705735660848,0.023834241171494387,
0.009226932668329177,0.005739636609000202,
0.009276807980049876,0.01927856885199493,
0.009326683291770574,0.02215031971485899,
0.009376558603491271,0.031828371704724814,
0.00942643391521197,0.013282826468302464,
0.009476309226932668,-0.00020598597601700214,
0.009526184538653367,0.02132959000941745,
0.009576059850374064,-0.001552176473212579,
0.009625935162094763,0.022543182847559615,
0.00967581047381546,0.021455016713537094,
0.00972568578553616,0.018460315197953815,
0.009775561097256857,0.023311013799967986,
0.009825436408977557,0.021978382641486403,
0.009875311720698254,-0.0019433591103493048,
0.009925187032418953,0.03266898839799465,
0.00997506234413965,0.022668268684928678,
0.01002493765586035,0.02586839294219523,
0.010074812967581047,0.024628668962531547,
0.010124688279301746,0.004119916835691757,
0.010174563591022444,0.016029460304910596,
0.010224438902743141,0.036626940745631484,
0.01027431421446384,0.019241530303493553,
0.010324189526184538,0.019110301059038742,
0.010374064837905237,0.011873987850640949,
0.010423940149625935,0.018020056028169636,
0.010473815461346634,0.018768054055734715,
0.010523690773067331,0.014432697256108315,
0.01057356608478803,-0.0028485986662386276,
0.010623441396508728,0.000635961516168267,
0.010673316708229427,0.024741087853201938,
0.010723192019950124,0.007610540870841088,
0.010773067331670824,-0.01754220445220668,
0.010822942643391521,0.01668717675509153,
0.01087281795511222,0.004464103832483558,
0.010922693266832918,0.010524753299026805,
0.010972568578553617,0.011440298868957395,
0.011022443890274314,0.03348291924454946,
0.011072319201995013,0.03108996344799239,
0.01112219451371571,0.009695344212407099,
0.011172069825436408,-0.007685480539998905,
0.011221945137157107,0.03223849081182517,
0.011271820448877805,-0.006886788107878657,
0.011321695760598504,0.018871459119286733,
0.011371571072319201,0.013326796429479813,
0.0114214463840399,0.05283487836987945,
0.011471321695760598,0.01025237573701291,
0.011521197007481297,0.02755356386261721,
0.011571072319201995,-0.004597484621839738,
0.011620947630922694,0.014494309511371425,
0.011670822942643391,-0.00012626719601852542,
0.01172069825436409,0.018667926180690495,
0.011770573566084788,0.004239564265554872,
0.011820448877805487,0.014286205651206887,
0.011870324189526184,0.013711691978365826,
0.011920199501246884,0.007181545280592862,
0.011970074812967581,0.02353064157152121,
0.012019950124688279,0.0019211041376598036,
0.012069825436408978,0.0015887932629037177,
0.012119700748129675,0.016654504133142442,
0.012169576059850374,0.015399078938067613,
0.012219451371571072,0.01393671299865655,
0.012269326683291771,0.015446209803874724,
0.012319201995012468,-0.007373172852993673,
0.012369077306733168,0.0009525528668358979,
0.012418952618453865,-0.007957753390244229,
0.012468827930174564,-0.010024365958037304,
0.012518703241895262,0.04251961745848374,
0.01256857855361596,0.002815132656624143,
0.012618453865336658,-0.01742436970381383,
0.012668329177057357,-0.0065809377188655385,
0.012718204488778055,-0.011811543246675658,
0.012768079800498754,-0.0061375794733230125,
0.012817955112219451,-0.018894236269361805,
0.012867830423940149,0.016797607848569127,
0.012917705735660848,0.01665609063607264,
0.012967581047381545,0.019256262280304477,
0.013017456359102245,0.009843292423879811,
0.013067331670822942,0.020805645166842985,
0.013117206982543641,0.015059714320777818,
0.013167082294264339,-0.020408074516970832,
0.013216957605985038,-0.0076814954401671865,
0.013266832917705735,-0.0010089852495440731,
0.013316708229426434,0.005605539227221056,
0.013366583541147132,0.009717618501938249,
0.013416458852867831,-0.0327104554272921,
0.013466334164588529,-0.005279542158907614,
0.013516209476309228,-0.002635934790731911,
0.013566084788029925,-0.003985711887615888,
0.013615960099750624,0.015009831493979843,
0.013665835411471322,-0.03023496183569432,
0.01371571072319202,0.005338896123295273,
0.013765586034912718,-0.007919543124231794,
0.013815461346633416,0.019769410407762,
0.013865336658354115,-0.02829964619609769,
0.013915211970074812,0.02965992022983533,
0.013965087281795512,0.0014283997387654983,
0.014014962593516209,0.019571968549768008,
0.014064837905236908,0.0015748919897029794,
0.014114713216957606,0.014348985773973911,
0.014164588528678305,0.003680085168183864,
0.014214463840399002,-0.018242469627627635,
0.014264339152119701,0.014639833506700395,
0.014314214463840399,0.01259519119837506,
0.014364089775561098,-0.010963166423337414,
0.014413965087281795,0.02082113886599509,
0.014463840399002495,0.00472149152687229,
0.014513715710723192,0.0022592205414733862,
0.01456359102244389,0.0005554088438025342,
0.014613466334164589,-0.008767241814659316,
0.014663341645885286,0.02279747022243917,
0.014713216957605985,0.008123666287382156,
0.014763092269326683,-0.020679878317923513,
0.014812967581047382,-0.029126620825041725,
0.01486284289276808,-0.03785421071352408,
0.014912718204488778,-0.01804491947737158,
0.014962593516209476,-0.011233677262467863,
0.015012468827930175,-0.006112148619578039,
0.015062344139650873,-0.012472443189847105,
0.015112219451371572,-0.032741986104432144,
0.01516209476309227,0.004238121318545347,
0.015211970074812968,-0.02818210399994424,
0.015261845386533666,-0.03765808256527974,
0.015311720698254365,-0.014161545257438762,
0.015361596009975062,-0.017089879033495597,
0.01541147132169576,-0.018203989454730247,
0.015461346633416459,-0.0024810376638215344,
0.015511221945137156,0.01231595898367619,
0.015561097256857856,-0.025156280553707455,
0.015610972568578553,-0.002521081009597286,
0.015660847880299252,-0.03607557019315434,
0.01571072319201995,-0.023843481983512122,
0.015760598503740647,-0.00590826277675555,
0.015810473815461346,-0.013033190188512494,
0.015860349127182045,-0.05500018824134208,
0.015910224438902745,-0.008326901183858013,
0.01596009975062344,-0.012893022617389567,
0.01600997506234414,-0.03234038236230373,
0.01605985037406484,-0.02267608166065539,
0.016109725685785538,-0.009109703366534744,
0.016159600997506234,-0.021476878421534566,
0.016209476309226933,-0.022453631131332745,
0.016259351620947632,-0.00953085616457629,
0.016309226932668328,-0.01909487131973515,
0.016359102244389027,-0.03132764759498044,
0.016408977556109726,-0.004061550892571802,
0.016458852867830425,-0.022671530402250912,
0.01650872817955112,-0.030332641375789893,
0.01655860349127182,0.00013660807476593984,
0.01660847880299252,-0.007631916233848696,
0.01665835411471322,-0.020916039712820078,
0.016708229426433914,-0.017274776775281053,
0.016758104738154613,-0.02731598925375718,
0.016807980049875312,-0.006175355494259261,
0.01685785536159601,-0.013546194556155777,
0.016907730673316707,-0.04578851417113799,
0.016957605985037406,-0.01634269449243746,
0.017007481296758106,-0.018685021015525823,
0.0170573566084788,-0.008921872037195118,
0.0171072319201995,-0.023600303280583095,
0.0171571072319202,-0.017091926106510866,
0.0172069825436409,-0.033365699074465766,
0.017256857855361595,-0.012165986604071151,
0.017306733167082294,-0.019060904513464257,
0.017356608478802993,0.009936452859508987,
0.017406483790523692,-0.02271534822853789,
0.017456359102244388,0.004321284063404561,
0.017506234413965087,-0.04050324173009044,
0.017556109725685786,-0.016169911828369663,
0.017605985037406485,-0.018062747787943218,
0.01765586034912718,-0.03376280867367769,
0.01770573566084788,-0.009155335807219635,
0.01775561097256858,0.0007869662819852824,
0.01780548628428928,-0.010311288989400983,
0.017855361596009974,-0.04202398294699529,
0.017905236907730673,-0.007115373734219868,
0.017955112219451373,0.0029033192485066785,
0.018004987531172068,-0.013531453119515677,
0.018054862842892767,0.0025314112846597167,
0.018104738154613467,-0.03575701139651985,
0.018154613466334166,-0.02386075849167999,
0.01820448877805486,-0.020680082200567305,
0.01825436408977556,-0.028598001784393492,
0.01830423940149626,-0.021563604460940022,
0.01835411471321696,-0.04175029897354578,
0.018403990024937655,-0.014926406325259545,
0.018453865336658354,-0.025993182219035505,
0.018503740648379053,-0.011716445679698345,
0.018553615960099752,-0.020831022756209787,
0.018603491271820448,0.005323531001742685,
0.018653366583541147,-0.021873053862985842,
0.018703241895261846,-0.0025505058986460757,
0.018753117206982542,0.0002413524872194421,
0.01880299251870324,-0.012042245978787895,
0.01885286783042394,-0.028205100515993675,
0.01890274314214464,-0.030561905671736635,
0.018952618453865335,-0.011991444239711605,
0.019002493765586034,-0.0238017199640998,
0.019052369077306733,-0.006276347568405725,
0.019102244389027433,-0.0015893297870682443,
0.01915211970074813,-0.03983593712807184,
0.019201995012468828,-0.024749148429919487,
0.019251870324189527,-0.017999964593366696,
0.019301745635910226,-0.018608499901576966,
0.01935162094763092,-0.027182534597921387,
0.01940149625935162,-0.027873360513880632,
0.01945137157107232,-0.04079817656711705,
0.01950124688279302,-0.030867388979294755,
0.019551122194513715,-0.007498299938892396,
0.019600997506234414,-0.015558965967123878,
0.019650872817955113,-0.006011383624191976,
0.01970074812967581,0.0010092667235239404,
0.019750623441396508,-0.007959197572924579,
0.019800498753117207,-0.02065938438135953,
0.019850374064837906,-0.01595297312062502,
0.019900249376558602,0.014690867844255814,
0.0199501246882793,-0.0391225630196693,
0.02,-0.010392219897092604,
0.0200498753117207,0.0023746193015307723,
0.020099750623441395,-0.011663179277507466,
0.020149625935162094,-0.02475729403097139,
0.020199501246882794,-0.018553335048174,
0.020249376558603493,-0.015340726747137715,
0.02029925187032419,-0.025565986295038902,
0.020349127182044888,-0.01105244099945301,
0.020399002493765587,-0.015545599505589605,
0.020448877805486283,0.0036906018717457415,
0.02049875311720698,0.003327038431322451,
0.02054862842892768,-0.017484537872913507,
0.02059850374064838,-0.01845198370185597,
0.020648379052369076,-0.006904192858540452,
0.020698254364089775,0.004507143940354324,
0.020748129675810474,-0.005173935116475199,
0.020798004987531173,-0.017552844861848358,
0.02084788029925187,-0.02577267052149549,
0.020897755610972568,-0.004293175358208091,
0.020947630922693267,-0.013547213925883851,
0.020997506234413967,-0.014179947038854817,
0.021047381546134662,-0.013043790595166993,
0.02109725685785536,-0.006812474834443937,
0.02114713216957606,-7.001789237862793e-05,
0.02119700748129676,-0.006861915608490568,
0.021246882793017455,0.021519713329518575,
0.021296758104738155,0.006936211187870725,
0.021346633416458854,-0.006798044217841233,
0.02139650872817955,-0.014592885756337399,
0.02144638403990025,-0.012983907019603948,
0.021496259351620948,-0.027587202234774393,
0.021546134663341647,-0.038953449863017534,
0.021596009975062343,0.015855637515325566,
0.021645885286783042,-0.004777639844822096,
0.02169576059850374,-0.022923539741324446,
0.02174563591022444,-0.001888877996150634,
0.021795511221945136,-0.024458982100395172,
0.021845386533665835,0.008562378596906487,
0.021895261845386534,-9.513106622271745e-05,
0.021945137157107233,-0.003126157081187603,
0.02199501246882793,0.02257097371087432,
0.02204488778054863,-0.011370713635846318,
0.022094763092269327,-0.02373926041648022,
0.022144638403990027,-0.0074989262749918595,
0.022194513715710722,-0.0025023434357835817,
0.02224438902743142,-0.006333089516108333,
0.02229426433915212,-0.011259137336383732,
0.022344139650872816,0.012520866732028346,
0.022394014962593516,0.011196838697898982,
0.022443890274314215,0.01025916914319134,
0.022493765586034914,0.0047464866875249565,
0.02254364089775561,0.020559880236138778,
0.02259351620947631,-0.015590213889748069,
0.022643391521197008,0.010715295044522167,
0.022693266832917707,0.004399108112495254,
0.022743142144638403,0.0007829028426491534,
0.022793017456359102,0.0025969292162686284,
0.0228428927680798,-0.02338151877583843,
0.0228927680798005,-0.0022518888261469226,
0.022942643391521196,-0.009577997850281548,
0.022992518703241895,-0.007243288718913651,
0.023042394014962594,-0.016970110138927293,
0.02309226932668329,-0.025282115201093778,
0.02314214463840399,-0.0024591769265726437,
0.02319201995012469,0.018113354325644718,
0.023241895261845388,-0.0005101656739117935,
0.023291770573566083,0.014802923658606585,
0.023341645885286783,-0.012714600241530722,
0.02339152119700748,0.005328719148037888,
0.02344139650872818,0.005046463526263033,
0.023491271820448877,0.010440068794245558,
0.023541147132169576,0.0022506524696857206,
0.023591022443890275,1.2522450996984603e-05,
0.023640897755610974,-0.027783396344932786,
0.02369077306733167,0.007627760778733559,
0.02374064837905237,-0.009087454839824927,
0.023790523690773068,0.04112207210174194,
0.023840399002493767,0.01804016634310398,
0.023890274314214463,0.039519371795207904,
0.023940149625935162,4.886210928688791e-05,
0.02399002493765586,0.009038496861547512,
0.024039900249376557,0.011205122117939554,
0.024089775561097256,-0.008932209156235625,
0.024139650872817955,0.01242458583187861,
0.024189526184538655,0.002124170999745336,
0.02423940149625935,0.019123801464049475,
0.02428927680798005,0.021710515551325707,
0.02433915211970075,-0.01567519646798414,
0.024389027431421448,0.027593924510529205,
0.024438902743142144,0.043997211765543824,
0.024488778054862843,0.001144998516458457,
0.024538653366583542,0.027489472207372398,
0.02458852867830424,0.0005666354189629071,
0.024638403990024937,0.05127050046586028,
0.024688279301745636,0.013947446110084853,
0.024738154613466335,-0.023586602346243345,
0.02478802992518703,0.035192408565577385,
0.02483790523690773,0.02230354408529038,
0.02488778054862843,0.031183840089368982,
0.02493765586034913,-0.011222463319798912,
0.024987531172069824,0.025367480188425773,
0.025037406483790523,0.016435381736688088,
0.025087281795511222,-0.0136918057601782,
0.02513715710723192,0.004394141354584064,
0.025187032418952617,-0.011788194877978324,
0.025236907730673316,0.01564161826921293,
0.025286783042394016,0.013187222945817636,
0.025336658354114715,0.016089220326145237,
0.02538653366583541,0.019837327098814528,
0.02543640897755611,0.017435429005302438,
0.02548628428927681,0.01829027122193301,
0.025536159600997508,0.008410714004898113,
0.025586034912718204,-0.0029041939409146338,
0.025635910224438903,0.04492669355970538,
0.025685785536159602,-0.0030632553224864585,
0.025735660847880298,0.02399126928048908,
0.025785536159600997,-0.001425339439247407,
0.025835411471321696,0.02908309639649192,
0.025885286783042395,0.004799906241394853,
0.02593516209476309,0.024744810576360382,
0.02598503740648379,0.03809021099341185,
0.02603491271820449,-0.011526954925206511,
0.02608478802992519,0.005917774674067622,
0.026134663341645884,0.04411911976999118,
0.026184538653366583,0.015501311556437745,
0.026234413965087282,0.041214735492022606,
0.02628428927680798,0.011593292164636561,
0.026334164588528677,0.018216518655283138,
0.026384039900249377,0.008082199356516842,
0.026433915211970076,0.02147833631490815,
0.02648379052369077,0.04235280620352516,
0.02653366583541147,0.029249292157249633,
0.02658354114713217,0.049471248899813636,
0.02663341645885287,0.03933072450971575,
0.026683291770573565,0.048708855463935594,
0.026733167082294264,0.017220951512271904,
0.026783042394014963,0.029487545289887694,
0.026832917705735662,0.03262209398477519,
0.026882793017456358,0.029868054508837245,
0.026932668329177057,0.013404142942146927,
0.026982543640897756,0.026713658985846725,
0.027032418952618455,0.0016375150625013712,
0.02708229426433915,0.0189569270351131,
0.02713216957605985,0.03472176787753096,
0.02718204488778055,0.0208477053381189,
0.02723192019950125,-0.0029313194130969576,
0.027281795511221944,0.02382296344847022,
0.027331670822942643,0.00721483466213786,
0.027381546134663343,0.007855621975410705,
0.02743142144638404,0.016770786769961625,
0.027481296758104738,0.030633974518477165,
0.027531172069825437,0.008578525369555692,
0.027581047381546136,-0.004482495372112556,
0.02763092269326683,-0.0005494492996494099,
0.02768079800498753,-0.00428517233220083,
0.02773067331670823,0.02433723281629522,
0.02778054862842893,0.012270984213561889,
0.027830423940149625,0.030800051365821902,
0.027880299251870324,0.004655889125659361,
0.027930174563591023,0.030913121044549435,
0.027980049875311722,-0.014364400225226528,
0.028029925187032418,0.008068091738512237,
0.028079800498753117,0.018291662230202864,
0.028129675810473816,0.016002207977166345,
0.028179551122194512,0.0339147096519153,
0.02822942643391521,0.02003541553086727,
0.02827930174563591,0.03311356196042203,
0.02832917705735661,0.02974481797213758,
0.028379052369077305,-0.0017306861482535886,
0.028428927680798004,0.012464765124124,
0.028478802992518704,0.041158490969038106,
0.028528678304239403,0.02474102404901991,
0.0285785536159601,0.029223339052263507,
0.028628428927680798,0.03211035090325605,
0.028678304239401497,0.02552768964914155,
0.028728179551122196,0.017072101038585415,
0.02877805486284289,0.026094475334805464,
0.02882793017456359,0.03760463417798529,
0.02887780548628429,0.027391665509710388,
0.02892768079800499,0.02739536838123991,
0.028977556109725685,0.016171144386010514,
0.029027431421446384,0.007413306999683759,
0.029077306733167083,0.03162422126669446,
0.02912718204488778,0.016757038618294275,
0.029177057356608478,-0.0038566432481428985,
0.029226932668329177,0.015535495325035151,
0.029276807980049877,0.017675659407975535,
0.029326683291770572,0.04388993325222827,
0.02937655860349127,0.018233650102756502,
0.02942643391521197,0.028360591178962263,
0.02947630922693267,0.05816185774657047,
0.029526184538653365,0.006122988032346276,
0.029576059850374065,0.011010177096378615,
0.029625935162094764,0.034081500525732986,
0.029675810473815463,0.01867680928652522,
0.02972568578553616,0.007314364005503535,
0.029775561097256858,0.019131837638010473,
0.029825436408977557,-0.002128374762334684,
0.029875311720698253,0.02215259610885376,
0.029925187032418952,-0.0035463544870959103,
0.02997506234413965,0.022372337708004814,
0.03002493765586035,0.03718213661131278,
0.030074812967581046,-0.008744332057376597,
0.030124688279301745,0.01753069246012591,
0.030174563591022444,-0.0005842501367325816,
0.030224438902743143,0.004797844172689667,
0.03027431421446384,0.032342483624890166,
0.03032418952618454,0.0375547467342109,
0.030374064837905237,0.03943700818902247,
0.030423940149625937,-0.005364763767926214,
0.030473815461346632,0.03981649800857735,
0.03052369077306733,0.026125818893761886,
0.03057356608478803,0.002353012263081513,
0.03062344139650873,0.0215920659224377,
0.030673316708229426,0.024349150718327914,
0.030723192019950125,0.025593658443016247,
0.030773067331670824,0.047364559355403436,
0.03082294264339152,0.019276063123228878,
0.03087281795511222,-0.0025541542490571806,
0.030922693266832918,0.03182702803864278,
0.030972568578553617,0.012454823353717491,
0.031022443890274313,0.02206631572822115,
0.031072319201995012,0.0422039076986092,
0.03112219451371571,0.008386679201472805,
0.03117206982543641,0.009522067763014353,
0.031221945137157106,0.004976475418565392,
0.03127182044887781,0.028480428435777052,
0.031321695760598504,0.00039236607551458406,
0.0313715710723192,-0.010209440036136169,
0.0314214463840399,0.007652280368962911,
0.0314713216957606,0.0054750844052506254,
0.031521197007481294,0.012380688644908803,
0.031571072319202,0.01970890265714417,
0.03162094763092269,0.0028660184096222143,
0.03167082294264339,0.01027067350590743,
0.03172069825436409,0.014760734275065784,
0.03177057356608479,0.011346090975293186,
0.03182044887780549,0.015346166850985322,
0.031870324189526185,0.011992547531550938,
0.03192019950124688,0.03433020585542827,
0.03197007481296758,0.01770826725307153,
0.03201995012468828,-0.013390318269880536,
0.032069825436408975,-0.017528923913760684,
0.03211970074812968,-0.021681765420305917,
0.03216957605985037,0.0014378845571081118,
0.032219451371571076,0.01394661660017681,
0.03226932668329177,-0.00567612513181784,
0.03231920199501247,0.006646083259489688,
0.03236907730673317,-0.013966803771482334,
0.032418952618453865,-0.020288598605957678,
0.03246882793017456,0.015114883736860096,
0.032518703241895264,0.0013550461775958759,
0.03256857855361596,-0.017740989766173283,
0.032618453865336655,-0.015197357216252627,
0.03266832917705736,0.016583308082537683,
0.032718204488778053,0.014781078332010186,
0.032768079800498756,-0.01075313379519581,
0.03281795511221945,-0.01591568359373206,
0.03286783042394015,-0.009213116574003305,
0.03291770573566085,0.01563026175300261,
0.032967581047381546,0.016080080234608322,
0.03301745635910224,-0.028701525930726085,
0.033067331670822944,0.0003525426466224357,
0.03311720698254364,-0.02576856661531265,
0.03316708229426434,-0.0021870271732119845,
0.03321695760598504,-0.011997199487587026,
0.033266832917705734,0.0017937670021193313,
0.03331670822942644,0.004719133218137487,
0.03336658354114713,-0.0038234292829272664,
0.03341645885286783,0.005806005626683944,
0.03346633416458853,-0.003311600357352523,
0.033516209476309226,-0.03031221972146842,
0.03356608478802992,-0.013272396107534272,
0.033615960099750625,-0.014785380065598952,
0.03366583541147132,-0.012796983664048748,
0.03371571072319202,0.01880113154799735,
0.03376558603491272,-0.007513352339634948,
0.033815461346633414,-0.014168553188770137,
0.03386533665835412,-0.014390247302475772,
0.03391521197007481,0.0026713509278011452,
0.03396508728179551,0.015487167428464973,
0.03401496259351621,-0.013305966114812879,
0.03406483790523691,-0.0036248650932999508,
0.0341147132169576,-0.013144548785174848,
0.034164588528678305,-0.0212845235400442,
0.034214463840399,-0.040009485147891564,
0.034264339152119704,-0.01729581119052894,
0.0343142144638404,-0.017371778979252323,
0.034364089775561095,0.01509302360528857,
0.0344139650872818,0.008503135598513626,
0.03446384039900249,-0.009371024068679306,
0.03451371571072319,0.0019033983927999347,
0.03456359102244389,-0.003831154300262965,
0.03461346633416459,-0.0245257805680104,
0.03466334164588529,-0.02761693332555381,
0.034713216957605986,0.025830464767325895,
0.03476309226932668,0.00030602347716010645,
0.034812967581047384,0.010463862924334386,
0.03486284289276808,0.007625932647181108,
0.034912718204488775,0.014943820989545949,
0.03496259351620948,-0.004883239408677792,
0.035012468827930174,-0.017743838936532905,
0.03506234413965087,-0.0004070944815255991,
0.03511221945137157,0.005743395368354618,
0.03516209476309227,-0.014058369062935176,
0.03521197007481297,-0.005118478834513606,
0.035261845386533666,-0.03127685687756587,
0.03531172069825436,-0.023829195852828756,
0.035361596009975065,-0.019284852531936538,
0.03541147132169576,-0.03727697559706611,
0.035461346633416456,0.011811815437175733,
0.03551122194513716,-0.005916532239484194,
0.035561097256857854,0.0063610017922889495,
0.03561097256857856,-0.017125986820975887,
0.03566084788029925,-0.023242643551081493,
0.03571072319201995,-0.029058645280017253,
0.03576059850374065,-0.007546082935178897,
0.03581047381546135,-0.03313157438989521,
0.03586034912718204,-0.01490445293247523,
0.035910224438902745,-0.002613991189025793,
0.03596009975062344,0.01018155146991098,
0.036009975062344136,-0.017936214113449644,
0.03605985037406484,0.00023551229647343977,
0.036109725685785535,-0.014079508793173486,
0.03615960099750624,-0.006928081929381105,
0.03620947630922693,-0.00927052421509031,
0.03625935162094763,-0.031825017456874986,
0.03630922693266833,-0.037107977883367234,
0.03635910224438903,-0.007944103981199671,
0.03640897755610972,-0.020651462236310758,
0.036458852867830426,-0.01136488730754015,
0.03650872817955112,-0.0020885814658466745,
0.036558603491271824,0.007344729020057481,
0.03660847880299252,-0.03464271221143375,
0.036658354114713215,-0.004698202353170379,
0.03670822942643392,-0.02462399568297501,
0.036758104738154614,-0.023989939588139816,
0.03680798004987531,0.0009738336420685757,
0.03685785536159601,-0.014050327237172224,
0.03690773067331671,-0.024095711050778422,
0.0369576059850374,-0.0038725549604313875,
0.037007481296758106,-0.026316949708430872,
0.0370573566084788,0.009882095011785164,
0.037107231920199504,-0.01315969042458841,
0.0371571072319202,-0.015888209621782213,
0.037206982543640896,-0.003453906280390327,
0.0372568578553616,-0.005512946288000406,
0.037306733167082294,-0.004241336558870186,
0.03735660847880299,-0.021382314999561745,
0.03740648379052369,-0.03418576009398194,
0.03745635910224439,-0.021689905099081138,
0.037506234413965084,-0.002682953481454954,
0.037556109725685786,-0.01885080000873962,
0.03760598503740648,-0.005398562880602531,
0.037655860349127185,-0.01386671601964443,
0.03770573566084788,-0.02256971407129172,
0.037755610972568576,-0.0035537676190307635,
0.03780548628428928,-0.011421481583386267,
0.037855361596009975,-0.011563927045873435,
0.03790523690773067,-0.030040790748734218,
0.03795511221945137,-0.022190836897555286,
0.03800498753117207,-0.017341686953690656,
0.03805486284289277,-0.01821131308086557,
0.03810473815461347,-0.030537743169498553,
0.03815461346633416,-0.013184731039508431,
0.038204488778054865,-0.020333316767371348,
0.03825436408977556,-0.030060104815295922,
0.03830423940149626,-0.005672246569207383,
0.03835411471321696,-0.01698260166513531,
0.038403990024937655,-0.05279688881785259,
0.03845386533665835,-0.05266286287765505,
0.03850374064837905,-0.027958166682107554,
0.03855361596009975,-0.015204164046400287,
0.03860349127182045,-0.015490009230101633,
0.03865336658354115,-0.039423078358717306,
0.03870324189526184,-0.0073701349975584095,
0.038753117206982546,-0.02064285391084007,
0.03880299251870324,-0.026875710315989773,
0.03885286783042394,-0.015355924050676,
0.03890274314214464,-0.01880745446434572,
0.038952618453865336,-0.0031255781736333425,
0.03900249376558604,-0.017541712609304993,
0.039052369077306734,-0.003948201870631303,
0.03910224438902743,-0.011724366557831867,
0.03915211970074813,-0.01365563746398804,
0.03920199501246883,-0.030776557702125715,
0.039251870324189524,-0.008809634795437275,
0.039301745635910226,-0.03677932776971825,
0.03935162094763092,-0.015472150115461871,
0.03940149625935162,0.018039612691083524,
0.03945137157107232,-0.031066775498826686,
0.039501246882793016,0.010409288147771064,
0.03955112219451372,0.011287161609698237,
0.039600997506234414,-0.01164938366485942,
0.03965087281795511,-0.00911897700174747,
0.03970074812967581,-0.024185470193102476,
0.03975062344139651,0.003285392635791905,
0.039800498753117204,-0.018199110586905053,
0.03985037406483791,0.01133420434383136,
0.0399002493765586,0.021223641122739896,
0.039950124688279305,-0.013291206224698485,
0.04,-0.030203718112554664,
0.0400498753117207,-0.016301186330609146,
0.0400997506234414,-0.006863149438997442,
0.040149625935162095,-0.03245811540747123,
0.04019950124688279,-0.03095790858005791,
0.04024937655860349,-0.03246988514120909,
0.04029925187032419,-0.00936683989939754,
0.040349127182044885,-0.0374497560463663,
0.04039900249376559,-0.005266079274188055,
0.04044887780548628,-0.007759749644788412,
0.040498753117206986,-0.03578936579591284,
0.04054862842892768,-0.02427009739227938,
0.04059850374064838,-0.01575484853330044,
0.04064837905236908,-0.017000812664186366,
0.040698254364089775,0.021327210247735914,
0.04074812967581047,0.011405126972713807,
0.040798004987531174,-0.024682262415920496,
0.04084788029925187,-0.017847435094013327,
0.040897755610972565,-0.021471693617423484,
0.04094763092269327,-0.013034829717762595,
0.04099750623441396,-0.025378056342514943,
0.041047381546134666,-0.02524621468553427,
0.04109725685785536,-0.00953483833944006,
0.04114713216957606,-0.0057775449813965265,
0.04119700748129676,0.004678700889998428,
0.041246882793017456,-0.02870698782779868,
0.04129675810473815,-0.03012324149537344,
0.041346633416458854,-0.024810060738054092,
0.04139650872817955,-0.017724672556483217,
0.04144638403990025,0.005195579832910907,
0.04149625935162095,-0.005472882675092912,
0.041546134663341644,0.006203317743906503,
0.04159600997506235,0.01702474890172715,
0.04164588528678304,-0.02666146217755571,
0.04169576059850374,-0.008288759498069564,
0.04174563591022444,0.007566944696471598,
0.041795511221945136,-0.02284653901176051,
0.04184538653366583,0.020494636031048057,
0.041895261845386535,-0.0003467735542670462,
0.04194513715710723,0.02597904544775342,
0.04199501246882793,-0.007571784309999134,
0.04204488778054863,-0.001758376080819717,
0.042094763092269324,0.0017491312524712597,
0.04214463840399003,0.01731181748424319,
0.04219451371571072,-0.015206361678828516,
0.04224438902743142,-0.0030604023286829557,
0.04229426433915212,-0.03638373942593919,
0.04234413965087282,0.0017884561946589733,
0.04239401496259352,-0.036081220033539495,
0.042443890274314215,-0.002093483727597178,
0.04249376558603491,0.011675730873774626,
0.042543640897755614,-0.0020685854042081005,
0.04259351620947631,-0.0041837951273594525,
0.042643391521197005,0.004461241736521135,
0.04269326683291771,-0.015366881926221645,
0.0427431421446384,-0.02147227871272242,
0.0427930174563591,0.0013602655704587983,
0.0428428927680798,0.006750170928577798,
0.0428927680798005,0.0037929572687970766,
0.0429426433915212,-0.004018316779759381,
0.042992518703241896,-0.0011517875975630403,
0.04304239401496259,0.008144229283893238,
0.043092269326683294,0.014550954058942614,
0.04314214463840399,0.01698084192706566,
0.043192019950124685,0.02120642504575275,
0.04324189526184539,-0.012678576851144385,
0.043291770573566084,-0.00419204333432512,
0.043341645885286786,-0.0014096209884146907,
0.04339152119700748,-0.004416513406588723,
0.04344139650872818,0.006872878830716453,
0.04349127182044888,-0.028809574493616638,
0.043541147132169576,-0.015691687752446115,
0.04359102244389027,-0.013179431275399962,
0.043640897755610975,0.019674686089625956,
0.04369077306733167,-0.006090066994682049,
0.043740648379052366,-0.0014331323711153253,
0.04379052369077307,0.008495712720806457,
0.043840399002493764,-0.004133640009559361,
0.04389027431421447,0.019941452565572643,
0.04394014962593516,-0.025040135677563143,
0.04399002493765586,0.03252597583963487,
0.04403990024937656,0.012533104904114837,
0.04408977556109726,-0.009808804307301707,
0.04413965087281795,0.010970526780975043,
0.044189526184538655,0.013939576540268008,
0.04423940149625935,0.0157846144782578,
0.04428927680798005,-0.00010157318204247201,
0.04433915211970075,0.007348807684559938,
0.044389027431421445,0.014569354902444806,
0.04443890274314215,-0.009363055506275909,
0.04448877805486284,0.007052970972122321,
0.04453865336658354,0.014655767968422037,
0.04458852867830424,0.03973977633484824,
0.04463840399002494,0.01554748078152822,
0.04468827930174563,0.012949512484931116,
0.044738154613466335,0.024181829318994687,
0.04478802992518703,0.02942278077800708,
0.044837905236907734,0.0057791525139637935,
0.04488778054862843,0.013759618736893572,
0.044937655860349125,0.05264609673465778,
0.04498753117206983,0.0010375044635760645,
0.045037406483790524,0.012382972516985448,
0.04508728179551122,0.02144714465817936,
0.04513715710723192,0.0020289042480906745,
0.04518703241895262,0.004726222911812326,
0.04523690773067331,0.02755981292472609,
0.045286783042394016,-0.004297178423303799,
0.04533665835411471,0.04097707365441714,
0.045386533665835414,0.012569384623830743,
0.04543640897755611,-0.014148822453162287,
0.045486284289276806,0.026536246925249668,
0.04553615960099751,0.02062551845269811,
0.045586034912718204,0.04308009303955179,
0.0456359102244389,-0.00013256575118281502,
0.0456857855361596,0.041588625214740646,
0.0457356608478803,0.006155757102318743,
0.045785536159601,0.012067959745899637,
0.045835411471321696,0.002436153863088368,
0.04588528678304239,0.007199420858049858,
0.045935162094763095,0.02289774401136511,
0.04598503740648379,-0.014041643801659964,
0.046034912718204486,0.02636274259146505,
0.04608478802992519,0.022686702698225574,
0.046134663341645885,0.035446956784887095,
0.04618453865336658,0.006654585065896926,
0.04623441396508728,0.0018038698839045117,
0.04628428927680798,0.0016209535768750248,
0.04633416458852868,0.020050071871609655,
0.04638403990024938,0.04565794164093409,
0.04643391521197007,0.030386152881930903,
0.046483790523690775,0.025384239338468288,
0.04653366583541147,0.019943985476294675,
0.04658354114713217,0.01454696024703454,
0.04663341645885287,0.03628023694868927,
0.046683291770573565,0.055032802213124565,
0.04673316708229427,0.015258326016672742,
0.04678304239401496,0.022475690295508964,
0.04683291770573566,0.008724280829413428,
0.04688279301745636,0.0407897486130274,
0.04693266832917706,0.0431058181582606,
0.04698254364089775,0.01988046163738132,
0.047032418952618456,0.020466157918829275,
0.04708229426433915,0.02208742402949551,
0.04713216957605985,0.041108392200473576,
0.04718204488778055,0.014726432379268566,
0.047231920199501246,0.023552817863309133,
0.04728179551122195,0.023857507644851814,
0.047331670822942644,-0.027036566597290906,
0.04738154613466334,0.010818917705381707,
0.04743142144638404,0.027134358806544835,
0.04748129675810474,0.044414711470345605,
0.047531172069825434,0.03240735437148329,
0.047581047381546136,0.028237913467179535,
0.04763092269326683,0.0026100886600426768,
0.047680798004987535,0.01897822244659072,
0.04773067331670823,0.048358847450134766,
0.047780548628428926,0.023801431154370428,
0.04783042394014963,0.008020632019053602,
0.047880299251870324,0.06482542963406306,
0.04793017456359102,0.025159034538910705,
0.04798004987531172,0.03152550571949183,
0.04802992518703242,0.025696827190349776,
0.048079800498753114,0.0446632372581917,
0.04812967581047382,0.005773361635556192,
0.04817955112219451,0.019950381854206167,
0.048229426433915215,0.03015459055280438,
0.04827930174563591,0.029389872944252462,
0.048329177057356607,0.03303883458378781,
0.04837905236907731,0.02299323177224071,
0.048428927680798005,0.02244477863569609,
0.0484788029925187,0.020963617498247603,
0.0485286783042394,0.011082869740144167,
0.0485785536159601,0.019418244710434053,
0.048628428927680795,0.013873544723244759,
0.0486783042394015,0.020068933831298694,
0.04872817955112219,0.03533513742877789,
0.048778054862842896,0.020267856631765425,
0.04882793017456359,0.02634919446205151,
0.04887780548628429,0.022009470816333778,
0.04892768079800499,0.008174389262584153,
0.048977556109725685,0.00980381004631907,
0.04902743142144638,0.03669936658869195,
0.049077306733167084,0.011100574087842898,
0.04912718204488778,0.023922209469159753,
0.04917705735660848,0.03189855255526576,
0.04922693266832918,0.03420467279473871,
0.04927680798004987,0.02109426257415214,
0.049326683291770576,0.04815267778373,
0.04937655860349127,0.019942170218645233,
0.04942643391521197,0.017240671382676816,
0.04947630922693267,0.03860967912213472,
0.049526184538653366,0.0272344003899727,
0.04957605985037406,0.02995467500339094,
0.049625935162094764,0.014986463325397405,
0.04967581047381546,0.012216873832498363,
0.04972568578553616,0.017554023773838683,
0.04977556109725686,0.01139206657171411,
0.049825436408977554,-0.0030067902006624125,
0.04987531172069826,0.017930503001250667,
0.04992518703241895,0.008896966809237133,
0.04997506234413965,0.053669485297956364,
0.05002493765586035,0.030958125916852187,
0.050074812967581046,0.02657508042667229,
0.05012468827930175,-0.01049737346776963,
0.050174563591022445,0.027601541329095244,
0.05022443890274314,0.006497902622775277,
0.05027431421446384,0.04875800294926676,
0.05032418952618454,0.013369403343038357,
0.050374064837905234,0.037961878642219914,
0.05042394014962594,0.004242975233811085,
0.05047381546134663,0.041936590739813526,
0.05052369077306733,0.004358367331650251,
0.05057356608478803,0.011955695309203408,
0.05062344139650873,0.01993168432644498,
0.05067331670822943,0.03905490661230657,
0.050723192019950125,0.021758199763703596,
0.05077306733167082,0.013020490370750742,
0.050822942643391524,0.058181227749387,
0.05087281795511222,-0.004280131406753752,
0.050922693266832915,0.046987133538298455,
0.05097256857855362,0.0036132165235004225,
0.05102244389027431,0.024471994751795824,
0.051072319201995016,0.02307762253527505,
0.05112219451371571,0.02314414050889356,
0.05117206982543641,0.009837290650570107,
0.05122194513715711,0.041041075889096834,
0.051271820448877806,0.011258005718931503,
0.0513216957605985,0.0014321013340105621,
0.051371571072319204,-0.0041755649296837845,
0.0514214463840399,0.01538092425020417,
0.051471321695760595,0.0109653944725841,
0.0515211970074813,0.023093832615873867,
0.051571072319201994,0.004364375265216285,
0.051620947630922696,0.05262246458485199,
0.05167082294264339,0.00392319885857652,
0.05172069825436409,0.0031558886657895666,
0.05177057356608479,0.02431027368884936,
0.051820448877805486,0.014279707439652178,
0.05187032418952618,0.01245239428618198,
0.051920199501246884,0.026500842146693748,
0.05197007481296758,-0.00357835764213299,
0.052019950124688276,0.04248205719772688,
0.05206982543640898,-0.006714515282535333,
0.052119700748129674,0.0033054807512385527,
0.05216957605985038,0.012677724602372856,
0.05221945137157107,0.020917168008006325,
0.05226932668329177,-0.007865237134228951,
0.05231920199501247,-0.022076850583680717,
0.05236907730673317,0.0257757403744318,
0.05241895261845386,-0.004082016464242914,
0.052468827930174565,0.006481918379337982,
0.05251870324189526,-0.0080621673058171,
0.05256857855361596,0.006368579871812455,
0.05261845386533666,-0.003444604743043452,
0.052668329177057355,-0.0049092132981856575,
0.05271820448877806,0.019074317326081683,
0.05276807980049875,0.00492232731897555,
0.05281795511221945,0.0065994143386686,
0.05286783042394015,-0.0018416971994492676,
0.05291770573566085,0.01324571827947457,
0.05296758104738154,0.01649701496957601,
0.053017456359102245,-0.010732987471049851,
0.05306733167082294,-0.004766675530039101,
0.053117206982543644,0.02745652120015996,
0.05316708229426434,0.005366202545710888,
0.053216957605985035,0.008259898896408678,
0.05326683291770574,0.029262613700567132,
0.053316708229426434,0.01271246297092421,
0.05336658354114713,-0.0023824190238922903,
0.05341645885286783,3.1620679204757106e-05,
0.05346633416458853,-0.013957239092995951,
0.05351620947630923,-0.006437765610569989,
0.053566084788029926,-0.0011308657020295942,
0.05361596009975062,-0.01295109344594208,
0.053665835411471324,0.0034156685390526313,
0.05371571072319202,0.01859368373204135,
0.053765586034912716,-0.029589431166257032,
0.05381546134663342,0.023561667648247023,
0.053865336658354114,0.0171834298606821,
0.05391521197007481,-0.018987788168706728,
0.05396508728179551,-0.010805969223321676,
0.05401496259351621,-0.0046837106977294036,
0.05406483790523691,-0.017936952938349553,
0.054114713216957606,0.010098919977039308,
0.0541645885286783,-0.0017209177327131887,
0.054214463840399005,0.0056857713570543054,
0.0542643391521197,-0.01752302042522748,
0.054314214463840396,0.010279344969861944,
0.0543640897755611,-0.03227903319425668,
0.054413965087281795,-0.020842044566546293,
0.0544638403990025,-0.01660994681450089,
0.05451371571072319,0.010339796437205236,
0.05456359102244389,0.015280952596475932,
0.05461346633416459,-0.013723773089937961,
0.05466334164588529,-0.0051107383344358515,
0.05471321695760598,-0.01645507902841731,
0.054763092269326685,-0.04569070214001086,
0.05481296758104738,0.005936074120287351,
0.05486284289276808,-0.0019482799795878872,
0.05491271820448878,0.0010388733875287565,
0.054962593516209475,0.023355701552853096,
0.05501246882793018,-0.027658399165336044,
0.05506234413965087,-0.01834773130147508,
0.05511221945137157,-0.02575771106435097,
0.05516209476309227,0.003997646704716548,
0.05521197007481297,-0.010375462036034733,
0.05526184538653366,-0.025277703226699727,
0.055311720698254366,-0.024188339628573755,
0.05536159600997506,0.006908444793475261,
0.05541147132169576,-0.018055257443646423,
0.05546134663341646,-0.010160796668923743,
0.055511221945137156,-0.008814584417419846,
0.05556109725685786,0.007815677999476803,
0.055610972568578554,-0.022235612839718186,
0.05566084788029925,-0.009873128545722112,
0.05571072319201995,-0.04658671622325731,
0.05576059850374065,-0.033262183914064054,
0.055810473815461344,0.005105779358713015,
0.055860349127182046,0.01574152232714433,
0.05591022443890274,0.007661915402980222,
0.055960099750623445,-0.02083368687952219,
0.05600997506234414,-0.016571706711570107,
0.056059850374064836,-0.016978352572775603,
0.05610972568578554,-0.02230830862719443,
0.056159600997506234,-0.009124221851852085,
0.05620947630922693,-0.00360608061253867,
0.05625935162094763,-0.009917662111735037,
0.05630922693266833,-0.027923597750049153,
0.056359102244389024,-0.001205164403342814,
0.05640897755610973,-0.03694932203871295,
0.05645885286783042,-0.0073776648982962845,
0.056508728179551125,-0.018598889003838028,
0.05655860349127182,-0.02134697046051769,
0.056608478802992516,0.01260053938372783,
0.05665835411471322,-0.006874556963195839,
0.056708229426433915,0.015578093108332509,
0.05675810473815461,0.011118029091230499,
0.05680798004987531,-0.018808596396916108,
0.05685785536159601,-0.005398791435415145,
0.05690773067331671,-0.03510865764514265,
0.05695760598503741,-0.0077980113295321426,
0.0570074812967581,-0.002308069752195406,
0.057057356608478806,-0.006118938841535191,
0.0571072319201995,-0.00452758170053613,
0.0571571072319202,-0.023789998887532193,
0.0572069825436409,-0.014482058373165447,
0.057256857855361595,0.023582179602029813,
0.05730673316708229,0.012685501873025955,
0.057356608478802994,0.00034526373832729357,
0.05740648379052369,-0.005518535964863087,
0.05745635910224439,0.0015926330944098857,
0.05750623441396509,-0.02770064424200463,
0.05755610972568578,-0.010029152973750123,
0.057605985037406486,-0.023849903612745936,
0.05765586034912718,-0.026293213419583104,
0.05770573566084788,-0.012724459680272441,
0.05775561097256858,-0.003791868338610104,
0.057805486284289276,-0.006399626772076101,
0.05785536159600998,-0.03710688495167005,
0.057905236907730674,-0.04077292556435991,
0.05795511221945137,-0.019740531996355396,
0.05800498753117207,-0.03022458598431002,
0.05805486284289277,-0.0006837330529053179,
0.058104738154613464,-0.020847236020725912,
0.05815461346633417,-0.035327496877323096,
0.05820448877805486,-0.028270152668591033,
0.05825436408977556,-0.015729143802584094,
0.05830423940149626,-0.015553574266974476,
0.058354114713216956,-0.008999205509990376,
0.05840399002493766,-0.004036645764491659,
0.058453865336658355,-0.0022722735064102627,
0.05850374064837905,-0.0020058553066440547,
0.05855361596009975,-0.03712136029065034,
0.05860349127182045,0.0019027993599042455,
0.058653366583541144,-0.011219401412504774,
0.05870324189526185,0.005164819809860898,
0.05875311720698254,-0.007044687975153795,
0.05880299251870324,-0.022511294408513776,
0.05885286783042394,-0.009584442743725313,
0.05890274314214464,-0.04916933461028342,
0.05895261845386534,-0.024336390236109236,
0.059002493765586035,-0.017174852012605032,
0.05905236907730673,-0.023270242576570163,
0.059102244389027433,-0.020580669481313475,
0.05915211970074813,-0.014905067494556553,
0.059201995012468825,-0.023738800457241353,
0.05925187032418953,-0.04793915668034712,
0.05930174563591022,-0.015135968286552648,
0.059351620947630926,-0.010735959202039035,
0.05940149625935162,-0.03638738739203927,
0.05945137157107232,-0.03415400060578544,
0.05950124688279302,-0.05193354603607395,
0.059551122194513716,-0.03925203678670963,
0.05960099750623441,-0.03405879791151009,
0.059650872817955114,-0.012546823498599523,
0.05970074812967581,-0.022418471474218785,
0.059750623441396505,-0.00709102423213061,
0.05980049875311721,0.014112706140875038,
0.059850374064837904,-0.02799115718694639,
0.059900249376558606,-0.0061785123504703105,
0.0599501246882793,-0.007278784271480061,
0.06,-0.02056846834778186,
0.0600498753117207,0.0028609158620429218,
0.060099750623441396,0.011448679828305386,
0.06014962593516209,0.0019803229023959736,
0.060199501246882794,-0.05584465257892157,
0.06024937655860349,-0.02186484216956426,
0.06029925187032419,-0.007419687978742345,
0.06034912718204489,-0.012127551379084257,
0.060399002493765584,-0.026255905743389003,
0.06044887780548629,-0.02086925104775625,
0.06049875311720698,0.008761359212491967,
0.06054862842892768,-0.0021303921417711175,
0.06059850374064838,-0.008297953319992866,
0.06064837905236908,-0.014780319485846478,
0.06069825436408977,-0.034842556324987464,
0.060748129675810475,-0.016070930734061295,
0.06079800498753117,-0.0009451585116358741,
0.06084788029925187,0.0111697027303657,
0.06089775561097257,-0.01209619305317633,
0.060947630922693265,0.03485924364561459,
0.06099750623441397,-0.008945467848433688,
0.06104738154613466,-0.02549932070343125,
0.06109725685785536,0.026555286460083524,
0.06114713216957606,-0.0013354684329343006,
0.06119700748129676,-0.007568182992995075,
0.06124688279301746,-0.003398422321993754,
0.061296758104738155,0.003074692595112969,
0.06134663341645885,-0.02447876876659113,
0.061396508728179554,-0.028261209094061893,
0.06144638403990025,0.016968622144997975,
0.061496259351620945,-0.006141958153822129,
0.06154613466334165,-0.0033992768146587633,
0.061596009975062344,0.013366956251351817,
0.06164588528678304,0.005559457487377772,
0.06169576059850374,-0.017476133620427194,
0.06174563591022444,0.0025728416424864063,
0.06179551122194514,-0.01657256015956262,
0.061845386533665836,-0.016623803523005853,
0.06189526184538653,-0.012457674390204133,
0.061945137157107234,-0.005636762417694327,
0.06199501246882793,-0.013167753186938122,
0.062044887780548626,0.007130334280834703,
0.06209476309226933,-0.022744465940386562,
0.062144638403990024,-0.0004972153728146744,
0.06219451371571072,0.00812006245688918,
0.06224438902743142,0.014128844348213914,
0.06229426433915212,-0.030951915926732795,
0.06234413965087282,0.0067217942696134085,
0.062394014962593516,0.013189896612983788,
0.06244389027431421,0.0018350487826252597,
0.062493765586034915,-0.008134349411540755,
0.06254364089775562,0.01484875192432969,
0.06259351620947631,0.009166533674232775,
0.06264339152119701,0.029491366383714492,
0.0626932668329177,0.013338371832005574,
0.0627431421446384,0.007809284935787145,
0.0627930174563591,-0.0005658874097545477,
0.0628428927680798,0.02027957062362505,
0.0628927680798005,0.005382315195833697,
0.0629426433915212,0.011586399949582507,
0.06299251870324189,0.004970399241658328,
0.06304239401496259,-0.002373467696723114,
0.0630922693266833,0.025887934882755627,
0.063142144638404,0.02687599318306258,
0.06319201995012469,-0.006383084241897595,
0.06324189526184539,0.029231277321035986,
0.06329177057356608,0.015561240749773797,
0.06334164588528678,-0.004189414758568011,
0.06339152119700749,-0.026096163925431445,
0.06344139650872818,-0.007425482407687952,
0.06349127182044888,0.012347464118394968,
0.06354114713216957,0.012933446874081479,
0.06359102244389027,-0.0019397634690745073,
0.06364089775561098,-0.00023767657127651397,
0.06369077306733167,-0.011142967217688302,
0.06374064837905237,0.01672622646469805,
0.06379052369077307,0.01417840686945102,
0.06384039900249376,0.019892803003684262,
0.06389027431421446,0.043343039005124,
0.06394014962593517,-0.006432348379312818,
0.06399002493765586,0.024041099017332725,
0.06403990024937656,0.007805418414391026,
0.06408977556109725,-0.00936402720610203,
0.06413965087281795,0.0028059926743063436,
0.06418952618453866,-0.011969536636623023,
0.06423940149625935,0.0005611509559846142,
0.06428927680798005,0.012353081388857932,
0.06433915211970075,0.016817753129745913,
0.06438902743142144,-0.012600380387871616,
0.06443890274314215,0.03640361321737229,
0.06448877805486285,0.008652888356532813,
0.06453865336658354,-0.0023759797196432793,
0.06458852867830424,0.03321670211419013,
0.06463840399002493,0.02557977522697022,
0.06468827930174563,0.0031035502450259857,
0.06473815461346634,0.004980504414276561,
0.06478802992518704,0.009830332345744972,
0.06483790523690773,0.02657430602043011,
0.06488778054862843,0.01850768064905694,
0.06493765586034912,0.05707202025670441,
0.06498753117206983,0.016965424013949598,
0.06503740648379053,0.042507608264734,
0.06508728179551122,0.0037027435102008847,
0.06513715710723192,0.004781304305547346,
0.06518703241895261,0.01932176655922441,
0.06523690773067331,0.0496770997832384,
0.06528678304239402,0.007316137946079439,
0.06533665835411472,0.027799844928032003,
0.06538653366583541,0.018307785791299595,
0.06543640897755611,0.02932783169038787,
0.0654862842892768,0.006625631051628458,
0.06553615960099751,0.010140574653634589,
0.06558603491271821,0.009210289574236669,
0.0656359102244389,0.04672372729145236,
0.0656857855361596,0.008873569434105685,
0.0657356608478803,-0.005969305744134606,
0.06578553615960099,0.022530232938348577,
0.0658354114713217,-0.0017397107061568745,
0.0658852867830424,0.020434275064915314,
0.06593516209476309,0.047072753802397976,
0.06598503740648379,-0.004311739245358836,
0.06603491271820448,0.008539843885803804,
0.06608478802992519,0.003842884055545802,
0.06613466334164589,0.02617609139528178,
0.06618453865336658,0.017165229420857315,
0.06623441396508728,0.007838065552839502,
0.06628428927680798,0.01577798893900357,
0.06633416458852869,0.024462049760807382,
0.06638403990024938,-0.006039134599809384,
0.06643391521197008,0.010391391132057991,
0.06648379052369077,0.0134010660133615,
0.06653366583541147,0.05373914792448805,
0.06658354114713216,0.02160464386750434,
0.06663341645885287,0.030563691218079315,
0.06668329177057357,0.00944372453113824,
0.06673316708229426,0.025007327551335994,
0.06678304239401496,0.003203981443387599,
0.06683291770573566,0.020673329390599633,
0.06688279301745637,0.041019190280623966,
0.06693266832917706,0.0379420966012116,
0.06698254364089776,0.026133529615928432,
0.06703241895261845,0.013960898348818904,
0.06708229426433915,0.02097344964659201,
0.06713216957605984,0.019090192861478575,
0.06718204488778055,0.02454212667614566,
0.06723192019950125,0.012308745427553162,
0.06728179551122195,0.030300442957385577,
0.06733167082294264,0.015484863079623644,
0.06738154613466334,0.05973718025314578,
0.06743142144638405,0.0378806164056813,
0.06748129675810474,0.04340482124644233,
0.06753117206982544,0.03077755718283609,
0.06758104738154613,0.02248403661091372,
0.06763092269326683,0.030919986159661385,
0.06768079800498752,0.028016997512752197,
0.06773067331670823,0.03164820054633648,
0.06778054862842893,0.018469371605345977,
0.06783042394014963,0.03617436558710463,
0.06788029925187032,0.030276924994197395,
0.06793017456359102,0.043976163446883584,
0.06798004987531173,0.024533036632740313,
0.06802992518703242,0.007690240585313854,
0.06807980049875312,0.03345797735571103,
0.06812967581047381,0.038293748446349946,
0.06817955112219451,-0.013566331017981725,
0.0682294264339152,0.01241741825849296,
0.06827930174563591,0.029682379546341862,
0.06832917705735661,0.02092133332995369,
0.0683790523690773,0.030844784611857995,
0.068428927680798,0.01317025047795805,
0.0684788029925187,0.0239241976167694,
0.06852867830423941,0.040004107821575596,
0.0685785536159601,0.006973403601455305,
0.0686284289276808,0.033571970580389535,
0.0686783042394015,0.03968946347966127,
0.06872817955112219,0.01605349087648554,
0.0687780548628429,0.047221068156480195,
0.0688279301745636,0.03315608791332962,
0.06887780548628429,0.01246006472174595,
0.06892768079800499,0.028859256598556506,
0.06897755610972568,-0.0028738870482169325,
0.06902743142144638,0.00434462491547067,
0.06907730673316709,0.02627061584608083,
0.06912718204488778,0.03224025918238823,
0.06917705735660848,0.04213692219813006,
0.06922693266832917,0.009736191048273864,
0.06927680798004987,0.047445414017183336,
0.06932668329177058,0.003518432092548464,
0.06937655860349128,0.015331853728735498,
0.06942643391521197,0.035370365114360626,
0.06947630922693267,0.035703385185472586,
0.06952618453865336,0.03179730057203632,
0.06957605985037406,0.019492252758127274,
0.06962593516209477,0.01756833559635128,
0.06967581047381546,0.03319164633223653,
0.06972568578553616,0.029600178141828946,
0.06977556109725686,0.014712110199673148,
0.06982543640897755,0.02049105630710921,
0.06987531172069826,0.013544954148157743,
0.06992518703241896,0.006276905604202146,
0.06997506234413965,0.03205467225046398,
0.07002493765586035,0.0024504768501571045,
0.07007481296758104,0.033535594754430326,
0.07012468827930174,-0.002050920558958322,
0.07017456359102245,0.03251910770531907,
0.07022443890274314,0.011517497762907851,
0.07027431421446384,0.006788559683338056,
0.07032418952618454,0.029393280199141808,
0.07037406483790523,0.023406287714279838,
0.07042394014962594,0.01360852350851282,
0.07047381546134664,0.012435691689506534,
0.07052369077306733,0.024698821292161673,
0.07057356608478803,-0.004043823512642507,
0.07062344139650872,0.04108282155344174,
0.07067331670822943,0.024159339056124295,
0.07072319201995013,0.025693895559814817,
0.07077306733167082,0.03753659601322738,
0.07082294264339152,0.05432994766019099,
0.07087281795511222,0.030298883764886875,
0.07092269326683291,0.0018436301912346208,
0.07097256857855362,0.008049893981455867,
0.07102244389027432,-0.011203927493384332,
0.07107231920199501,0.001543960597648629,
0.07112219451371571,0.024081823566124455,
0.0711720698254364,0.018736543469929177,
0.07122194513715711,0.024156298121805985,
0.07127182044887781,0.019495760960958848,
0.0713216957605985,0.012487927380583862,
0.0713715710723192,0.027179690098186923,
0.0714214463840399,-0.0010250728959860407,
0.07147132169576059,0.031544486065655075,
0.0715211970074813,0.027911236824012323,
0.071571072319202,0.0132289291169604,
0.0716209476309227,0.011009319818185152,
0.07167082294264339,0.02533075795394334,
0.07172069825436408,0.015556949295096144,
0.0717705735660848,0.009562877533960238,
0.07182044887780549,0.018479082980490693,
0.07187032418952619,0.025736417331328615,
0.07192019950124688,0.0007924047325701487,
0.07197007481296758,0.01865627343924709,
0.07201995012468827,0.004772634780869568,
0.07206982543640898,0.012255842910702834,
0.07211970074812968,-0.0018306203307842366,
0.07216957605985037,0.0075081337131832696,
0.07221945137157107,0.016691756708098075,
0.07226932668329177,0.026530136286252722,
0.07231920199501247,0.00954700556774599,
0.07236907730673317,0.02594118177937389,
0.07241895261845387,0.007329640510016607,
0.07246882793017456,0.012157887307710101,
0.07251870324189526,0.01193995525624982,
0.07256857855361595,0.0057548619166835945,
0.07261845386533666,0.006202525204660015,
0.07266832917705736,0.019743537425515597,
0.07271820448877805,-0.006488030356062959,
0.07276807980049875,0.020371395941348364,
0.07281795511221945,-0.0037079885004689464,
0.07286783042394016,0.009034637038361335,
0.07291770573566085,0.021792505431312417,
0.07296758104738155,-0.0040352730452510015,
0.07301745635910224,0.00788655664064808,
0.07306733167082294,0.011785020774831192,
0.07311720698254365,0.011174566210894162,
0.07316708229426434,0.01662396861045516,
0.07321695760598504,-0.010450935593886773,
0.07326683291770573,0.014233792479070497,
0.07331670822942643,0.016489271083423816,
0.07336658354114713,0.020937275901994602,
0.07341645885286784,-0.024364391358386733,
0.07346633416458853,0.017890191323782115,
0.07351620947630923,-0.009316017267020176,
0.07356608478802992,0.019474540374078073,
0.07361596009975062,-0.009640180236921467,
0.07366583541147133,0.04087433436881624,
0.07371571072319202,-0.0023462608429649155,
0.07376558603491272,-0.0014764892766396046,
0.07381546134663342,-0.004364100737747538,
0.07386533665835411,-0.0023970756468027253,
0.0739152119700748,-0.013284658051990285,
0.07396508728179552,0.010811924502360959,
0.07401496259351621,0.0002913171392123809,
0.07406483790523691,-0.00421307381230828,
0.0741147132169576,0.006196632817574237,
0.0741645885286783,-0.008048769264681068,
0.07421446384039901,-0.005175267566742471,
0.0742643391521197,-0.018222628296240946,
0.0743142144638404,-0.006131493678707044,
0.0743640897755611,0.02210529774945883,
0.07441396508728179,0.008685807147322956,
0.07446384039900249,0.0029667944097880802,
0.0745137157107232,0.004557418041492461,
0.07456359102244389,0.0024194850702764373,
0.07461346633416459,-0.009062828937829417,
0.07466334164588528,0.013487541753070934,
0.07471321695760598,-0.02100981629446007,
0.07476309226932669,0.0006579239728078824,
0.07481296758104738,0.02176794669085263,
0.07486284289276808,-0.010288938330291156,
0.07491271820448878,-0.0007849583773221927,
0.07496259351620947,-0.010232207100216734,
0.07501246882793017,0.006637537636326826,
0.07506234413965088,-0.012119793332884252,
0.07511221945137157,-0.01560446465243881,
0.07516209476309227,-0.01075629845634862,
0.07521197007481296,-0.02164321800537189,
0.07526184538653366,-0.015153468926844287,
0.07531172069825437,-0.021050341032810543,
0.07536159600997507,-0.0025082527462603633,
0.07541147132169576,-0.012712705957653142,
0.07546134663341646,-0.014653530416649858,
0.07551122194513715,-6.750839219219276e-05,
0.07556109725685786,-0.02419141961001755,
0.07561097256857856,-0.001632867411450377,
0.07566084788029925,0.0027056302998134853,
0.07571072319201995,-0.020087490759337003,
0.07576059850374064,-0.0008107711838878044,
0.07581047381546134,0.0022435228571693368,
0.07586034912718205,-0.0024041161904383096,
0.07591022443890275,-0.017517746034592267,
0.07596009975062344,-0.0352391359565429,
0.07600997506234414,-0.018268355833949833,
0.07605985037406483,0.01364500603479294,
0.07610972568578554,-0.016324679127790023,
0.07615960099750624,-0.002980001483985249,
0.07620947630922693,-0.014719942980031021,
0.07625935162094763,-0.022828242482320692,
0.07630922693266833,-0.016668883997189025,
0.07635910224438902,-0.0033154832525920507,
0.07640897755610973,-0.02231924479833075,
0.07645885286783043,-0.01049054296128807,
0.07650872817955112,-0.011109101918032476,
0.07655860349127182,-0.004569765344133664,
0.07660847880299251,-0.019447362223470696,
0.07665835411471322,-0.020861267808399635,
0.07670822942643392,-0.007126283024803518,
0.07675810473815461,-0.014044277610918978,
0.07680798004987531,0.000564370837844403,
0.076857855361596,-0.0012795617401536764,
0.0769077306733167,-0.01366119916710646,
0.07695760598503741,0.01135561191384218,
0.0770074812967581,-0.03458573146775074,
0.0770573566084788,-0.019752955365059187,
0.0771072319201995,-0.001634107008855851,
0.0771571072319202,-0.04524707396370481,
0.0772069825436409,-0.010740657966087374,
0.0772568578553616,-0.024345391020794124,
0.0773067331670823,0.015267685813141328,
0.07735660847880299,-0.020827185158802504,
0.07740648379052369,-0.012330185446986226,
0.0774563591022444,-0.01774388506300531,
0.07750623441396509,-0.017901842578254817,
0.07755610972568579,0.0020018221793542835,
0.07760598503740648,-0.009992452435745008,
0.07765586034912718,-0.023825386322922592,
0.07770573566084787,-0.008115758733397127,
0.07775561097256858,-0.008245913797841745,
0.07780548628428928,-0.010809067149820134,
0.07785536159600998,-0.007033302877954804,
0.07790523690773067,0.0016303712643796313,
0.07795511221945137,-0.03404965976216122,
0.07800498753117208,-0.02444303480968502,
0.07805486284289277,-0.03061244327857268,
0.07810473815461347,-0.01435453144540144,
0.07815461346633416,-0.013658764424467989,
0.07820448877805486,-0.011353577951278553,
0.07825436408977555,0.006471347623834013,
0.07830423940149626,-0.0011920138291536802,
0.07835411471321696,-0.0038199266818564025,
0.07840399002493766,-0.00048598889158129634,
0.07845386533665835,-0.010236000664336508,
0.07850374064837905,0.0035702430847534203,
0.07855361596009976,-0.01662525164225364,
0.07860349127182045,-0.012555711562404568,
0.07865336658354115,-0.014491223213063112,
0.07870324189526184,-0.028208751490509103,
0.07875311720698254,-0.021695756761921654,
0.07880299251870324,-0.034287815653793866,
0.07885286783042394,-0.0010437811068067081,
0.07890274314214464,-0.011637812518767053,
0.07895261845386534,-0.014075610711964042,
0.07900249376558603,-0.020167298834502842,
0.07905236907730673,-0.018577774715209824,
0.07910224438902744,-0.008684835563122852,
0.07915211970074813,-0.0009292602979365395,
0.07920199501246883,-0.0005356326629500727,
0.07925187032418952,-0.02967892737665417,
0.07930174563591022,-0.004641392871486105,
0.07935162094763092,-0.032518068962427496,
0.07940149625935163,-0.03888812887384141,
0.07945137157107232,0.0020337631724352337,
0.07950124688279302,-0.010587109678320541,
0.07955112219451371,-0.02002384417149452,
0.07960099750623441,-0.012841579680387847,
0.07965087281795512,0.007307298450358964,
0.07970074812967581,0.009480944467569362,
0.07975062344139651,-0.016241619747551353,
0.0798004987531172,0.003576455343033162,
0.0798503740648379,-0.0014387190379807901,
0.07990024937655861,-0.009153006718062488,
0.0799501246882793,-0.0032507711712117093,
0.08,0.0017402926800208912,
0.0800498753117207,-0.020099372831941936,
0.0800997506234414,0.00286213624101502,
0.08014962593516209,-0.0036430514554002527,
0.0801995012468828,-0.007697990170094503,
0.0802493765586035,-0.024616624211960213,
0.08029925187032419,-0.00853246653300482,
0.08034912718204489,0.0014715623628732983,
0.08039900249376558,-0.020799023923025788,
0.08044887780548629,0.014014231615937692,
0.08049875311720699,-0.0027207714460293795,
0.08054862842892768,-0.004578639399267631,
0.08059850374064838,-0.033465664193689314,
0.08064837905236907,-0.0014694877310203035,
0.08069825436408977,-0.017610402896325445,
0.08074812967581048,0.009500369231876141,
0.08079800498753117,-0.00825205580691403,
0.08084788029925187,-0.00839310125115015,
0.08089775561097257,0.021549897374201904,
0.08094763092269326,-0.007114425608112645,
0.08099750623441397,-0.0021121945773375436,
0.08104738154613467,-0.00828481789627641,
0.08109725685785536,-0.004017802802131803,
0.08114713216957606,-0.012300077959851493,
0.08119700748129675,-0.005626949748808137,
0.08124688279301745,-0.014100753020290355,
0.08129675810473816,-0.0031703089617149093,
0.08134663341645886,-0.012809259160080693,
0.08139650872817955,0.03151994231848997,
0.08144638403990025,-0.0040890087746216506,
0.08149625935162094,-0.030072830626304992,
0.08154613466334165,-0.02637067246203049,
0.08159600997506235,-0.012521972861020865,
0.08164588528678304,-0.03101619191230704,
0.08169576059850374,0.007027760822292623,
0.08174563591022443,-0.019614917664612888,
0.08179551122194513,0.02450243862572621,
0.08184538653366584,0.006114615803874323,
0.08189526184538654,-0.008301226625465067,
0.08194513715710723,-0.023827326062883628,
0.08199501246882793,0.003953273134157699,
0.08204488778054862,-0.0021126413587189046,
0.08209476309226933,0.0008742247009642919,
0.08214463840399003,0.013978288272637276,
0.08219451371571072,-0.013174745007666983,
0.08224438902743142,-0.019275273752235266,
0.08229426433915212,0.0018493522419928098,
0.08234413965087282,-0.010396127803463348,
0.08239401496259352,-0.012287415713763739,
0.08244389027431422,-0.015410629091213289,
0.08249376558603491,-0.027119372004138567,
0.08254364089775561,0.006122511625382407,
0.0825935162094763,0.005104038397349877,
0.08264339152119701,0.0021177386475841695,
0.08269326683291771,-0.014562044785808586,
0.0827431421446384,0.004789709171687414,
0.0827930174563591,-0.018439173622073434,
0.0828428927680798,-0.0012388289851970498,
0.0828927680798005,-0.0025231332463630466,
0.0829426433915212,0.001824893596853471,
0.0829925187032419,-0.005156114112008974,
0.08304239401496259,0.004439942023616224,
0.08309226932668329,0.00266582443015789,
0.08314214463840398,0.002810883325430291,
0.0831920199501247,0.0036601989264463605,
0.08324189526184539,0.012681266800140461,
0.08329177057356608,-0.010985692034096196,
0.08334164588528678,0.02143511725521636,
0.08339152119700748,-0.01930089789549764,
0.08344139650872819,0.043425742194722505,
0.08349127182044888,-0.014495213744968,
0.08354114713216958,-0.0020840174395908434,
0.08359102244389027,0.014776548824916753,
0.08364089775561097,-0.0070013881010242435,
0.08369077306733166,-0.005475834449449929,
0.08374064837905237,-0.0009593643203012116,
0.08379052369077307,0.0077006491985709535,
0.08384039900249377,0.006001790312340314,
0.08389027431421446,-0.003458616123141363,
0.08394014962593516,0.012310667167920213,
0.08399002493765587,0.010299088272248038,
0.08403990024937656,0.017449245191602857,
0.08408977556109726,0.01003295087377626,
0.08413965087281795,-0.0021441119577747716,
0.08418952618453865,0.043050764482183146,
0.08423940149625936,0.03487692052781306,
0.08428927680798005,-0.025117530331708573,
0.08433915211970075,-0.005914581599122629,
0.08438902743142145,0.012976287789255326,
0.08443890274314214,0.02438356515743293,
0.08448877805486284,6.233938727154276e-05,
0.08453865336658355,-0.014074914725424608,
0.08458852867830424,0.007663079167759205,
0.08463840399002494,0.010442646889655478,
0.08468827930174563,0.030854694275330406,
0.08473815461346633,0.01583352366092624,
0.08478802992518704,0.016893804111718078,
0.08483790523690773,0.001467991300752725,
0.08488778054862843,-0.021208129064081385,
0.08493765586034913,0.029327866008539625,
0.08498753117206982,0.016762337599952947,
0.08503740648379052,-0.0003809525929401626,
0.08508728179551123,0.02274129487258081,
0.08513715710723192,0.011861198587788203,
0.08518703241895262,0.010719255037557928,
0.08523690773067331,0.025277165996485523,
0.08528678304239401,-0.0017211951944971736,
0.08533665835411472,0.02465273298326622,
0.08538653366583542,-0.011238628673365354,
0.08543640897755611,0.02513251010832882,
0.0854862842892768,0.0075571036884239,
0.0855361596009975,-0.011743869449206336,
0.0855860349127182,0.009782695827249848,
0.08563591022443891,0.0013959882915124747,
0.0856857855361596,0.0018920033139190537,
0.0857356608478803,0.014891302937864186,
0.085785536159601,0.010136285291299035,
0.08583541147132169,0.015565834506479427,
0.0858852867830424,0.03149893894085806,
0.0859351620947631,0.05090361228243112,
0.08598503740648379,0.03775672624425709,
0.08603491271820449,0.020930499149611703,
0.08608478802992518,0.003967706314829074,
0.08613466334164588,0.03500661545679134,
0.08618453865336659,-0.01505995794168339,
0.08623441396508728,0.023698012044367344,
0.08628428927680798,0.03358441386202027,
0.08633416458852868,0.01954791330317298,
0.08638403990024937,0.03980268598116993,
0.08643391521197008,0.03826803680947595,
0.08648379052369078,0.02560235188598542,
0.08653366583541147,0.03519452610692093,
0.08658354114713217,0.01692270172775998,
0.08663341645885286,0.025355135856062857,
0.08668329177057357,0.017605261001258858,
0.08673316708229427,0.03814260226165681,
0.08678304239401496,0.014354419370180583,
0.08683291770573566,0.020315734444085364,
0.08688279301745636,0.030159824393134096,
0.08693266832917705,0.03622358916541539,
0.08698254364089776,0.02606138007995078,
0.08703241895261846,0.006124363073608332,
0.08708229426433915,0.011023798460284067,
0.08713216957605985,0.042866868064642225,
0.08718204488778054,0.024106973704451348,
0.08723192019950125,0.027666505677134124,
0.08728179551122195,0.03510932242338267,
0.08733167082294264,0.037508426597199274,
0.08738154613466334,0.0028260008722560473,
0.08743142144638404,0.0276313366801101,
0.08748129675810473,0.010008454470340968,
0.08753117206982544,0.034767570425850054,
0.08758104738154614,0.05491732529839512,
0.08763092269326683,0.03725078678861357,
0.08768079800498753,0.029552005049931145,
0.08773067331670822,0.021863770233352398,
0.08778054862842893,0.018065760563806578,
0.08783042394014963,0.021218897281954745,
0.08788029925187033,0.010562969221094953,
0.08793017456359102,0.02686626573285105,
0.08798004987531172,0.02813342834430234,
0.08802992518703241,0.04245205041515655,
0.08807980049875312,0.0518372172229892,
0.08812967581047382,0.022330590007948254,
0.08817955112219451,0.04034728644878599,
0.08822942643391521,0.04457407016461454,
0.0882793017456359,0.025687951297174976,
0.08832917705735661,-0.0011594017787978708,
0.08837905236907731,0.0264802521747713,
0.088428927680798,0.035941390632091605,
0.0884788029925187,0.027245764445879114,
0.0885286783042394,0.02584815637485421,
0.0885785536159601,0.013203521760295543,
0.0886284289276808,0.0010919035321295574,
0.0886783042394015,0.007482439195731522,
0.0887281795511222,0.03534389338037035,
0.08877805486284289,-0.0010311985274340622,
0.08882793017456359,0.04967220122491018,
0.0888778054862843,0.03215882955199697,
0.08892768079800499,0.019657112626192103,
0.08897755610972569,0.023404270397487933,
0.08902743142144638,0.02010223770435334,
0.08907730673316708,0.034973219404643825,
0.08912718204488779,0.03538898322812509,
0.08917705735660848,0.03896879624110105,
0.08922693266832918,0.018646235832815237,
0.08927680798004987,0.009672015859392969,
0.08932668329177057,0.02080751728375093,
0.08937655860349127,0.036025174930097915,
0.08942643391521198,0.03811041044567639,
0.08947630922693267,0.010857703624099142,
0.08952618453865337,0.04259742633918378,
0.08957605985037406,-0.0017390105662757963,
0.08962593516209476,0.03484959589791385,
0.08967581047381547,0.02754041649335344,
0.08972568578553616,0.035201492600254354,
0.08977556109725686,0.020417344103222497,
0.08982543640897755,0.04917768276296609,
0.08987531172069825,0.03868102354258986,
0.08992518703241895,0.05362881894043619,
0.08997506234413966,0.0009625823067966298,
0.09002493765586035,0.02941014133378038,
0.09007481296758105,0.026836786206093876,
0.09012468827930174,-0.0005354749590833659,
0.09017456359102244,0.033613141021106685,
0.09022443890274315,0.037692210953657164,
0.09027431421446384,0.035986040500962296,
0.09032418952618454,0.034667931124653356,
0.09037406483790524,0.011557387818269932,
0.09042394014962593,0.012125176002055713,
0.09047381546134663,0.014610124669154654,
0.09052369077306734,0.0336010388724124,
0.09057356608478803,0.03665558157301497,
0.09062344139650873,0.025081321951395574,
0.09067331670822942,0.03157563978439691,
0.09072319201995012,0.011628498749028255,
0.09077306733167083,0.02535809268836621,
0.09082294264339152,0.0058916476844940845,
0.09087281795511222,-0.00596759335745323,
0.09092269326683292,-0.005637708764016626,
0.09097256857855361,0.014426515376812638,
0.09102244389027432,-0.008347964593344817,
0.09107231920199502,0.004053906860209048,
0.09112219451371571,0.024253845616999635,
0.09117206982543641,0.044985223203697244,
0.0912219451371571,0.021791138665572307,
0.0912718204488778,0.0097193500724623,
0.09132169576059851,-0.017183815816217328,
0.0913715710723192,0.052771590936075016,
0.0914214463840399,0.017613338004511418,
0.0914713216957606,0.008734901692125919,
0.09152119700748129,0.005801768850491409,
0.091571072319202,-0.0044196919977223525,
0.0916209476309227,0.008786616463927224,
0.09167082294264339,0.01953561249931209,
0.09172069825436409,0.023825355391189657,
0.09177057356608478,0.01614590883003425,
0.09182044887780548,0.025907408739255865,
0.09187032418952619,0.013809464180627359,
0.09192019950124689,0.0038207637578104945,
0.09197007481296758,0.028500927304519343,
0.09201995012468828,-0.0036728159276424796,
0.09206982543640897,0.011156149542321213,
0.09211970074812968,0.02428755672987553,
0.09216957605985038,0.0029356571698993614,
0.09221945137157107,0.01937408798825637,
0.09226932668329177,0.01730491859805895,
0.09231920199501246,0.005573819387081354,
0.09236907730673316,0.02073205060663657,
0.09241895261845387,-0.010273549602091099,
0.09246882793017457,0.010286905272458142,
0.09251870324189526,0.003160756993716483,
0.09256857855361596,0.023640116924434434,
0.09261845386533665,0.013772886092025049,
0.09266832917705736,0.0014798175497662165,
0.09271820448877806,-0.004695347834917528,
0.09276807980049875,0.019325170656737597,
0.09281795511221945,0.023707927519288075,
0.09286783042394015,0.041336159080191906,
0.09291770573566084,-0.001181795845170525,
0.09296758104738155,0.021527004270669975,
0.09301745635910225,0.025132071354168485,
0.09306733167082294,0.023174381995187593,
0.09311720698254364,-0.0047727901646477215,
0.09316708229426433,-0.014766616967975373,
0.09321695760598504,-0.010336023545794423,
0.09326683291770574,0.014238896903351738,
0.09331670822942643,-0.021621853325261536,
0.09336658354114713,0.026999363829243877,
0.09341645885286783,-0.004343798024328626,
0.09346633416458854,-0.00859117438358169,
0.09351620947630923,0.018009043554729088,
0.09356608478802993,0.016142008372823993,
0.09361596009975062,0.009754317024907961,
0.09366583541147132,0.010750189039095089,
0.09371571072319201,0.012846776223446812,
0.09376558603491272,0.012693117648529047,
0.09381546134663342,-0.010547044699302306,
0.09386533665835411,-0.014125207533001848,
0.09391521197007481,0.02402706523304182,
0.0939650872817955,0.00915211217497026,
0.09401496259351622,0.009037427704254235,
0.09406483790523691,0.011850805657147499,
0.09411471321695761,-0.011481445432533509,
0.0941645885286783,-0.0020547496113002585,
0.094214463840399,0.0067360445952959775,
0.0942643391521197,-0.006581101505962777,
0.0943142144638404,0.015496802862453501,
0.0943640897755611,-0.0021199952399503356,
0.0944139650872818,0.005402153344743144,
0.09446384039900249,0.010737790084764255,
0.09451371571072319,0.023618905091633655,
0.0945635910224439,0.025569754117474322,
0.09461346633416459,-0.02428486452658645,
0.09466334164588529,0.007513924250439965,
0.09471321695760598,0.005918408261905944,
0.09476309226932668,-0.018612467174707603,
0.09481296758104737,-0.011632800869305859,
0.09486284289276808,0.013216329319869803,
0.09491271820448878,-0.029520425417287492,
0.09496259351620948,-0.020522908450512342,
0.09501246882793017,0.022389019615207555,
0.09506234413965087,-0.029351329182438872,
0.09511221945137158,0.01000978350299345,
0.09516209476309227,0.025302263714488776,
0.09521197007481297,-0.014000472066464612,
0.09526184538653366,-0.004137058225703037,
0.09531172069825436,0.01912506145447325,
0.09536159600997507,-0.0031913041492912654,
0.09541147132169576,-0.005739187793371394,
0.09546134663341646,0.0008736805257618038,
0.09551122194513716,0.017633279727003157,
0.09556109725685785,-0.024557595255363142,
0.09561097256857855,-0.009774314477432761,
0.09566084788029926,-0.022582833690366285,
0.09571072319201995,-0.01334779952535248,
0.09576059850374065,-0.007240503824768613,
0.09581047381546134,-0.018917383386766847,
0.09586034912718204,0.006469359325995327,
0.09591022443890275,-0.026580146478275626,
0.09596009975062345,-0.04620350523712915,
0.09600997506234414,-0.007695094371686484,
0.09605985037406484,-0.025480792783650008,
0.09610972568578553,-0.006265947149647937,
0.09615960099750623,0.01617637682812243,
0.09620947630922694,-0.01410126101606069,
0.09625935162094763,0.01185136018143803,
0.09630922693266833,-0.008018890085475072,
0.09635910224438902,-0.008225966189899613,
0.09640897755610972,-0.02332291738722482,
0.09645885286783043,-0.013201470330045298,
0.09650872817955113,-0.005493950545969574,
0.09655860349127182,-0.022801492538882875,
0.09660847880299252,0.004225830857338528,
0.09665835411471321,-0.009658216445691809,
0.09670822942643391,0.021196418935274144,
0.09675810473815462,-0.019535284737536872,
0.09680798004987531,-0.03983652158164285,
0.09685785536159601,-0.001971196003491736,
0.0969077306733167,0.028531073228904198,
0.0969576059850374,-0.0035854569291247987,
0.09700748129675811,-0.014446248934911327,
0.0970573566084788,-0.013584842473560633,
0.0971072319201995,-0.020438227437020152,
0.0971571072319202,-0.034617079220357436,
0.0972069825436409,-0.022794029486244753,
0.09725685785536159,-0.01522968073491935,
0.0973067331670823,0.010830409230166026,
0.097356608478803,-0.013448796119429738,
0.09740648379052369,0.014745486622855805,
0.09745635910224439,0.009807246583884325,
0.09750623441396508,-0.008711724861591918,
0.09755610972568579,0.0032043850725570113,
0.09760598503740649,-0.00779659187000731,
0.09765586034912718,-0.005414602795376266,
0.09770573566084788,-0.01631672640248168,
0.09775561097256857,0.001920251385239406,
0.09780548628428928,-0.015341977131327582,
0.09785536159600998,0.022748432317838463,
0.09790523690773068,-0.0022348886740686143,
0.09795511221945137,-0.01940157266472791,
0.09800498753117207,-0.030388558802958293,
0.09805486284289276,-0.023515555509593795,
0.09810473815461347,0.0024604639427357033,
0.09815461346633417,-0.026943154858578705,
0.09820448877805486,-0.033556590751598975,
0.09825436408977556,-0.01737996244512345,
0.09830423940149625,-0.011153872764108544,
0.09835411471321696,-0.002281257898491691,
0.09840399002493766,0.00510130939487868,
0.09845386533665836,-0.003832537682613881,
0.09850374064837905,-0.035696824201475894,
0.09855361596009975,-0.012861397173281516,
0.09860349127182044,-0.04695675913840289,
0.09865336658354115,0.005354017720412021,
0.09870324189526185,-0.034911380011188264,
0.09875311720698254,-0.033863482818689006,
0.09880299251870324,-0.018765134617941902,
0.09885286783042393,-0.008942039736996938,
0.09890274314214464,-0.02097376317758287,
0.09895261845386534,-0.03599633669648607,
0.09900249376558604,0.0013113940153551672,
0.09905236907730673,-0.007368249851612821,
0.09910224438902743,-0.004774479468616922,
0.09915211970074812,-0.007242039304000787,
0.09920199501246883,-0.028918236319258352,
0.09925187032418953,-0.02874952854469559,
0.09930174563591022,0.0008227938768919103,
0.09935162094763092,-0.005777179491857488,
0.09940149625935162,-0.011590285815861566,
0.09945137157107233,-0.019618815269161705,
0.09950124688279302,-0.015401954909518956,
0.09955112219451372,-0.0016055413028796019,
0.09960099750623441,-0.02601916847086065,
0.09965087281795511,0.011130247359416385,
0.0997007481296758,0.016858128776549557,
0.09975062344139651,-0.013716132853030034,
0.09980049875311721,-0.008226549361816014,
0.0998503740648379,0.008779329620846328,
0.0999002493765586,0.012276154716348013,
0.0999501246882793,-0.03555080568264719,
0.1,0.01310925858372692,
0.1000498753117207,-0.002844612160625877,
0.1000997506234414,0.00452000977904197,
0.10014962593516209,-0.001887112573114429,
0.10019950124688279,-0.018354546093622068,
0.1002493765586035,-0.0035390128118716856,
0.1002992518703242,0.010100249163841581,
0.10034912718204489,-0.00821348433326257,
0.10039900249376559,-0.013389114727086055,
0.10044887780548628,-0.016232258442397726,
0.10049875311720698,-0.0044054548289310606,
0.10054862842892769,-0.023336245042740393,
0.10059850374064838,-0.019698273072591175,
0.10064837905236908,0.005870722340836272,
0.10069825436408977,0.005011795362257333,
0.10074812967581047,0.002526086564481618,
0.10079800498753118,-0.01709117819132814,
0.10084788029925187,-5.461420127217138e-05,
0.10089775561097257,0.013477632585623588,
0.10094763092269327,-0.000574254002062546,
0.10099750623441396,0.006470707425065686,
0.10104738154613466,0.0113849002349806,
0.10109725685785537,-0.01121136398635023,
0.10114713216957606,-0.014501357850615137,
0.10119700748129676,-0.012284041866607972,
0.10124688279301745,-0.017316267467515422,
0.10129675810473815,0.014669917721161743,
0.10134663341645886,-0.002489774649243182,
0.10139650872817955,0.022864804779144002,
0.10144638403990025,-0.01277316458337856,
0.10149625935162095,0.005456109783176894,
0.10154613466334164,0.0033622175066568396,
0.10159600997506234,-0.006707277661791709,
0.10164588528678305,-0.02625215791289713,
0.10169576059850374,0.0008413348288887454,
0.10174563591022444,-0.018378771470994024,
0.10179551122194513,-0.031229021260217305,
0.10184538653366583,-0.02946826373099662,
0.10189526184538654,-0.0005666597964363285,
0.10194513715710724,0.00033357128044456493,
0.10199501246882793,0.01708208983629069,
0.10204488778054863,0.01629557326438646,
0.10209476309226932,-0.001804973272805831,
0.10214463840399003,-0.008741043935226765,
0.10219451371571073,-0.009956914768536985,
0.10224438902743142,-0.02569054757837955,
0.10229426433915212,0.009167411343215054,
0.10234413965087281,0.011530458452138478,
0.10239401496259351,0.008286724399301088,
0.10244389027431422,0.007434985448260493,
0.10249376558603492,-0.004238557221392999,
0.10254364089775561,0.012956132663195077,
0.10259351620947631,0.01132195256716095,
0.102643391521197,-0.014119113931500732,
0.10269326683291771,0.0016250416017237227,
0.10274314214463841,-0.0023836258742088038,
0.1027930174563591,0.0064978010999154805,
0.1028428927680798,-0.0007485324000770762,
0.1028927680798005,0.025215627594940913,
0.10294264339152119,0.014470534693191262,
0.1029925187032419,0.011161992081609947,
0.1030423940149626,-0.003427852279625389,
0.10309226932668329,0.00819085704851436,
0.10314214463840399,-0.00046014867471530236,
0.10319201995012468,0.013942381485694726,
0.10324189526184539,0.02593313403100064,
0.10329177057356609,-0.0008967816191817,
0.10334164588528678,-0.009079786052112761,
0.10339152119700748,0.01742848240810721,
0.10344139650872818,0.027309632277389702,
0.10349127182044887,0.04103177351821259,
0.10354114713216958,-0.02690810492060102,
0.10359102244389028,-0.010062621403563916,
0.10364089775561097,-0.005250105508397015,
0.10369077306733167,-0.03324954950438732,
0.10374064837905236,0.015047676357541437,
0.10379052369077307,0.027654654519674145,
0.10384039900249377,0.013551581546849788,
0.10389027431421446,0.006910167052512387,
0.10394014962593516,0.006069078367166909,
0.10399002493765586,0.01911024842329992,
0.10403990024937655,0.009591211039171037,
0.10408977556109726,0.00316204443327516,
0.10413965087281796,-0.005324370840450652,
0.10418952618453865,0.03527959096420907,
0.10423940149625935,0.0018991949780438663,
0.10428927680798004,-0.003370784418406412,
0.10433915211970075,0.02122640145743065,
0.10438902743142145,0.03167198103554963,
0.10443890274314215,0.0023594603295748334,
0.10448877805486284,0.013599908287103692,
0.10453865336658354,0.007212945695836165,
0.10458852867830425,0.02467824531703968,
0.10463840399002494,0.009107083948266365,
0.10468827930174564,0.014572169905553059,
0.10473815461346633,0.038403417600854736,
0.10478802992518703,0.005548797336004302,
0.10483790523690772,0.015848822728849472,
0.10488778054862843,0.009812842170823403,
0.10493765586034913,0.018584043358413307,
0.10498753117206983,0.029958240712338827,
0.10503740648379052,0.002900310984507923,
0.10508728179551122,0.0243940793199127,
0.10513715710723193,0.026828459455694776,
0.10518703241895262,0.020369220198510694,
0.10523690773067332,0.01992494911456209,
0.10528678304239401,0.014546171415473255,
0.10533665835411471,0.01237098273556615,
0.1053865336658354,-0.0011474599635553154,
0.10543640897755611,0.02942958185716343,
0.10548628428927681,0.017869825139071725,
0.1055361596009975,0.03314152500922721,
0.1055860349127182,0.027768411524337785,
0.1056359102244389,0.05668759363917199,
0.10568578553615961,0.044265954910009855,
0.1057356608478803,0.043581282616231586,
0.105785536159601,0.03588300307875088,
0.1058354114713217,0.04018630073420501,
0.10588528678304239,0.033985113507817924,
0.10593516209476309,0.01923248210371229,
0.1059850374064838,0.03548415290321391,
0.10603491271820449,0.025020379821961227,
0.10608478802992519,0.010169742224209003,
0.10613466334164588,0.02012997548187615,
0.10618453865336658,0.038610607977674835,
0.10623441396508729,0.03973758185538336,
0.10628428927680798,0.012214929713523464,
0.10633416458852868,0.01173715692278121,
0.10638403990024937,0.020939471702098034,
0.10643391521197007,0.022689053418201224,
0.10648379052369077,-0.000813532520527141,
0.10653366583541148,0.013573421244350172,
0.10658354114713217,0.0010307970600050911,
0.10663341645885287,0.021484261886660583,
0.10668329177057356,0.005834489696727934,
0.10673316708229426,0.04049409197261345,
0.10678304239401497,0.03775040705896167,
0.10683291770573566,0.00035449221514196813,
0.10688279301745636,0.04101482592305786,
0.10693266832917706,0.021519858295152794,
0.10698254364089775,0.03091598310546125,
0.10703241895261846,0.006175971070706544,
0.10708229426433916,0.008889272409252025,
0.10713216957605985,0.013858460050733185,
0.10718204488778055,0.05308358771343806,
0.10723192019950124,0.028915642389331933,
0.10728179551122194,0.010978539583433044,
0.10733167082294265,0.027813292235858218,
0.10738154613466334,0.03129366112443861,
0.10743142144638404,0.012888442173753371,
0.10748129675810474,0.0034174479949950973,
0.10753117206982543,0.024122203211069365,
0.10758104738154614,0.03733323910510116,
0.10763092269326684,-0.0022322812166610737,
0.10768079800498753,0.031225025378799193,
0.10773067331670823,0.030384939714051012,
0.10778054862842892,0.018150985707529398,
0.10783042394014962,0.008276069021041298,
0.10788029925187033,0.02419374469312776,
0.10793017456359102,0.02185252188669052,
0.10798004987531172,0.01331255262110039,
0.10802992518703242,0.03271014877499677,
0.10807980049875311,0.034823641851139744,
0.10812967581047382,0.04605607542932687,
0.10817955112219452,0.033514078760473937,
0.10822942643391521,0.011361655916125885,
0.10827930174563591,0.04042963327049564,
0.1083291770573566,0.0478601205370503,
0.1083790523690773,0.03087409302609395,
0.10842892768079801,0.02770433549065253,
0.1084788029925187,0.04751531439522304,
0.1085286783042394,0.014901003225788393,
0.1085785536159601,-0.0009965745067056463,
0.10862842892768079,0.010380345399811634,
0.1086783042394015,0.07094115617947504,
0.1087281795511222,0.03885498193400132,
0.1087780548628429,0.03242201794616544,
0.10882793017456359,0.04225710141912531,
0.10887780548628428,-0.005518494506655151,
0.108927680798005,0.03268886300485589,
0.10897755610972569,0.03173348820719727,
0.10902743142144639,0.02646702041814004,
0.10907730673316708,0.03526462446333674,
0.10912718204488778,0.0007092267578431843,
0.10917705735660847,0.015935359098407265,
0.10922693266832918,0.011506053651906885,
0.10927680798004988,0.017445030967596,
0.10932668329177057,0.04857178980133496,
0.10937655860349127,0.04821138449418902,
0.10942643391521197,0.009402704646995073,
0.10947630922693267,0.027630570197296263,
0.10952618453865337,-0.012156753988017126,
0.10957605985037407,0.021798794585649657,
0.10962593516209476,0.050155505825528864,
0.10967581047381546,0.04432704813522298,
0.10972568578553615,0.03944771806182315,
0.10977556109725686,0.0033872499073154677,
0.10982543640897756,0.039293443628742944,
0.10987531172069825,0.02195348621160186,
0.10992518703241895,0.014420873409051082,
0.10997506234413965,0.02374340433503482,
0.11002493765586036,0.028640820031736326,
0.11007481296758105,0.04145346733355699,
0.11012468827930175,0.025036600783417715,
0.11017456359102244,0.02030476503700138,
0.11022443890274314,0.014194983917813408,
0.11027431421446383,-0.003472235521587645,
0.11032418952618454,0.032342632191240776,
0.11037406483790524,-0.010854547148292502,
0.11042394014962593,0.036735375609365635,
0.11047381546134663,0.01697130697460536,
0.11052369077306733,-0.0018952741391698273,
0.11057356608478804,0.009826277768616196,
0.11062344139650873,0.012263391487463965,
0.11067331670822943,0.002452743924341,
0.11072319201995012,0.02741309167954819,
0.11077306733167082,0.03180941909494389,
0.11082294264339151,0.026436638704013866,
0.11087281795511222,0.027345712075142737,
0.11092269326683292,0.004074791137218529,
0.11097256857855362,0.01216818660262633,
0.11102244389027431,0.025116082316197243,
0.111072319201995,0.040716712146887685,
0.11112219451371572,0.010682284747603113,
0.11117206982543641,-0.02368959089647663,
0.11122194513715711,0.031212546273822115,
0.1112718204488778,0.0382576636138926,
0.1113216957605985,-0.01555330652836695,
0.11137157107231921,0.02182631158536198,
0.1114214463840399,0.026154709310257755,
0.1114713216957606,0.004245260529711794,
0.1115211970074813,0.0032958753430054125,
0.11157107231920199,0.013074922184410455,
0.11162094763092269,0.020646637775530274,
0.1116708229426434,0.007825107468361486,
0.11172069825436409,0.01698653887727561,
0.11177057356608479,0.011968142546746934,
0.11182044887780548,0.014993716146395303,
0.11187032418952618,0.0074874048160109286,
0.11192019950124689,0.014987557005622628,
0.11197007481296758,0.005945741204022187,
0.11201995012468828,0.025334980553938253,
0.11206982543640898,0.030131800424245833,
0.11211970074812967,0.00016650371905255375,
0.11216957605985037,0.03885110388439696,
0.11221945137157108,0.018630153791609545,
0.11226932668329177,0.023136378513106695,
0.11231920199501247,0.01700992386614878,
0.11236907730673316,0.02791600155588236,
0.11241895261845386,0.01181908225831081,
0.11246882793017457,0.002130794511108732,
0.11251870324189527,0.02905054162686592,
0.11256857855361596,0.024420916984258818,
0.11261845386533666,0.0016422931334301866,
0.11266832917705735,0.00114634204984599,
0.11271820448877805,0.013525268847775676,
0.11276807980049876,0.027706837779372547,
0.11281795511221945,0.04381939986178051,
0.11286783042394015,0.007436348778163099,
0.11291770573566084,-0.0008717349444069804,
0.11296758104738154,0.011804335675336158,
0.11301745635910225,0.015776158243848485,
0.11306733167082295,0.0053847048353140295,
0.11311720698254364,0.017787806684013176,
0.11316708229426434,0.036173412824125326,
0.11321695760598503,-0.016560141339079286,
0.11326683291770574,0.020325969423280216,
0.11331670822942644,0.00492878151939433,
0.11336658354114713,-0.010816558195711066,
0.11341645885286783,-0.012680191805424318,
0.11346633416458853,0.006449034931700619,
0.11351620947630922,-0.0017388562791921212,
0.11356608478802993,0.016012080947026948,
0.11361596009975063,0.035544526480500285,
0.11366583541147132,0.013576767078326543,
0.11371571072319202,0.0305751793710953,
0.11376558603491271,-0.0075171480564366865,
0.11381546134663342,-0.009714191927136634,
0.11386533665835412,-0.004364201011760469,
0.11391521197007481,0.005371459748501926,
0.11396508728179551,-0.013734585172196289,
0.1140149625935162,0.007539830305441015,
0.1140648379052369,0.00266264324597318,
0.11411471321695761,-0.004991356429719208,
0.1141645885286783,0.004784035058737757,
0.114214463840399,0.0029223424764770437,
0.1142643391521197,0.013398859599439084,
0.1143142144638404,-0.03745017033270285,
0.1143640897755611,-0.021803650936086005,
0.1144139650872818,0.012569103256343344,
0.1144638403990025,0.00045880138243691514,
0.11451371571072319,-0.0004865002817566178,
0.11456359102244389,-0.0022934831583864127,
0.11461346633416458,-0.008175299922733279,
0.11466334164588529,-0.029992962987144014,
0.11471321695760599,-0.006019337070963175,
0.11476309226932668,0.0004564372198781865,
0.11481296758104738,-0.009656767569552789,
0.11486284289276807,-0.004587692090024879,
0.11491271820448878,-0.013117187698446279,
0.11496259351620948,0.029752930685879683,
0.11501246882793018,-0.0056396484486553235,
0.11506234413965087,-0.009918910972411588,
0.11511221945137157,-0.007028342642821979,
0.11516209476309226,0.013624213873291952,
0.11521197007481297,0.017881319114499118,
0.11526184538653367,-0.02687512885525175,
0.11531172069825436,0.005684422691769253,
0.11536159600997506,0.012878562493564883,
0.11541147132169575,0.0015945393143222313,
0.11546134663341646,-0.009811919382869823,
0.11551122194513716,-0.0068334676457510474,
0.11556109725685786,-0.0020209373260859616,
0.11561097256857855,-0.015061226290248484,
0.11566084788029925,-0.00996388375060355,
0.11571072319201996,0.01073594972384131,
0.11576059850374065,0.02774703634731933,
0.11581047381546135,-0.0022450170925420094,
0.11586034912718204,0.004165294135297639,
0.11591022443890274,0.007041709998759665,
0.11596009975062344,-0.027073565476195965,
0.11600997506234415,0.008877107544755371,
0.11605985037406484,0.0001696470815994739,
0.11610972568578554,-0.02555846565294272,
0.11615960099750623,-0.000344582005867183,
0.11620947630922693,-0.030922611634238942,
0.11625935162094764,-0.0055720666957684815,
0.11630922693266833,0.008390344942499487,
0.11635910224438903,0.002191817750514722,
0.11640897755610972,-0.020323388015396043,
0.11645885286783042,-0.0015413088114977058,
0.11650872817955112,0.002201425300291989,
0.11655860349127183,-0.024677212753243492,
0.11660847880299252,-0.0005380223600207398,
0.11665835411471322,-0.001174883355593917,
0.11670822942643391,-0.037246156721355256,
0.11675810473815461,-0.01755157305948464,
0.11680798004987532,-0.014804895215626558,
0.11685785536159601,-0.022508859263300252,
0.11690773067331671,-0.020838358787162108,
0.1169576059850374,-0.014421189108149414,
0.1170074812967581,-0.006276451337572242,
0.1170573566084788,0.007476409415304209,
0.1171072319201995,0.00697354029417332,
0.1171571072319202,0.015827118804844897,
0.1172069825436409,-0.01839472261895659,
0.1172568578553616,0.03751502026462026,
0.11730673316708229,0.007493712273520478,
0.117356608478803,-0.011571688295441342,
0.1174064837905237,-0.027550332677259273,
0.11745635910224439,-0.0017622975328102745,
0.11750623441396509,-0.024404834491653565,
0.11755610972568578,-0.004157859516871516,
0.11760598503740648,0.01556921101911377,
0.11765586034912719,-0.007804568130455106,
0.11770573566084788,-0.007526065670887759,
0.11775561097256858,-0.009412616793926621,
0.11780548628428927,-0.006300245994432317,
0.11785536159600997,0.007237370935969555,
0.11790523690773068,-0.017074260101367162,
0.11795511221945137,-0.030583269990084858,
0.11800498753117207,0.0014484385427549207,
0.11805486284289277,-0.030349164156239825,
0.11810473815461346,-0.007685145975469242,
0.11815461346633417,-0.01613759615253951,
0.11820448877805487,-0.03377593547643757,
0.11825436408977556,-0.008370446122146206,
0.11830423940149626,-0.006807532775489347,
0.11835411471321695,-0.004645386338726971,
0.11840399002493765,-0.01665790122071504,
0.11845386533665836,-0.01650534975637515,
0.11850374064837906,0.005432418023657456,
0.11855361596009975,-0.01013171551616369,
0.11860349127182045,-0.006291773607921325,
0.11865336658354114,-0.0314313482417832,
0.11870324189526185,-0.004013076435487146,
0.11875311720698255,-0.025271506124024352,
0.11880299251870324,-0.01838765095422267,
0.11885286783042394,-0.008692148032749585,
0.11890274314214463,0.01603714274816572,
0.11895261845386533,-0.019270001678615593,
0.11900249376558604,-0.023135240259999572,
0.11905236907730674,0.033747943459232356,
0.11910224438902743,-0.0019881913177172243,
0.11915211970074813,-0.01087226912571555,
0.11920199501246882,-0.0071799851797870635,
0.11925187032418953,-0.010453098458903954,
0.11930174563591023,-0.00020436263917146015,
0.11935162094763092,0.02006302273324597,
0.11940149625935162,-0.011563236105204261,
0.11945137157107232,-0.028541240373542276,
0.11950124688279301,0.006272851882916966,
0.11955112219451372,-0.011419375813258229,
0.11960099750623442,-0.01723357176904068,
0.11965087281795511,-0.06582357219797864,
0.11970074812967581,0.0009492591184160886,
0.1197506234413965,-0.014301360153281404,
0.11980049875311721,-0.006286351674623077,
0.11985037406483791,0.007238533576407318,
0.1199002493765586,0.003805043987068364,
0.1199501246882793,-0.008290451429298594,
0.12,-0.009071596352465234,
0.1200498753117207,-0.013181438313320318,
0.1200997506234414,0.013093296550250334,
0.1201496259351621,-0.006523267870142309,
0.12019950124688279,-0.016910552210143273,
0.12024937655860349,0.0037961753759411278,
0.12029925187032418,-0.023394912916596313,
0.1203491271820449,-0.016035427865190008,
0.12039900249376559,0.0009673420861489399,
0.12044887780548628,0.00461569755566966,
0.12049875311720698,0.009612788709461974,
0.12054862842892768,-0.007447496336760773,
0.12059850374064839,-0.013213254704446084,
0.12064837905236908,-0.004900055346062166,
0.12069825436408978,0.015826859187091834,
0.12074812967581047,0.004353400826709101,
0.12079800498753117,0.016724294308267204,
0.12084788029925186,-0.012652166308948755,
0.12089775561097257,-0.00887017448135465,
0.12094763092269327,0.0175913047159467,
0.12099750623441397,-0.01331793569685982,
0.12104738154613466,-0.00033373516953060737,
0.12109725685785536,-0.018438561049558592,
0.12114713216957607,-0.009421497387900452,
0.12119700748129676,0.021701164370853558,
0.12124688279301746,-0.020125612434094962,
0.12129675810473815,0.003461049327509253,
0.12134663341645885,-0.014521389349859793,
0.12139650872817954,0.022666722724778703,
0.12144638403990025,0.017522123876265366,
0.12149625935162095,0.0051076637821881885,
0.12154613466334165,0.013750220044144239,
0.12159600997506234,-0.033392297040732766,
0.12164588528678304,0.0049950804472478575,
0.12169576059850375,-0.005796264041859736,
0.12174563591022444,-0.016683101672483464,
0.12179551122194514,-0.017841753342378752,
0.12184538653366583,-0.006545728966782642,
0.12189526184538653,0.023146194096354038,
0.12194513715710723,-0.015471830411993494,
0.12199501246882793,0.004474899585324297,
0.12204488778054863,-0.025289953691821566,
0.12209476309226933,0.03663989591456289,
0.12214463840399002,0.016669928098702724,
0.12219451371571072,-0.01023978195221249,
0.12224438902743143,-0.003575091623507661,
0.12229426433915212,0.033398921649532023,
0.12234413965087282,0.027340958352582004,
0.12239401496259351,-0.015717437729564777,
0.12244389027431421,0.027297833726832872,
0.12249376558603492,0.007210980860757704,
0.12254364089775562,0.013653712795891476,
0.12259351620947631,0.012747738147778954,
0.122643391521197,-0.017644132035856488,
0.1226932668329177,0.008268538040060638,
0.1227431421446384,0.0041609725577364705,
0.12279301745635911,0.0002168033242484057,
0.1228428927680798,0.014675279262602602,
0.1228927680798005,0.019645069264798632,
0.1229426433915212,0.006501397264889607,
0.12299251870324189,-0.009959867654950594,
0.1230423940149626,0.008026399508734974,
0.1230922693266833,0.033781074867514214,
0.12314214463840399,-0.007251457839527518,
0.12319201995012469,-0.020809415902623515,
0.12324189526184538,0.04296646909437424,
0.12329177057356608,0.01986430314763004,
0.12334164588528679,-0.0026114387092578857,
0.12339152119700748,0.0006802757250218769,
0.12344139650872818,-0.007397841236377189,
0.12349127182044888,0.043394203212689206,
0.12354114713216957,0.03666565540921882,
0.12359102244389028,0.0020154609876173683,
0.12364089775561098,0.004901442303994072,
0.12369077306733167,0.029358770200032653,
0.12374064837905237,0.01979773079456835,
0.12379052369077306,0.0017618392606161461,
0.12384039900249376,0.013133842517060384,
0.12389027431421447,0.012775888325046959,
0.12394014962593516,-0.015797427767532454,
0.12399002493765586,0.0049615228544520485,
0.12403990024937656,0.007374888918193182,
0.12408977556109725,0.011562436146309942,
0.12413965087281796,-0.0022367704197669945,
0.12418952618453866,0.033752515635866044,
0.12423940149625935,0.02858914453947239,
0.12428927680798005,0.006643735775114724,
0.12433915211970074,0.038492965955327106,
0.12438902743142144,0.019083833134137165,
0.12443890274314215,0.02423024313601802,
0.12448877805486284,0.028383052037353234,
0.12453865336658354,0.024655674493073595,
0.12458852867830424,0.025043415819831848,
0.12463840399002493,0.02047704773271831,
0.12468827930174564,0.01229704232070301,
0.12473815461346634,0.007299609471679984,
0.12478802992518703,0.0035168463782104357,
0.12483790523690773,-0.005164868809921737,
0.12488778054862842,0.03893830891444977,
0.12493765586034913,0.02751133254135542,
0.12498753117206983,0.035162931289657466,
0.12503740648379053,0.03925676802396763,
0.12508728179551123,0.032773821611604956,
0.12513715710723192,-0.0008970578110429304,
0.12518703241895263,0.0034479520610063014,
0.1252369077306733,0.027103300899587734,
0.12528678304239402,0.028373107033092572,
0.1253366583541147,0.019665751818202053,
0.1253865336658354,0.015567072474148326,
0.12543640897755612,0.03374159972493069,
0.1254862842892768,0.042064209048268256,
0.1255361596009975,0.008389464478425234,
0.1255860349127182,0.0219728719333801,
0.1256359102244389,0.025095723044100363,
0.1256857855361596,0.020724531056627984,
0.1257356608478803,0.022893135854883593,
0.125785536159601,0.039819035435590275,
0.12583541147132168,0.028488127550879667,
0.1258852867830424,0.018026627326315808,
0.1259351620947631,0.03536498043390271,
0.12598503740648379,0.023358858283183202,
0.1260349127182045,0.03291031864545254,
0.12608478802992518,0.023277494791307474,
0.1261346633416459,0.007270404765807967,
0.1261845386533666,0.020735965739935407,
0.12623441396508728,0.018064017840719267,
0.126284289276808,0.03106025830666686,
0.12633416458852867,0.02320720564935755,
0.12638403990024938,-0.002780429756701782,
0.1264339152119701,0.028250702942586487,
0.12648379052369077,0.04578646093952448,
0.12653366583541148,0.015600061805178228,
0.12658354114713216,0.03393186348974737,
0.12663341645885287,0.033277079550090544,
0.12668329177057355,0.03622465680105092,
0.12673316708229426,0.04863016257959606,
0.12678304239401497,0.04663443304299379,
0.12683291770573565,0.04276996794915516,
0.12688279301745636,0.019915152724268907,
0.12693266832917705,0.03948952030652993,
0.12698254364089775,0.008680494640568175,
0.12703241895261846,0.025509723780315758,
0.12708229426433915,0.005968442367950844,
0.12713216957605986,0.007485860976803902,
0.12718204488778054,0.037705719400374905,
0.12723192019950125,0.01582734102164015,
0.12728179551122196,0.0147028130823311,
0.12733167082294264,0.041600509918611514,
0.12738154613466335,0.009026980279671304,
0.12743142144638403,0.018879437468172396,
0.12748129675810474,0.011231065584386857,
0.12753117206982545,0.01378349063501478,
0.12758104738154613,0.011405925523623853,
0.12763092269326684,0.03606238303036845,
0.12768079800498752,0.022742481865127135,
0.12773067331670823,0.013805172227094478,
0.1277805486284289,0.028092279281577374,
0.12783042394014962,0.020954762346172634,
0.12788029925187033,0.0030901338615804165,
0.12793017456359101,0.01394240768271642,
0.12798004987531172,0.034512760917226666,
0.1280299251870324,0.033250481367989866,
0.12807980049875312,0.035186113624166536,
0.12812967581047383,0.04272865756460855,
0.1281795511221945,0.05073554094161548,
0.12822942643391522,0.009734079864455635,
0.1282793017456359,0.014260833874345789,
0.1283291770573566,0.0171030652320206,
0.12837905236907732,0.026921170363633454,
0.128428927680798,0.041541181404157974,
0.1284788029925187,0.017523007626638835,
0.1285286783042394,0.033688288515014736,
0.1285785536159601,0.0381217691628333,
0.1286284289276808,0.01783986525795988,
0.1286783042394015,0.029742506111349685,
0.1287281795511222,0.03740634770810529,
0.12877805486284288,0.019297953827351947,
0.1288279301745636,0.05889286269251039,
0.1288778054862843,0.03093904159724515,
0.12892768079800498,0.03227059663782228,
0.1289775561097257,0.03165134213849215,
0.12902743142144638,0.03109534359641878,
0.12907730673316709,0.03428281631121173,
0.12912718204488777,0.03743987091395828,
0.12917705735660848,0.028604886573853766,
0.1292269326683292,0.007989026174147755,
0.12927680798004987,0.051960221642945004,
0.12932668329177058,0.0195160909990698,
0.12937655860349126,0.03981912061528935,
0.12942643391521197,0.003879890228361351,
0.12947630922693268,0.047215628306570744,
0.12952618453865336,0.05127374959854859,
0.12957605985037407,0.021751146607175254,
0.12962593516209475,0.04775144846926785,
0.12967581047381546,0.01845886287041688,
0.12972568578553617,0.040095961822376194,
0.12977556109725685,0.04932495948343418,
0.12982543640897756,0.004941091575487191,
0.12987531172069824,0.038900407492165466,
0.12992518703241895,0.03244769714325334,
0.12997506234413966,0.013374585901557856,
0.13002493765586035,0.03932095016282949,
0.13007481296758105,0.022798885799161683,
0.13012468827930174,0.007407989874643528,
0.13017456359102245,0.06857550806435928,
0.13022443890274316,0.04819526512006014,
0.13027431421446384,0.009354355409959159,
0.13032418952618455,0.021134736292552303,
0.13037406483790523,0.03221462053467272,
0.13042394014962594,0.0113531314714449,
0.13047381546134662,0.026739953593288335,
0.13052369077306733,0.01677722432686648,
0.13057356608478804,0.02624267291792413,
0.13062344139650872,0.033143304310879994,
0.13067331670822943,0.023759028252619243,
0.1307231920199501,0.025741191546194687,
0.13077306733167082,0.021533583562668355,
0.13082294264339153,0.010866836459991494,
0.13087281795511221,0.007164134490924744,
0.13092269326683292,0.014259712240001415,
0.1309725685785536,0.015349551173985234,
0.13102244389027431,0.024650669547844766,
0.13107231920199502,0.027763868366140587,
0.1311221945137157,0.03474509455008664,
0.13117206982543642,0.04023081941623193,
0.1312219451371571,0.014814085978155919,
0.1312718204488778,0.010241828495530151,
0.13132169576059852,0.013419814654010919,
0.1313715710723192,0.030609836250488222,
0.1314214463840399,0.03297440780973195,
0.1314713216957606,0.019085151593114795,
0.1315211970074813,0.02756610922171622,
0.13157107231920198,0.013063921711451779,
0.1316209476309227,0.047365155230051546,
0.1316708229426434,0.029384347304826218,
0.13172069825436408,0.035336508248355894,
0.1317705735660848,0.0062043451507803465,
0.13182044887780547,0.04482147427412836,
0.13187032418952618,0.010824987868458822,
0.1319201995012469,0.04268869581240958,
0.13197007481296757,0.016643282883563235,
0.13201995012468828,0.016894384091157635,
0.13206982543640897,-0.0005165464349812764,
0.13211970074812968,0.012756147069239356,
0.13216957605985039,0.013795229337155147,
0.13221945137157107,0.0020679140033391143,
0.13226932668329178,0.023755701025552356,
0.13231920199501246,0.02001302894079355,
0.13236907730673317,0.003227892242991892,
0.13241895261845388,0.008689189325488837,
0.13246882793017456,0.019287330472903017,
0.13251870324189527,0.008722806675621093,
0.13256857855361595,0.01297688463349835,
0.13261845386533666,-0.008509881309051528,
0.13266832917705737,0.0167564106400376,
0.13271820448877805,0.0008789944054042615,
0.13276807980049876,0.0071533179252204196,
0.13281795511221944,0.009740289300272754,
0.13286783042394015,0.02211774308086964,
0.13291770573566083,0.009423366432477763,
0.13296758104738154,0.05262629212580336,
0.13301745635910225,0.006904417212903397,
0.13306733167082294,-0.012601672385490016,
0.13311720698254365,0.024279771831900967,
0.13316708229426433,0.01023061590976269,
0.13321695760598504,-0.008962995076385948,
0.13326683291770575,0.013351305537182348,
0.13331670822942643,0.0033000900416486484,
0.13336658354114714,-0.006890016845620815,
0.13341645885286782,0.0014266389599260606,
0.13346633416458853,0.013201466238711847,
0.13351620947630924,-0.011012312657958495,
0.13356608478802992,0.02052746808335048,
0.13361596009975063,0.014749874542601035,
0.1336658354114713,-0.02725495496221713,
0.13371571072319202,0.010138257062467303,
0.13376558603491273,0.0012284801511314404,
0.1338154613466334,0.011170321435554027,
0.13386533665835412,0.011873270395628858,
0.1339152119700748,0.009219442736068392,
0.13396508728179551,-0.003865997856865655,
0.1340149625935162,-0.016741265041104493,
0.1340648379052369,0.026366452757841035,
0.13411471321695762,-0.01081168496895394,
0.1341645885286783,0.010538751247134881,
0.134214463840399,0.003366849035953441,
0.1342643391521197,-0.008465124628042858,
0.1343142144638404,0.014909740988727282,
0.1343640897755611,0.003784044332154169,
0.1344139650872818,-0.01259917992450353,
0.1344638403990025,0.026680274218813742,
0.13451371571072318,0.024328568264035205,
0.1345635910224439,0.014447086467337927,
0.1346134663341646,0.018436894621343534,
0.13466334164588528,0.02175998576788509,
0.134713216957606,-0.03026007168980555,
0.13476309226932667,0.009876076959740398,
0.13481296758104738,0.027785224786996035,
0.1348628428927681,0.0193648644688104,
0.13491271820448877,-0.0004636842802107777,
0.13496259351620948,0.00936185038523223,
0.13501246882793017,0.017358484891176362,
0.13506234413965088,0.013471088217992028,
0.13511221945137158,0.018520947126049764,
0.13516209476309227,-0.030916523449362014,
0.13521197007481298,0.008757385215174563,
0.13526184538653366,0.015116091337174077,
0.13531172069825437,0.00495394957497486,
0.13536159600997505,-0.0022554567427509383,
0.13541147132169576,-0.0033585923109416905,
0.13546134663341647,-0.007627315433874183,
0.13551122194513715,-0.012521226770650287,
0.13556109725685786,-0.023781051231635326,
0.13561097256857854,-0.014316202948357412,
0.13566084788029925,0.004165850944999442,
0.13571072319201996,0.008704895937396843,
0.13576059850374064,-0.01903455620554919,
0.13581047381546135,0.004699940987716816,
0.13586034912718203,0.008976454224835473,
0.13591022443890274,0.006223727222009997,
0.13596009975062345,-0.024928823769351936,
0.13600997506234414,-0.01656119458648695,
0.13605985037406484,0.0048399206291118695,
0.13610972568578553,0.012923203864671785,
0.13615960099750624,-0.003949583138135529,
0.13620947630922695,0.0022750472796127484,
0.13625935162094763,-0.025180592036255046,
0.13630922693266834,-0.027067432585970455,
0.13635910224438902,-0.014019974652421122,
0.13640897755610973,-0.02209656198754839,
0.1364588528678304,0.011831844789237407,
0.13650872817955112,-0.0154081241483959,
0.13655860349127183,0.0004027775580095474,
0.1366084788029925,-0.0012591884753139007,
0.13665835411471322,-0.0009936031863806843,
0.1367082294264339,-0.021821973456630752,
0.1367581047381546,-0.033024446925129555,
0.13680798004987532,-0.020256653086670257,
0.136857855361596,-0.009571494908058835,
0.1369077306733167,-0.03449354904681985,
0.1369576059850374,-0.0348468295256628,
0.1370074812967581,-0.0005521348640198636,
0.13705735660847881,-0.0034867967774253657,
0.1371072319201995,-0.008471509031463362,
0.1371571072319202,-0.012710448436240938,
0.1372069825436409,-0.039763047598976066,
0.1372568578553616,-0.00898844310934154,
0.1373067331670823,-0.014896189276267421,
0.137356608478803,-0.010134445199540952,
0.1374064837905237,-0.04008696631731109,
0.13745635910224438,0.009922574852704794,
0.1375062344139651,0.002903323546055459,
0.1375561097256858,-0.010142406769776822,
0.13760598503740648,-0.015016674236125235,
0.1376558603491272,-0.02798460388192261,
0.13770573566084787,-0.009255971158239363,
0.13775561097256858,0.01799605369466397,
0.13780548628428926,0.02585608738813005,
0.13785536159600997,-0.014543080982897846,
0.13790523690773068,-0.015657422352151937,
0.13795511221945136,0.0068229580604752555,
0.13800498753117207,-0.021335562406491794,
0.13805486284289276,-0.018098494470998587,
0.13810473815461347,-0.02446208511302299,
0.13815461346633418,-0.02226416618879929,
0.13820448877805486,0.02874086692517478,
0.13825436408977557,-0.007821656611020794,
0.13830423940149625,-0.008264745603662915,
0.13835411471321696,0.01603070177957199,
0.13840399002493767,0.009073672003741965,
0.13845386533665835,-0.013905167512309833,
0.13850374064837906,-0.030316712474602825,
0.13855361596009974,-0.008191407346860843,
0.13860349127182045,0.0032354307063130992,
0.13865336658354116,0.00348305780556182,
0.13870324189526184,-0.004238558608432624,
0.13875311720698255,-0.007133238593471997,
0.13880299251870323,-0.00824666951520569,
0.13885286783042394,0.00397235840244199,
0.13890274314214462,-0.019957899640315024,
0.13895261845386533,-0.008444634471435153,
0.13900249376558604,-0.03325203428689962,
0.13905236907730673,0.008083750676803347,
0.13910224438902744,-0.017258342133179578,
0.13915211970074812,-0.01740027039580582,
0.13920199501246883,-0.022332867991010585,
0.13925187032418954,-0.026954633238894136,
0.13930174563591022,-0.01598484975056195,
0.13935162094763093,0.006523862591069943,
0.1394014962593516,-0.011490757318825089,
0.13945137157107232,0.005314074418423898,
0.13950124688279303,-0.008938871238967227,
0.1395511221945137,0.01745891953697457,
0.13960099750623442,-0.004999066901973767,
0.1396508728179551,-0.016632772848460257,
0.1397007481296758,-0.011008645570156723,
0.13975062344139652,-0.027165237677754184,
0.1398004987531172,0.0098207974277877,
0.1398503740648379,-0.011448764095235032,
0.1399002493765586,0.002182320816998363,
0.1399501246882793,0.01262466850378866,
0.14,-0.02246654445366115,
0.1400498753117207,-0.01449257624883805,
0.1400997506234414,-0.01222084581513334,
0.1401496259351621,0.008498717209901231,
0.1401995012468828,0.00036277051054458675,
0.14024937655860348,0.021130660366625243,
0.1402992518703242,-0.012666212420823735,
0.1403491271820449,-0.023393138831398597,
0.14039900249376558,-0.003394394672808081,
0.1404488778054863,-0.04007878957922702,
0.14049875311720697,-0.01941338030142157,
0.14054862842892768,0.007583834883375825,
0.1405985037406484,0.008875763470883006,
0.14064837905236907,-0.01866278922532545,
0.14069825436408978,0.013912470291927865,
0.14074812967581046,-0.011628484637733446,
0.14079800498753117,-0.007865418218483328,
0.14084788029925188,0.000514315720798277,
0.14089775561097256,-0.019751091404033673,
0.14094763092269327,0.010947376152874135,
0.14099750623441396,0.0014152139055042378,
0.14104738154613466,0.003426207092829446,
0.14109725685785537,-0.01797521101758033,
0.14114713216957606,0.042648053050507416,
0.14119700748129677,0.013697052922660416,
0.14124688279301745,0.0062722787590862115,
