time,amplitude,label
0.0,-0.015382116482137179,
4.987531172069826e-05,-0.018558378634361942,
9.975062344139652e-05,-0.030774112599676898,
0.00014962593516209475,-0.02251929371726722,
0.00019950124688279303,-0.040764943359005504,
0.00024937655860349125,-0.023583424413257767,
0.0002992518703241895,-0.025737986554575595,
0.00034912718204488776,-0.03328751488870232,
0.00039900249376558606,-0.021261904292240754,
0.0004488778054862843,-0.025848818482201046,
0.0004987531172069825,-0.0034866421778093036,
0.0005486284289276808,-0.0018190583835497112,
0.000598503740648379,-0.0545447728142255,
0.0006483790523690773,-0.024092916380596064,
0.0006982543640897755,-0.021163396230847367,
0.0007481296758104738,-0.018222346682664144,
0.0007980049875311721,-0.021717526154873084,
0.0008478802992518703,-0.028795310626570685,
0.0008977556109725686,-0.006457442808628391,
0.0009476309226932668,-0.011021965350405293,
0.000997506234413965,0.0010431077839333294,
0.0010473815461346633,-0.027553549552902436,
0.0010972568578553616,-0.03878761978267485,
0.00114713216957606,-0.00242462867295919,
0.001197007481296758,-0.01481193410355636,
0.0012468827930174563,-0.027915991621291047,
0.0012967581047381546,-0.027656642495311256,
0.001346633416458853,-0.03966088471520815,
0.001396508728179551,-0.021156153143525924,
0.0014463840399002493,-0.02289064166231982,
0.0014962593516209476,-0.04536871472848712,
0.001546134663341646,-0.03944993529599074,
0.0015960099750623442,-0.020825444881054343,
0.0016458852867830423,-0.007279954611119705,
0.0016957605985037406,-0.045322716469185356,
0.001745635910224439,-0.026595760660315264,
0.0017955112219451373,-0.009744336678967187,
0.0018453865336658353,0.009077700086929982,
0.0018952618453865336,-0.016549931267425252,
0.001945137157107232,-0.021232761173519056,
0.00199501246882793,-0.0057109121885983785,
0.0020448877805486283,-0.021304592628393206,
0.0020947630922693266,-0.039376723990640954,
0.002144638403990025,-0.020090675468256814,
0.0021945137157107233,-0.0030185118312942953,
0.0022443890274314216,-0.0007196436991568789,
0.00229426433915212,-0.027367400603498078,
0.0023441396508728177,-0.048274163447276267,
0.002394014962593516,-0.018409374992498527,
0.0024438902743142144,-0.009022852191799605,
0.0024937655860349127,0.0012994281353053763,
0.002543640897755611,0.012396592742578165,
0.0025935162094763093,0.01192956156795265,
0.0026433915211970076,-0.012723475388400934,
0.002693266832917706,-0.00794665149009777,
0.002743142144638404,-0.03238547255345216,
0.002793017456359102,0.0047172853348802085,
0.0028428927680798004,0.007247635960898252,
0.0028927680798004987,-0.040193787400750275,
0.002942643391521197,-0.005853010915804516,
0.0029925187032418953,-0.006993148076858689,
0.0030423940149625936,0.009638119961428703,
0.003092269326683292,-0.007336330744152119,
0.00314214463840399,-0.007447562355175493,
0.0031920199501246885,-0.002364999363886046,
0.0032418952618453864,-0.01729060019735494,
0.0032917705735660847,-0.02591531286417674,
0.003341645885286783,-0.013223333691939518,
0.0033915211970074813,-0.016881274735655826,
0.0034413965087281796,-0.008918245152469603,
0.003491271820448878,0.034545873734489946,
0.003541147132169576,0.0007141912214153577,
0.0035910224438902745,-0.019876738326526852,
0.0036408977556109724,-0.01744254684425879,
0.0036907730673316707,0.012660079681947111,
0.003740648379052369,-0.008280868241681817,
0.0037905236907730673,0.007563593379816005,
0.0038403990024937656,-0.024145999737705807,
0.003890274314214464,-0.010576683732448163,
0.003940149625935162,-0.010686092396173925,
0.00399002493765586,0.008236611709032182,
0.004039900249376558,-0.0022085515851022275,
0.004089775561097257,0.0012010846670483634,
0.004139650872817955,0.005275503328428753,
0.004189526184538653,-0.005902742017602445,
0.004239401496259352,0.004807320703435074,
0.00428927680798005,-0.0052023448280836,
0.004339152119700748,0.01825885577632946,
0.0043890274314214465,-0.013511156021934987,
0.004438902743142145,-0.013085339520807001,
0.004488778054862843,-0.007491337771616074,
0.004538653366583541,-0.017685728439070122,
0.00458852867830424,-0.02141886493376724,
0.004638403990024938,-0.004560131689946434,
0.0046882793017456355,0.02337234125031274,
0.004738154613466334,0.0038548738470412496,
0.004788029925187032,0.002175982223768675,
0.00483790523690773,-0.005423514020895681,
0.004887780548628429,0.02001810500596751,
0.004937655860349127,-0.019077808451800515,
0.004987531172069825,-0.017307528874136967,
0.005037406483790524,1.1480433191041542e-05,
0.005087281795511222,0.0074967600779534274,
0.00513715710723192,-0.013409446030650026,
0.0051870324189526185,-0.005754333272051094,
0.005236907730673317,0.0019736049933079185,
0.005286783042394015,0.02547286422832972,
0.0053366583541147134,-0.02253504617854526,
0.005386533665835412,0.011528181674514106,
0.00543640897755611,0.016748464764406643,
0.005486284289276808,0.032192477782056084,
0.005536159600997507,-0.01610774676656171,
0.005586034912718204,-0.012684089620964812,
0.005635910224438902,-0.006872896030616605,
0.005685785536159601,-0.01604570926896624,
0.005735660847880299,0.02224723333310228,
0.005785536159600997,0.011525880389393816,
0.005835411471321696,0.007011133271735853,
0.005885286783042394,0.0130235813975213,
0.005935162094763092,0.02392321668604583,
0.0059850374064837905,-0.03105206886828539,
0.006034912718204489,0.01345249885789352,
0.006084788029925187,0.012425572871549401,
0.0061346633416458855,0.016580814957686926,
0.006184538653366584,-0.01549105484398908,
0.006234413965087282,0.00620181197534809,
0.00628428927680798,-0.006456862312447062,
0.006334164588528679,0.027960299493973866,
0.006384039900249377,0.01087011399331712,
0.006433915211970074,0.006462736267881757,
0.006483790523690773,0.014511927728538543,
0.006533665835411471,-0.00841271362823354,
0.006583541147132169,0.03018663857062327,
0.006633416458852868,0.030507127039135534,
0.006683291770573566,-0.009504155285924583,
0.006733167082294264,0.028897040761116585,
0.0067830423940149626,0.0365383609991016,
0.006832917705735661,0.00017685393542622545,
0.006882793017456359,-0.002083521399765493,
0.0069326683291770575,-0.0017450992988439686,
0.006982543640897756,0.023908538122805037,
0.007032418952618454,0.03959641647301493,
0.007082294264339152,0.004475210237526183,
0.007132169576059851,0.020949638890236565,
0.007182044887780549,0.02212202498479484,
0.007231920199501247,0.004881828678369051,
0.007281795511221945,0.0055050479496057125,
0.007331670822942643,0.014020540378953774,
0.007381546134663341,0.016522621930904185,
0.00743142144638404,0.002851189882982835,
0.007481296758104738,0.010073713595122649,
0.007531172069825436,0.019963294005741396,
0.007581047381546135,0.01709909286389941,
0.007630922693266833,0.048975987903509724,
0.007680798004987531,0.0028177416216848584,
0.0077306733167082295,0.040783292371460424,
0.007780548628428928,0.023347948688950876,
0.007830423940149626,0.01467922447084295,
0.007880299251870324,0.05675012150409667,
0.007930174563591023,0.021393703207734663,
0.00798004987531172,-0.0010803099051374908,
0.00802992518703242,0.02043133987310032,
0.008079800498753117,0.03634057499396612,
0.008129675810473816,0.025332770390724138,
0.008179551122194513,0.027930320788391423,
0.008229426433915213,0.013448291352692331,
0.00827930174563591,0.017003392793401864,
0.00832917705735661,0.006257569028728205,
0.008379052369077307,0.006349538780908324,
0.008428927680798006,0.025214667715938652,
0.008478802992518703,0.03114182746943084,
0.0085286783042394,0.009171999907865257,
0.0085785536159601,0.012001666426224772,
0.008628428927680797,0.041517624651777135,
0.008678304239401496,0.004347391566063711,
0.008728179551122194,0.008346427142172055,
0.008778054862842893,-0.005951178233213922,
0.00882793017456359,0.011226946606426839,
0.00887780548628429,0.018498797323568916,
0.008927680798004987,0.03292951027928523,
0.008977556109725686,0.017294043929438948,
0.009027431421446384,0.030381528645778866,
0.009077306733167083,0.0032602544538453647,
0.00912718204488778,0.004345066525688212,
0.00917705735660848,-0.002255291714433009,
0.009226932668329177,0.030275670281739536,
0.009276807980049876,0.012028718311250778,
0.009326683291770574,0.0529639124248948,
0.009376558603491271,0.05111983254845022,
0.00942643391521197,0.030562080267636505,
0.009476309226932668,-0.005384136001330281,
0.009526184538653367,0.018855255463721333,
0.009576059850374064,0.022828354140871438,
0.009625935162094763,0.023103386415847936,
0.00967581047381546,-0.011726781242498544,
0.00972568578553616,0.005621616288526551,
0.009775561097256857,0.003925151152936138,
0.009825436408977557,0.018022005508233345,
0.009875311720698254,0.0259904686373359,
0.009925187032418953,0.02711294296228635,
0.00997506234413965,0.009860687822870919,
0.01002493765586035,0.023578632064729238,
0.010074812967581047,0.023012132466112927,
0.010124688279301746,0.012210272712581561,
0.010174563591022444,0.0291434200353841,
0.010224438902743141,0.038337099932230556,
0.01027431421446384,0.006901938564274767,
0.010324189526184538,0.009462615580753866,
0.010374064837905237,0.019630859945777613,
0.010423940149625935,0.036111213613152573,
0.010473815461346634,0.013669868969961927,
0.010523690773067331,0.04458446342332065,
0.01057356608478803,0.04095325897829294,
0.010623441396508728,-0.004327307399532528,
0.010673316708229427,0.024834163287435384,
0.010723192019950124,0.020603672972521192,
0.010773067331670824,0.008139258655647106,
0.010822942643391521,0.018520324390971843,
0.01087281795511222,0.02873073622466625,
0.010922693266832918,0.015622803964610615,
0.010972568578553617,0.03755747416148675,
0.011022443890274314,0.00519552722686023,
0.011072319201995013,0.02024064293158723,
0.01112219451371571,0.019521640073768966,
0.011172069825436408,0.004877159502506643,
0.011221945137157107,-0.0034205618965285865,
0.011271820448877805,0.024555936512916,
0.011321695760598504,0.009649787711259336,
0.011371571072319201,-0.0037426510820844014,
0.0114214463840399,0.018308162814851862,
0.011471321695760598,0.011845879477675916,
0.011521197007481297,0.018830878824300457,
0.011571072319201995,0.033561421972436105,
0.011620947630922694,0.014121557982620634,
0.011670822942643391,0.03820059548419007,
0.01172069825436409,0.023131834488919877,
0.011770573566084788,0.022366562001924224,
0.011820448877805487,-0.012085560562912302,
0.011870324189526184,0.010192244998871523,
0.011920199501246884,0.025104511568479336,
0.011970074812967581,0.017089147702455,
0.012019950124688279,0.00041052218724740505,
0.012069825436408978,0.007723287846634829,
0.012119700748129675,0.03541134164924141,
0.012169576059850374,0.017896663147777044,
0.012219451371571072,0.024529180847862472,
0.012269326683291771,0.0310578782668577,
0.012319201995012468,0.020712768963899772,
0.012369077306733168,0.02015993513386556,
0.012418952618453865,0.00658877615309043,
0.012468827930174564,0.03139106014890232,
0.012518703241895262,0.006647880234964458,
0.01256857855361596,0.025564546657018822,
0.012618453865336658,0.029026512926258227,
0.012668329177057357,0.024629484498638297,
0.012718204488778055,0.01865087762566814,
0.012768079800498754,-0.003817966662371391,
0.012817955112219451,0.03588268283241559,
0.012867830423940149,0.022848187805004562,
0.012917705735660848,-0.0043234590164401825,
0.012967581047381545,0.00878746737265114,
0.013017456359102245,0.012749507252661763,
0.013067331670822942,0.024949218615723627,
0.013117206982543641,-0.014748072695318458,
0.013167082294264339,0.014044120752281427,
0.013216957605985038,0.01379616161420585,
0.013266832917705735,-0.001972748766247147,
0.013316708229426434,0.021698833146709832,
0.013366583541147132,0.011056394633579795,
0.013416458852867831,0.019787980941877316,
0.013466334164588529,-0.0017874345129364772,
0.013516209476309228,0.016870174401857202,
0.013566084788029925,0.018757513982368038,
0.013615960099750624,0.00037388262458989616,
0.013665835411471322,0.0010963846350315314,
0.01371571072319202,-0.0077373623312564,
0.013765586034912718,-0.005707319209944361,
0.013815461346633416,-0.0002610284268972883,
0.013865336658354115,0.008137814751521725,
0.013915211970074812,0.015928403220029502,
0.013965087281795512,0.012916314065360123,
0.014014962593516209,0.020270636948347263,
0.014064837905236908,-0.0009462196557892067,
0.014114713216957606,-0.012654051667715573,
0.014164588528678305,-0.010159955146007659,
0.014214463840399002,0.022383201130533763,
0.014264339152119701,-0.02485962679103495,
0.014314214463840399,0.020838857564554794,
0.014364089775561098,-0.01389161841834148,
0.014413965087281795,0.008146448769423241,
0.014463840399002495,0.024814925188891106,
0.014513715710723192,0.006345552734327143,
0.01456359102244389,0.00706618115672392,
0.014613466334164589,-0.009372311237895094,
0.014663341645885286,0.007916960963919103,
0.014713216957605985,0.012235460992296072,
0.014763092269326683,0.03319909189305807,
0.014812967581047382,0.00044358374905515796,
0.01486284289276808,0.043123458072666605,
0.014912718204488778,-0.014968013564798979,
0.014962593516209476,0.007464234411236725,
0.015012468827930175,-0.0039966578913716655,
0.015062344139650873,-0.002019206585803496,
0.015112219451371572,-0.018249432519095107,
0.01516209476309227,0.01320779230900496,
0.015211970074812968,0.019199658314789984,
0.015261845386533666,0.004953774668896703,
0.015311720698254365,0.01017186802749622,
0.015361596009975062,-0.014397457637417897,
0.01541147132169576,-0.017734375693885945,
0.015461346633416459,0.010409484733280693,
0.015511221945137156,0.0024415122755255024,
0.015561097256857856,0.018248314533580536,
0.015610972568578553,0.004650657697611533,
0.015660847880299252,-0.031817197552014315,
0.01571072319201995,-0.009038774866658238,
0.015760598503740647,0.013610972434564595,
0.015810473815461346,-0.01444832872661285,
0.015860349127182045,-0.0029313207490170817,
0.015910224438902745,-0.018263292654317476,
0.01596009975062344,0.011060401072896584,
0.01600997506234414,-0.00646010071375416,
0.01605985037406484,-0.0027133421961196623,
0.016109725685785538,-0.0025743276596762025,
0.016159600997506234,-0.0003612329049389098,
0.016209476309226933,-0.019433424168621333,
0.016259351620947632,0.009732915973521515,
0.016309226932668328,0.0008956579671885621,
0.016359102244389027,-0.0008441872971489857,
0.016408977556109726,0.002130030155562879,
0.016458852867830425,-0.005984335927100428,
0.01650872817955112,0.00038493378030171263,
0.01655860349127182,-0.014766944147213822,
0.01660847880299252,0.011861536155887017,
0.01665835411471322,-0.044614535146297124,
0.016708229426433914,-0.0024700137331902586,
0.016758104738154613,-0.014539987528570155,
0.016807980049875312,0.022672260834351633,
0.01685785536159601,-0.008338714539447002,
0.016907730673316707,0.0018768348899735159,
0.016957605985037406,-0.034541303884153315,
0.017007481296758106,-0.02410018533686998,
0.0170573566084788,-0.010026637249147704,
0.0171072319201995,0.002175916996197149,
0.0171571072319202,-0.014656948101988402,
0.0172069825436409,0.008217203285310691,
0.017256857855361595,-0.009372584394986358,
0.017306733167082294,0.023299205376359204,
0.017356608478802993,-0.018412112079529606,
0.017406483790523692,0.007472893888610393,
0.017456359102244388,-0.004811293397927385,
0.017506234413965087,-0.009266439951348817,
0.017556109725685786,-0.02028128707022259,
0.017605985037406485,-0.007191381537612299,
0.01765586034912718,-0.025878839231510832,
0.01770573566084788,-0.01355688476908649,
0.01775561097256858,-0.03283881214550112,
0.01780548628428928,-9.917522521465244e-06,
0.017855361596009974,-0.018713095674507955,
0.017905236907730673,0.00029445591698173436,
0.017955112219451373,-0.0015553084288982607,
0.018004987531172068,0.0013018121697173125,
0.018054862842892767,-0.02378858347948206,
0.018104738154613467,0.007816837005609301,
0.018154613466334166,-0.004641223757858215,
0.01820448877805486,-0.033109636838351435,
0.01825436408977556,-0.017251630273168176,
0.01830423940149626,-0.012470918190204853,
0.01835411471321696,-0.011953858714579869,
0.018403990024937655,0.016199728181591967,
0.018453865336658354,-0.02803637744540268,
0.018503740648379053,-0.01706091160746449,
0.018553615960099752,-0.02099620026019918,
0.018603491271820448,-0.020086217004576416,
0.018653366583541147,0.011752941629877712,
0.018703241895261846,-0.014153259328204711,
0.018753117206982542,-0.00419466771075193,
0.01880299251870324,-0.0060353285981645955,
0.01885286783042394,-0.01108101276789802,
0.01890274314214464,-0.0013016544177997177,
0.018952618453865335,-0.006652852885219078,
0.019002493765586034,-0.013684147738683063,
0.019052369077306733,-0.021670268575420287,
0.019102244389027433,-0.014444663789467873,
0.01915211970074813,-0.008782764600805302,
0.019201995012468828,-0.025902532692476343,
0.019251870324189527,-0.015438471472968132,
0.019301745635910226,-0.023055195503184064,
0.01935162094763092,-0.021738855495465906,
0.01940149625935162,-0.015314414662618316,
0.01945137157107232,0.0021264641122216814,
0.01950124688279302,-0.013558655557893064,
0.019551122194513715,-0.003941819589453421,
0.019600997506234414,-0.004855931573822697,
0.019650872817955113,0.003909134321865824,
0.01970074812967581,-0.025813738137624602,
0.019750623441396508,-0.021686682589556677,
0.019800498753117207,-0.007401859074579671,
0.019850374064837906,-0.006360507165285044,
0.019900249376558602,-0.00583830122517889,
0.0199501246882793,-0.017283243000485376,
0.02,0.014660477783043656,
0.0200498753117207,-0.004657843585464146,
0.020099750623441395,-0.005282119294782487,
0.020149625935162094,-0.036298978225704215,
0.020199501246882794,-0.027039981358360388,
0.020249376558603493,-0.042042965841885396,
0.02029925187032419,-0.028801204845952895,
0.020349127182044888,-0.0022583253516559217,
0.020399002493765587,-0.030928640551294094,
0.020448877805486283,-0.012928548856800202,
0.02049875311720698,-0.027207454255956703,
0.02054862842892768,-0.012339103684208624,
0.02059850374064838,-0.027016439430458464,
0.020648379052369076,-0.011520093925017249,
0.020698254364089775,-0.0315596601257719,
0.020748129675810474,-0.024571064055390134,
0.020798004987531173,-0.03698198210806589,
0.02084788029925187,-0.03478102927841227,
0.020897755610972568,-0.018339457683806785,
0.020947630922693267,-0.024214468591221467,
0.020997506234413967,-0.03343861434203395,
0.021047381546134662,-0.024442215852544538,
0.02109725685785536,-0.045489503487538156,
0.02114713216957606,-0.027281197046479758,
0.02119700748129676,-0.016008771981339834,
0.021246882793017455,-0.024775503488908744,
0.021296758104738155,-0.027715178669119225,
0.021346633416458854,-0.027716702273238615,
0.02139650872817955,-0.004575741639906488,
0.02144638403990025,-0.03654751054106828,
0.021496259351620948,-0.029890433372263804,
0.021546134663341647,-0.028181619637004322,
0.021596009975062343,0.0001538348991229413,
0.021645885286783042,0.00877045906011601,
0.02169576059850374,-0.0010072210105431297,
0.02174563591022444,-0.021689874932532067,
0.021795511221945136,-0.006351935045869669,
0.021845386533665835,-0.013162650511298243,
0.021895261845386534,-0.019348483019504256,
0.021945137157107233,-0.0007344332606169356,
0.02199501246882793,-0.03867841416022054,
0.02204488778054863,-0.0026201233345788943,
0.022094763092269327,-0.004252899289089434,
0.022144638403990027,-0.02599042793581545,
0.022194513715710722,-0.023871094453418472,
0.02224438902743142,-0.02291997574121262,
0.02229426433915212,0.0012879390807863846,
0.022344139650872816,-0.009312479011460118,
0.022394014962593516,-0.0274964430331791,
0.022443890274314215,-0.003667930104792152,
0.022493765586034914,-0.02035130120024055,
0.02254364089775561,-0.028418596232679484,
0.02259351620947631,0.0008538234218397507,
0.022643391521197008,-0.005993267391420706,
0.022693266832917707,-0.012054962988436845,
0.022743142144638403,0.014629164483272249,
0.022793017456359102,-0.01459605519813153,
0.0228428927680798,-0.027497548158647377,
0.0228927680798005,-0.0030884554191823003,
0.022942643391521196,0.0073926387009127185,
0.022992518703241895,0.002564189466737773,
0.023042394014962594,-0.0013835538605306008,
0.02309226932668329,-0.02192734713780928,
0.02314214463840399,-0.029983118411091948,
0.02319201995012469,-0.009106911240487776,
0.023241895261845388,-0.023654155105161986,
0.023291770573566083,-0.015947366754502555,
0.023341645885286783,-0.011395790814300436,
0.02339152119700748,0.007888267363793083,
0.02344139650872818,0.006668535904834988,
0.023491271820448877,-0.03152520375142843,
0.023541147132169576,0.007694137416535061,
0.023591022443890275,-0.008569449906431381,
0.023640897755610974,-0.015162560472835106,
0.02369077306733167,-0.004411972667552874,
0.02374064837905237,-0.012061434443342726,
0.023790523690773068,-0.016441346004399726,
0.023840399002493767,7.143259294711303e-05,
0.023890274314214463,0.0037992086211766163,
0.023940149625935162,0.00785966747028254,
0.02399002493765586,-0.006118988719616708,
0.024039900249376557,0.02821523241103436,
0.024089775561097256,0.004339086190485434,
0.024139650872817955,-0.007028791433051818,
0.024189526184538655,0.013754716931930304,
0.02423940149625935,-0.01822972751214345,
0.02428927680798005,-0.018974854522489926,
0.02433915211970075,0.0009292188406651173,
0.024389027431421448,-0.0329856335417686,
0.024438902743142144,-0.0074576699826346005,
0.024488778054862843,0.005115408543588036,
0.024538653366583542,0.017792993702409592,
0.02458852867830424,-0.0022123295054904393,
0.024638403990024937,0.018837675073142632,
0.024688279301745636,-0.019716490877920056,
0.024738154613466335,0.0036881565558115424,
0.02478802992518703,0.01554423324882531,
0.02483790523690773,0.022871092802478465,
0.02488778054862843,-0.006327121865057689,
0.02493765586034913,0.01662417617091006,
0.024987531172069824,0.027168440082652814,
0.025037406483790523,-0.008720799561864789,
0.025087281795511222,0.014014545350687092,
0.02513715710723192,-0.006330638361551636,
0.025187032418952617,0.0014615865898767331,
0.025236907730673316,0.025216723593426013,
0.025286783042394016,-0.012126340189404573,
0.025336658354114715,0.008882256324064168,
0.02538653366583541,-0.008496923488248084,
0.02543640897755611,0.04112482603150083,
0.02548628428927681,0.0004379322872006012,
0.025536159600997508,0.007263998752088141,
0.025586034912718204,0.018892242892984364,
0.025635910224438903,-0.0005551878767525182,
0.025685785536159602,-0.0014435003244825696,
0.025735660847880298,0.014839410928301794,
0.025785536159600997,0.02200057122342286,
0.025835411471321696,-0.0020790522923086717,
0.025885286783042395,0.0057799045581589025,
0.02593516209476309,0.01182494871131258,
0.02598503740648379,0.02065581709651884,
0.02603491271820449,0.006690061555333224,
0.02608478802992519,-0.004036596954615909,
0.026134663341645884,-0.011141004865639164,
0.026184538653366583,-0.001812041172691136,
0.026234413965087282,0.018072673446622486,
0.02628428927680798,0.01086317673448961,
0.026334164588528677,0.008918742665949421,
0.026384039900249377,0.0095319970217143,
0.026433915211970076,0.014922893502080477,
0.02648379052369077,0.020543090695608626,
0.02653366583541147,-0.003630462544279789,
0.02658354114713217,-0.020079039990825498,
0.02663341645885287,0.006000749539437183,
0.026683291770573565,-0.0014176568908021749,
0.026733167082294264,-0.007210162423982383,
0.026783042394014963,0.010337474860137436,
0.026832917705735662,-0.005050837284789205,
0.026882793017456358,0.04127792869037358,
0.026932668329177057,0.0074634713125016575,
0.026982543640897756,0.007357650018292943,
0.027032418952618455,0.04525306484025504,
0.02708229426433915,0.028900566447651585,
0.02713216957605985,0.015166900676266292,
0.02718204488778055,0.005054390350958249,
0.02723192019950125,0.011603068551700551,
0.027281795511221944,0.03403648865080245,
0.027331670822942643,0.010778951883208087,
0.027381546134663343,0.022361076166314137,
0.02743142144638404,0.02244558692252894,
0.027481296758104738,0.029583204055264448,
0.027531172069825437,0.01021750827491984,
0.027581047381546136,0.04033974155196791,
0.02763092269326683,0.008705697059994605,
0.02768079800498753,0.03784750050296739,
0.02773067331670823,0.021436885880373832,
0.02778054862842893,0.01896533276213757,
0.027830423940149625,0.021375557812473453,
0.027880299251870324,0.026116489814411854,
0.027930174563591023,0.03142295480651463,
0.027980049875311722,0.05033600688327962,
0.028029925187032418,-0.0005368016033856539,
0.028079800498753117,0.01719803759253348,
0.028129675810473816,0.020453788998747297,
0.028179551122194512,0.03883051494312957,
0.02822942643391521,0.010883417340826458,
0.02827930174563591,0.018646244019620728,
0.02832917705735661,0.04564283156905611,
0.028379052369077305,0.015564493937202955,
0.028428927680798004,0.004291769635484378,
0.028478802992518704,0.05071775432849074,
0.028528678304239403,-0.010848490575698401,
0.0285785536159601,0.012528309526369725,
0.028628428927680798,0.03280658510920279,
0.028678304239401497,0.026131142223861648,
0.028728179551122196,0.017920839116782293,
0.02877805486284289,-9.187774595987089e-05,
0.02882793017456359,0.022932173577429042,
0.02887780548628429,0.006658336745849135,
0.02892768079800499,0.01922506724347368,
0.028977556109725685,0.01189160347689695,
0.029027431421446384,0.016144863049869985,
0.029077306733167083,0.015038985487537803,
0.02912718204488778,0.04291137106677344,
0.029177057356608478,0.05877523729514436,
0.029226932668329177,0.014745165096024308,
0.029276807980049877,0.043801920811402925,
0.029326683291770572,0.004403939668204442,
0.02937655860349127,0.03783198301891849,
0.02942643391521197,0.02782513032077458,
0.02947630922693267,-0.0018876771886711073,
0.029526184538653365,0.010792356437724911,
0.029576059850374065,0.015408677928849526,
0.029625935162094764,0.026558309423609015,
0.029675810473815463,0.02577040469516188,
0.02972568578553616,0.014891751733393936,
0.029775561097256858,0.005053773802584035,
0.029825436408977557,-0.007099908644085485,
0.029875311720698253,0.014870300913199252,
0.029925187032418952,0.0198629476004988,
0.02997506234413965,0.046818485021242695,
0.03002493765586035,0.023815873247009046,
0.030074812967581046,0.012550549132711933,
0.030124688279301745,0.04363107255098738,
0.030174563591022444,0.02987875038887464,
0.030224438902743143,0.019951312975158446,
0.03027431421446384,-0.0044588851643230995,
0.03032418952618454,0.010163927356728435,
0.030374064837905237,0.022585511262347528,
0.030423940149625937,0.01625091643933561,
0.030473815461346632,0.030056341721184664,
0.03052369077306733,0.026137529880127006,
0.03057356608478803,-0.013083356906521341,
0.03062344139650873,0.018542328730471992,
0.030673316708229426,0.02696727434761173,
0.030723192019950125,0.043475878677714325,
0.030773067331670824,-0.0017193389082820684,
0.03082294264339152,0.008613786936529765,
0.03087281795511222,0.026405389271941478,
0.030922693266832918,0.006047311652826683,
0.030972568578553617,0.02938735167943674,
0.031022443890274313,0.023642245736364233,
0.031072319201995012,0.03167833649168526,
0.03112219451371571,0.05712518722798222,
0.03117206982543641,0.016139841936418604,
0.031221945137157106,0.014432241550525325,
0.03127182044887781,0.03614669311511391,
0.031321695760598504,0.049190790324210545,
0.0313715710723192,0.032393669505264094,
0.0314214463840399,0.03797426306698122,
0.0314713216957606,0.018081069093946092,
0.031521197007481294,0.02718418967058287,
0.031571072319202,0.015858441324033204,
0.03162094763092269,-0.0013631647630650834,
0.03167082294264339,0.019095776363913464,
0.03172069825436409,0.021871836257263404,
0.03177057356608479,0.01619247899311177,
0.03182044887780549,0.03589256569710601,
0.031870324189526185,0.029346934213551515,
0.03192019950124688,0.026239455120969327,
0.03197007481296758,0.009144540474239522,
0.03201995012468828,0.018953644950468158,
0.032069825436408975,0.011053625628160365,
0.03211970074812968,0.01379309809769002,
0.03216957605985037,0.014352682505312901,
0.032219451371571076,0.022121229490608272,
0.03226932668329177,0.01887095882360913,
0.03231920199501247,0.003897176308371943,
0.03236907730673317,0.01781196977139789,
0.032418952618453865,0.025913176623680853,
0.03246882793017456,0.026721080870642136,
0.032518703241895264,2.7848689864995446e-05,
0.03256857855361596,0.01603771162511578,
0.032618453865336655,-0.007201616296003698,
0.03266832917705736,0.006963483147766328,
0.032718204488778053,0.01509563900486792,
0.032768079800498756,0.025401301726960094,
0.03281795511221945,0.028191053880558575,
0.03286783042394015,0.0030799895887783316,
0.03291770573566085,0.020345009538860297,
0.032967581047381546,0.00868729999220256,
0.03301745635910224,0.017530086021465375,
0.033067331670822944,0.007006532252588316,
0.03311720698254364,0.0003797410898345316,
0.03316708229426434,0.030293065201290242,
0.03321695760598504,0.021596969727707593,
0.033266832917705734,0.024579035668521487,
0.03331670822942644,0.025574228472495585,
0.03336658354114713,0.006449662208943286,
0.03341645885286783,0.012984756550532349,
0.03346633416458853,0.0023378790268772376,
0.033516209476309226,0.022886621545783598,
0.03356608478802992,0.0355746753583291,
0.033615960099750625,0.02587941663122563,
0.03366583541147132,0.015465099033924472,
0.03371571072319202,-0.004655884557911098,
0.03376558603491272,0.0033989197295902955,
0.033815461346633414,0.014689636441191069,
0.03386533665835412,0.029415866522612334,
0.03391521197007481,0.014055066893846248,
0.03396508728179551,0.009303831916850025,
0.03401496259351621,-0.0030573660187719915,
0.03406483790523691,0.008587069094540248,
0.0341147132169576,0.016268983190721297,
0.034164588528678305,0.018229234742725118,
0.034214463840399,0.008909886664296405,
0.034264339152119704,-0.007705559910123885,
0.0343142144638404,0.026672085864178685,
0.034364089775561095,0.017469045576533667,
0.0344139650872818,-0.0015200098720659907,
0.03446384039900249,0.027328686268286696,
0.03451371571072319,0.02451388982327344,
0.03456359102244389,0.009856209990189083,
0.03461346633416459,-0.0010293447767627676,
0.03466334164588529,-0.001211604923577813,
0.034713216957605986,0.004183926221083938,
0.03476309226932668,-0.026499463517407132,
0.034812967581047384,0.010646617399444303,
0.03486284289276808,0.004446330312662047,
0.034912718204488775,-0.0014095061857605186,
0.03496259351620948,-0.006186854061868348,
0.035012468827930174,0.014655134268489958,
0.03506234413965087,-0.01227697306516883,
0.03511221945137157,0.012306844282322359,
0.03516209476309227,-0.0015709765346824194,
0.03521197007481297,0.01307292512029519,
0.035261845386533666,-0.01196037870056091,
0.03531172069825436,0.018744949901767092,
0.035361596009975065,-0.002183937183388605,
0.03541147132169576,0.0038788854305318774,
0.035461346633416456,-0.019364447422261264,
0.03551122194513716,0.012485816001893342,
0.035561097256857854,-0.003176577285563967,
0.03561097256857856,-0.012379694139661574,
0.03566084788029925,0.03854557801618448,
0.03571072319201995,0.024721947640353212,
0.03576059850374065,-0.02791986239561148,
0.03581047381546135,-0.005301196600452273,
0.03586034912718204,-0.03197510820369355,
0.035910224438902745,-0.014796398574817408,
0.03596009975062344,-0.025699190359967553,
0.036009975062344136,-0.004005946114131227,
0.03605985037406484,-0.02871310690109012,
0.036109725685785535,0.012525880030268851,
0.03615960099750624,-0.015257418495709218,
0.03620947630922693,0.009813188100454381,
0.03625935162094763,0.010049071129140214,
0.03630922693266833,0.03185173209355208,
0.03635910224438903,0.0005203347166104506,
0.03640897755610972,-0.0031929936420613584,
0.036458852867830426,-0.02391849978874936,
0.03650872817955112,-0.004838090434036357,
0.036558603491271824,-0.015526939949986657,
0.03660847880299252,-0.002935334461370241,
0.036658354114713215,-0.007211040398930838,
0.03670822942643392,-0.009718169396480156,
0.036758104738154614,-0.030440989036637237,
0.03680798004987531,0.009832532271901066,
0.03685785536159601,0.0046278756328820385,
0.03690773067331671,-0.002608373364536922,
0.0369576059850374,-0.008583887335534042,
0.037007481296758106,0.0031389234531018096,
0.0370573566084788,-0.009791454719281504,
0.037107231920199504,0.01627235854958082,
0.0371571072319202,-0.008135721611972131,
0.037206982543640896,0.002889673939633625,
0.0372568578553616,-0.010659356232297421,
0.037306733167082294,-0.01377488850463735,
0.03735660847880299,-0.009607601401031266,
0.03740648379052369,-0.008953741357019526,
0.03745635910224439,-0.03407483700933628,
0.037506234413965084,0.005249698441377203,
0.037556109725685786,-0.023583754078841224,
0.03760598503740648,-0.024215298368495862,
0.037655860349127185,-0.018856632472432956,
0.03770573566084788,-0.009840765247802382,
0.037755610972568576,-0.01409642467658942,
0.03780548628428928,-0.0073541570615514125,
0.037855361596009975,-0.019421025618849588,
0.03790523690773067,0.010476001787950086,
0.03795511221945137,-0.01744293287947435,
0.03800498753117207,-0.0063499943512606355,
0.03805486284289277,-0.042721389914951,
0.03810473815461347,-0.036439865850034434,
0.03815461346633416,-0.027647499793714902,
0.038204488778054865,-0.023795017694132815,
0.03825436408977556,-0.01633656662129633,
0.03830423940149626,0.0012465817673070548,
0.03835411471321696,-0.04466351681682741,
0.038403990024937655,-0.006909057365453819,
0.03845386533665835,-0.02493097768037817,
0.03850374064837905,-0.023483237064232013,
0.03855361596009975,0.016555147736735897,
0.03860349127182045,-0.014410927223123034,
0.03865336658354115,-0.022351269611212733,
0.03870324189526184,-0.031875122170548734,
0.038753117206982546,-0.006370773544555702,
0.03880299251870324,-0.031475814326903565,
0.03885286783042394,-0.038224039721624636,
0.03890274314214464,-0.035075443954899206,
0.038952618453865336,-0.02587251663343182,
0.03900249376558604,0.0029600703279003514,
0.039052369077306734,-0.005464899253328536,
0.03910224438902743,-0.028849420900483758,
0.03915211970074813,-0.007472244579390415,
0.03920199501246883,-0.036570345820846915,
0.039251870324189524,-0.04359975658441963,
0.039301745635910226,0.006588280874403014,
0.03935162094763092,0.010395156953952486,
0.03940149625935162,-0.027924624445383295,
0.03945137157107232,-0.03519945377954205,
0.039501246882793016,-0.011603375614605518,
0.03955112219451372,-0.011774760031887908,
0.039600997506234414,-0.023049187256428086,
0.03965087281795511,-0.02931419760531694,
0.03970074812967581,-0.0022942397198762766,
0.03975062344139651,-0.011678143770995221,
0.039800498753117204,-0.023069655889979418,
0.03985037406483791,-0.031472989151379055,
0.0399002493765586,-0.014595356046812155,
0.039950124688279305,-0.033975476678833355,
0.04,-0.0060553159907054625,
0.0400498753117207,-0.0002362805198818617,
0.0400997506234414,0.007434227349824869,
0.040149625935162095,-0.029778455744674633,
0.04019950124688279,-0.02713424979808956,
0.04024937655860349,-0.01332149505803655,
0.04029925187032419,0.003419986972879943,
0.040349127182044885,-0.018662470977317297,
0.04039900249376559,-0.021822014389483897,
0.04044887780548628,-0.04932286020002761,
0.040498753117206986,-0.006568225527034666,
0.04054862842892768,-0.035895183403347616,
0.04059850374064838,-0.016223178817445554,
0.04064837905236908,-0.0254420665592775,
0.040698254364089775,0.0007563152035369308,
0.04074812967581047,-0.022459287171199632,
0.040798004987531174,-0.015301444588929129,
0.04084788029925187,-0.016527700798705497,
0.040897755610972565,-0.024178022239768778,
0.04094763092269327,0.007950772855382319,
0.04099750623441396,0.05426938806072143,
0.041047381546134666,-0.030622485251455608,
0.04109725685785536,-0.020493226380462796,
0.04114713216957606,-0.02627048349086747,
0.04119700748129676,-0.011184125624462653,
0.041246882793017456,-0.012019762159918361,
0.04129675810473815,-0.0018119859299595368,
0.041346633416458854,-0.035435687164454055,
0.04139650872817955,-0.0007412175222856737,
0.04144638403990025,-0.04419011032913662,
0.04149625935162095,-0.005253397934008719,
0.041546134663341644,-0.025488361431513028,
0.04159600997506235,-0.03461166800819179,
0.04164588528678304,-0.010151709926605742,
0.04169576059850374,-0.023556237148857767,
0.04174563591022444,0.007981068346608063,
0.041795511221945136,-0.004693406579802054,
0.04184538653366583,-0.01868496534304015,
0.041895261845386535,-0.020338148358473383,
0.04194513715710723,-0.014696848372445868,
0.04199501246882793,0.01649784063005806,
0.04204488778054863,-0.038955538741612436,
0.042094763092269324,-0.032235395492003036,
0.04214463840399003,0.009374337617303115,
0.04219451371571072,-0.029743834714430616,
0.04224438902743142,-0.007628186673384017,
0.04229426433915212,-0.0005080011249851725,
0.04234413965087282,-0.01706588048183534,
0.04239401496259352,8.18231972269344e-06,
0.042443890274314215,-0.041364495209500904,
0.04249376558603491,-0.0051275059774950164,
0.042543640897755614,0.016588612007739242,
0.04259351620947631,-0.008209039166414196,
0.042643391521197005,0.0008575954665386663,
0.04269326683291771,0.02770531061986687,
0.0427431421446384,-0.011940604188107502,
0.0427930174563591,-0.028827640722747235,
0.0428428927680798,-0.04328309377218847,
0.0428927680798005,-0.007043218869835126,
0.0429426433915212,-0.026697761526471554,
0.042992518703241896,0.0040500675294551855,
0.04304239401496259,0.007926870683128702,
0.043092269326683294,-0.014678247342251413,
0.04314214463840399,-0.03204511547291787,
0.043192019950124685,0.004990164799251573,
0.04324189526184539,-0.012422669251762806,
0.043291770573566084,0.00515382860805489,
0.043341645885286786,-0.005873560478715806,
0.04339152119700748,-0.0010057004798561973,
0.04344139650872818,0.0014773260086943614,
0.04349127182044888,-0.008387640738177117,
0.043541147132169576,0.0040560321801448185,
0.04359102244389027,0.0190748452590798,
0.043640897755610975,-0.0244933176360108,
0.04369077306733167,-0.022313047669963428,
0.043740648379052366,-0.006701562076124789,
0.04379052369077307,-0.020624020576177925,
0.043840399002493764,-0.029354110291840915,
0.04389027431421447,0.011151004849191948,
0.04394014962593516,0.004627853129607844,
0.04399002493765586,-0.014283333858121982,
0.04403990024937656,0.018664948543967424,
0.04408977556109726,0.03318265451162009,
0.04413965087281795,0.007978092189188461,
0.044189526184538655,0.01930504740892829,
0.04423940149625935,0.0001260551414943834,
0.04428927680798005,0.002062936614817611,
0.04433915211970075,-0.0160856007620641,
0.044389027431421445,-0.001958495558169903,
0.04443890274314215,0.009454985373463957,
0.04448877805486284,5.385556503832305e-05,
0.04453865336658354,0.006302816030877034,
0.04458852867830424,0.020795412704620177,
0.04463840399002494,0.013808559299958358,
0.04468827930174563,0.017877762977568625,
0.044738154613466335,0.008896257868779919,
0.04478802992518703,-0.008107110623217367,
0.044837905236907734,-0.020582824231041866,
0.04488778054862843,-0.008215209993527236,
0.044937655860349125,-0.0032466792928195886,
0.04498753117206983,-0.0033174325474060805,
0.045037406483790524,0.00937199454876217,
0.04508728179551122,0.038583116348245676,
0.04513715710723192,0.02077574335830423,
0.04518703241895262,0.005278308170613637,
0.04523690773067331,-0.0072631697409926525,
0.045286783042394016,0.00944130110659986,
0.04533665835411471,0.0254513493946002,
0.045386533665835414,0.03709305010954627,
0.04543640897755611,-0.008800769073183334,
0.045486284289276806,0.02919836065508461,
0.04553615960099751,0.0032084166766087976,
0.045586034912718204,0.003492585232589414,
0.0456359102244389,0.0055866113577091045,
0.0456857855361596,0.01981346774358521,
0.0457356608478803,0.005664447537298318,
0.045785536159601,0.022050646443596215,
0.045835411471321696,0.01633229602456715,
0.04588528678304239,0.014935155618586046,
0.045935162094763095,0.013222916524770166,
0.04598503740648379,0.009156465763011566,
0.046034912718204486,0.002378355157640285,
0.04608478802992519,0.03602456746495793,
0.046134663341645885,0.004252782323043274,
0.04618453865336658,0.025385557366729723,
0.04623441396508728,0.0360497950113337,
0.04628428927680798,0.014720259073828054,
0.04633416458852868,0.017413501391064103,
0.04638403990024938,-0.004611176119923774,
0.04643391521197007,-0.008248787346777607,
0.046483790523690775,-0.0108086944170405,
0.04653366583541147,0.016011521230307114,
0.04658354114713217,0.0007051665536696502,
0.04663341645885287,0.004711738453812651,
0.046683291770573565,0.01743923894785819,
0.04673316708229427,0.020260225863348642,
0.04678304239401496,0.0066327662378168105,
0.04683291770573566,0.020617085274785223,
0.04688279301745636,-0.0014530349485693261,
0.04693266832917706,-0.00586065927311644,
0.04698254364089775,0.011538089332613027,
0.047032418952618456,0.04001502645059263,
0.04708229426433915,0.0023436483179949466,
0.04713216957605985,0.032436540067842766,
0.04718204488778055,0.01188463884427885,
0.047231920199501246,0.027107409829064993,
0.04728179551122195,0.04305528775149467,
0.047331670822942644,-0.0045299225283222805,
0.04738154613466334,0.011124752495445877,
0.04743142144638404,0.023097304366159435,
0.04748129675810474,0.03254952390712399,
0.047531172069825434,0.01807509630810064,
0.047581047381546136,0.028069107009496004,
0.04763092269326683,0.020490034261986884,
0.047680798004987535,0.031102070134910672,
0.04773067331670823,0.02268708934175129,
0.047780548628428926,-0.0031108940640001345,
0.04783042394014963,0.02951591984979691,
0.047880299251870324,0.04203769810625543,
0.04793017456359102,0.02070036414595447,
0.04798004987531172,0.028925113929386036,
0.04802992518703242,0.05236891320798808,
0.048079800498753114,0.01836478017210141,
0.04812967581047382,0.024516645019782797,
0.04817955112219451,0.02842928703505633,
0.048229426433915215,-0.0022896013021196197,
0.04827930174563591,0.01291572504079176,
0.048329177057356607,0.03207920999093911,
0.04837905236907731,-0.0025568697716523946,
0.048428927680798005,0.020189220610431366,
0.0484788029925187,0.03847426547350819,
0.0485286783042394,0.015155025312057393,
0.0485785536159601,0.002129154279546762,
0.048628428927680795,0.012846176316063452,
0.0486783042394015,0.02291862759172472,
0.04872817955112219,0.04147267134923657,
0.048778054862842896,0.02289003992309858,
0.04882793017456359,0.0017770904962818822,
0.04887780548628429,0.01144732076095617,
0.04892768079800499,0.016593344224007156,
0.048977556109725685,0.03614955309249394,
0.04902743142144638,0.019083866724164157,
0.049077306733167084,0.010817310733193667,
0.04912718204488778,0.02450981468309324,
0.04917705735660848,0.03117773581545842,
0.04922693266832918,0.0131119627988774,
0.04927680798004987,0.03401367263664132,
0.049326683291770576,0.04395835020248906,
0.04937655860349127,0.014399061488532193,
0.04942643391521197,0.037021073720177836,
0.04947630922693267,0.022133303065278366,
0.049526184538653366,0.020467294266327565,
0.04957605985037406,0.024727995638628642,
0.049625935162094764,0.03684420475401627,
0.04967581047381546,0.009601686284458462,
0.04972568578553616,0.017042540906336515,
0.04977556109725686,0.02863185316930149,
0.049825436408977554,0.029244010537902848,
0.04987531172069826,0.051914798313669824,
0.04992518703241895,0.03936450179649551,
0.04997506234413965,0.03427442819325081,
0.05002493765586035,0.0641951087498295,
0.050074812967581046,-0.0047661768842531295,
0.05012468827930175,0.025813377233603003,
0.050174563591022445,0.018906311618846608,
0.05022443890274314,-0.003336621093444271,
0.05027431421446384,0.034193201398196676,
0.05032418952618454,0.008377943264239695,
0.050374064837905234,0.0043307774955200565,
0.05042394014962594,0.033004701356968445,
0.05047381546134663,0.014009646047975222,
0.05052369077306733,0.041136827115704516,
0.05057356608478803,0.017752692840758526,
0.05062344139650873,0.02820536254795248,
0.05067331670822943,0.04855803037511408,
0.050723192019950125,0.04602037283400043,
0.05077306733167082,0.020180746672142442,
0.050822942643391524,0.012525620340576667,
0.05087281795511222,0.02559171176327906,
0.050922693266832915,0.026511953329527486,
0.05097256857855362,0.015577211322910584,
0.05102244389027431,0.04359129246122752,
0.051072319201995016,0.007156977262113532,
0.05112219451371571,0.020156876174385448,
0.05117206982543641,0.019706705280360164,
0.05122194513715711,0.010679529195555123,
0.051271820448877806,0.011843615887821292,
0.0513216957605985,0.011043239184172899,
0.051371571072319204,0.030722316665424965,
0.0514214463840399,0.027860774169758643,
0.051471321695760595,0.006096260504238973,
0.0515211970074813,-0.0075176447051991425,
0.051571072319201994,0.02426147435529124,
0.051620947630922696,0.03177434950921136,
0.05167082294264339,0.027493086204594033,
0.05172069825436409,0.0014878635201006664,
0.05177057356608479,0.04336670376189883,
0.051820448877805486,0.018327989859330852,
0.05187032418952618,0.02370264103327902,
0.051920199501246884,0.015710174583146184,
0.05197007481296758,0.021571760272168335,
0.052019950124688276,0.008131883784473043,
0.05206982543640898,0.002317754500336198,
0.052119700748129674,0.046386381466548374,
0.05216957605985038,0.0070048631077055425,
0.05221945137157107,0.03849812730496849,
0.05226932668329177,0.013058607525415288,
0.05231920199501247,0.05684361048960168,
0.05236907730673317,0.03507264795642187,
0.05241895261845386,0.02077212602325777,
0.052468827930174565,0.009552374989001727,
0.05251870324189526,0.01155622134774863,
0.05256857855361596,0.034377276674703514,
0.05261845386533666,0.005744814434966654,
0.052668329177057355,0.048119499461704185,
0.05271820448877806,0.010344693442311429,
0.05276807980049875,0.04641295123442279,
0.05281795511221945,0.015620446931321575,
0.05286783042394015,0.019293155733711237,
0.05291770573566085,0.028700348925440787,
0.05296758104738154,0.02110188804905779,
0.053017456359102245,0.007252474707307659,
0.05306733167082294,0.003525294268104587,
0.053117206982543644,0.008697230899685547,
0.05316708229426434,-0.0039181455520994855,
0.053216957605985035,0.006248890464375526,
0.05326683291770574,0.017456217795974043,
0.053316708229426434,-0.008037756717784715,
0.05336658354114713,-0.0015631565602084035,
0.05341645885286783,0.011655490159444698,
0.05346633416458853,-0.006261549094749786,
0.05351620947630923,-0.01869610570767477,
0.053566084788029926,-0.005470787797724761,
0.05361596009975062,-0.0028540651322571838,
0.053665835411471324,0.042701363299644454,
0.05371571072319202,0.019250068604448622,
0.053765586034912716,0.010596623154530251,
0.05381546134663342,0.00759751460649702,
0.053865336658354114,-0.003227312633500585,
0.05391521197007481,0.00533879913350167,
0.05396508728179551,0.013357867760560384,
0.05401496259351621,0.02190869667228583,
0.05406483790523691,-0.001913641715073789,
0.054114713216957606,0.00857299751692598,
0.0541645885286783,0.021857028385784655,
0.054214463840399005,0.002316828136670792,
0.0542643391521197,-0.005326389555510057,
0.054314214463840396,0.016407022089157175,
0.0543640897755611,0.016649571394553794,
0.054413965087281795,-0.000389942929710908,
0.0544638403990025,-0.01011301454789346,
0.05451371571072319,-0.01503155968272965,
0.05456359102244389,0.0033613852517174587,
0.05461346633416459,-0.001146229817508478,
0.05466334164588529,0.021602870558643864,
0.05471321695760598,0.00236640634480917,
0.054763092269326685,0.037506459564302506,
0.05481296758104738,0.015424428113799767,
0.05486284289276808,-0.004598551163663969,
0.05491271820448878,0.006137732724655018,
0.054962593516209475,0.026230961171517936,
0.05501246882793018,0.02015825851349027,
0.05506234413965087,-0.0025696750116937003,
0.05511221945137157,-0.016659242616928013,
0.05516209476309227,0.002162271789830925,
0.05521197007481297,0.04335481541247486,
0.05526184538653366,0.005653415857241718,
0.055311720698254366,0.01994644507075119,
0.05536159600997506,-0.0030167569732561243,
0.05541147132169576,0.0015747708044745415,
0.05546134663341646,0.006840266137310249,
0.055511221945137156,-0.009858624600173607,
0.05556109725685786,0.00970707326467219,
0.055610972568578554,-0.008578110071350585,
0.05566084788029925,0.016538020144505623,
0.05571072319201995,0.015893314603897434,
0.05576059850374065,0.021425419377985255,
0.055810473815461344,-0.005240041066574212,
0.055860349127182046,0.016369649112780073,
0.05591022443890274,-0.00940904611642934,
0.055960099750623445,0.015029336355351568,
0.05600997506234414,0.004692200463998515,
0.056059850374064836,-0.00044187659426423863,
0.05610972568578554,0.014895496778151109,
0.056159600997506234,-0.01586428979330639,
0.05620947630922693,-0.0017270703283805906,
0.05625935162094763,0.008672070480720901,
0.05630922693266833,-0.027867093375713043,
0.056359102244389024,-0.012805660008545185,
0.05640897755610973,-0.010190736174108955,
0.05645885286783042,-0.021954285897331286,
0.056508728179551125,-0.009371649102498292,
0.05655860349127182,0.02045595088276136,
0.056608478802992516,0.005314587743986144,
0.05665835411471322,-0.013659956548003782,
0.056708229426433915,0.006463308805134366,
0.05675810473815461,0.01113349402027361,
0.05680798004987531,-0.020888435733581852,
0.05685785536159601,-0.0023933656675532355,
0.05690773067331671,-0.005316851139964116,
0.05695760598503741,-0.008309284156085558,
0.0570074812967581,-0.005596448180461745,
0.057057356608478806,0.00206914409332859,
0.0571072319201995,-0.015516919452144347,
0.0571571072319202,-0.005825336825852241,
0.0572069825436409,-0.03901314248428066,
0.057256857855361595,-0.01584855689781179,
0.05730673316708229,-0.03719820272098268,
0.057356608478802994,-0.014263474134614108,
0.05740648379052369,-0.027340137600274404,
0.05745635910224439,-0.009767335439865335,
0.05750623441396509,-0.022353276255959047,
0.05755610972568578,-0.020932421443614034,
0.057605985037406486,-0.008710267230662786,
0.05765586034912718,-0.016216832338216865,
0.05770573566084788,-0.008170750421566913,
0.05775561097256858,-0.027844314472637525,
0.057805486284289276,-0.01767906617536332,
0.05785536159600998,-0.001447229134640883,
0.057905236907730674,-0.00852444401471801,
0.05795511221945137,-0.014086216059039976,
0.05800498753117207,-0.02905489723693809,
0.05805486284289277,-0.029692954504579618,
0.058104738154613464,-0.021449786464334007,
0.05815461346633417,-0.026991237790392853,
0.05820448877805486,-0.023369463608808996,
0.05825436408977556,-0.021457619214231446,
0.05830423940149626,-0.01919907656944966,
0.058354114713216956,-0.010622656391133418,
0.05840399002493766,-0.02823028770362684,
0.058453865336658355,-0.0246767074539015,
0.05850374064837905,-0.03366735768719932,
0.05855361596009975,-0.013801613289959122,
0.05860349127182045,0.00030102927711700075,
0.058653366583541144,-0.009897929480838036,
0.05870324189526185,-0.03680396370974211,
0.05875311720698254,-0.04272295187600714,
0.05880299251870324,0.02186275057364523,
0.05885286783042394,-0.003783337324179844,
0.05890274314214464,-0.013842888595584676,
0.05895261845386534,-0.0016644220501305512,
0.059002493765586035,-0.01711271127137247,
0.05905236907730673,-0.01507417373602112,
0.059102244389027433,-0.027497289239229446,
0.05915211970074813,-0.01860444366424268,
0.059201995012468825,-0.01296110491947693,
0.05925187032418953,-0.018713575234624195,
0.05930174563591022,-0.01791096104682307,
0.059351620947630926,-0.04057669331123988,
0.05940149625935162,-0.0020221414800674544,
0.05945137157107232,-0.00714492961491069,
0.05950124688279302,-0.03938442384130682,
0.059551122194513716,-0.025264552193640485,
0.05960099750623441,-0.03911746489541942,
0.059650872817955114,0.004056926292989246,
0.05970074812967581,0.006128125583177282,
0.059750623441396505,-0.012994330250693376,
0.05980049875311721,-0.01608871092951322,
0.059850374064837904,-0.004660704781562237,
0.059900249376558606,-0.003204352611778389,
0.0599501246882793,0.0070595075209103336,
0.06,0.0034141350938625623,
0.0600498753117207,-0.007236616071293375,
0.060099750623441396,-0.01568016797687766,
0.06014962593516209,-0.022752636417138407,
0.060199501246882794,-0.00354593127208995,
0.06024937655860349,-0.02386375171740675,
0.06029925187032419,-0.012480473195079209,
0.06034912718204489,-0.024919041401940192,
0.060399002493765584,-0.037269401063160304,
0.06044887780548629,-0.011445287829484306,
0.06049875311720698,-0.0015355878243620748,
0.06054862842892768,-0.030231940224794702,
0.06059850374064838,-0.026583693886351633,
0.06064837905236908,-0.009298552085633901,
0.06069825436408977,-0.020842283594100675,
0.060748129675810475,-0.012216497803793556,
0.06079800498753117,-0.010276627258706792,
0.06084788029925187,0.00907877960564324,
0.06089775561097257,0.0020924801025085614,
0.060947630922693265,0.0019109342474055019,
0.06099750623441397,0.0012919649232392121,
0.06104738154613466,-0.008098038948385428,
0.06109725685785536,-0.00013011309036875703,
0.06114713216957606,-0.0005942844204445512,
0.06119700748129676,-0.043613737858283846,
0.06124688279301746,-0.00647657705947714,
0.061296758104738155,0.008966769040649674,
0.06134663341645885,-0.00766010651028789,
0.061396508728179554,-0.025041746796198396,
0.06144638403990025,0.00022655091179207484,
0.061496259351620945,-0.03047419432965135,
0.06154613466334165,-0.010633301686173421,
0.061596009975062344,-0.004659711319428359,
0.06164588528678304,0.018505481626588743,
0.06169576059850374,0.004750200520973011,
0.06174563591022444,-0.011147129721763498,
0.06179551122194514,-0.0049748342746698555,
0.061845386533665836,-0.034007676411232764,
0.06189526184538653,-0.013789568746629639,
0.061945137157107234,-0.029007224448863896,
0.06199501246882793,0.021654061903732327,
0.062044887780548626,-0.018735126278388588,
0.06209476309226933,-0.023513462302616854,
0.062144638403990024,-0.013935140222804555,
0.06219451371571072,0.005569366907289368,
0.06224438902743142,-0.01313595531126329,
0.06229426433915212,-0.016270043354283312,
0.06234413965087282,-0.01050831497458246,
0.062394014962593516,-0.002024786690412844,
0.06244389027431421,-0.025329022317828617,
0.062493765586034915,0.0037773185378957054,
0.06254364089775562,0.002083414906910823,
0.06259351620947631,0.0071564056341819355,
0.06264339152119701,-0.017108593824156186,
0.0626932668329177,-0.008985740896405591,
0.0627431421446384,0.0037107306970125802,
0.0627930174563591,0.011340148568707848,
0.0628428927680798,0.014586732273094368,
0.0628927680798005,-0.017774869943034823,
0.0629426433915212,-0.007679307962046342,
0.06299251870324189,-0.010744697619694439,
0.06304239401496259,0.010100783320139025,
0.0630922693266833,-0.008114916695985751,
0.063142144638404,0.006619466102882452,
0.06319201995012469,-0.01418151522616496,
0.06324189526184539,-0.029657502391520454,
0.06329177057356608,-0.0094138919728213,
0.06334164588528678,-0.01212600735236547,
0.06339152119700749,-0.01659882048537073,
0.06344139650872818,-0.016713868952696973,
0.06349127182044888,-0.025740988574434187,
0.06354114713216957,-0.013548122717463217,
0.06359102244389027,-0.015606312137148318,
0.06364089775561098,0.010441697979591675,
0.06369077306733167,-0.012288565298131444,
0.06374064837905237,-0.0003866127975186836,
0.06379052369077307,0.0014418127319849212,
0.06384039900249376,-0.012892322317877262,
0.06389027431421446,0.03191918707934571,
0.06394014962593517,0.0071674344496730135,
0.06399002493765586,0.0026987450723173195,
0.06403990024937656,0.0041698908693905455,
0.06408977556109725,-0.002837514345868211,
0.06413965087281795,-0.011112963065198492,
0.06418952618453866,-0.006754693347394952,
0.06423940149625935,-0.00916638067346474,
0.06428927680798005,-0.008157620263298727,
0.06433915211970075,0.0033981903981871826,
0.06438902743142144,-0.02780099902443835,
0.06443890274314215,0.002342957232837059,
0.06448877805486285,-0.002140977765805906,
0.06453865336658354,0.006404005483806653,
0.06458852867830424,0.036138614922603854,
0.06463840399002493,-0.01798047170272115,
0.06468827930174563,-0.015596625657433413,
0.06473815461346634,0.0015512555941842032,
0.06478802992518704,0.03325153825974967,
0.06483790523690773,-0.020545688362951092,
0.06488778054862843,0.0027332595153313557,
0.06493765586034912,-0.005836329362862088,
0.06498753117206983,0.0035182866541174774,
0.06503740648379053,-0.013802577489991624,
0.06508728179551122,0.0006024383069143718,
0.06513715710723192,0.012775126866815525,
0.06518703241895261,-0.002523964163911506,
0.06523690773067331,0.01703540632345217,
0.06528678304239402,0.03502359864508646,
0.06533665835411472,0.01750716398116922,
0.06538653366583541,0.024276954510086865,
0.06543640897755611,0.0193954904178225,
0.0654862842892768,0.0027982641476530564,
0.06553615960099751,-0.02161308484573383,
0.06558603491271821,-0.004494109058867223,
0.0656359102244389,0.023801572708370914,
0.0656857855361596,-0.008654691264855211,
0.0657356608478803,0.007651129167876116,
0.06578553615960099,0.01029993619807668,
0.0658354114713217,-0.005501155278634784,
0.0658852867830424,0.03403630675694369,
0.06593516209476309,0.01865660554229493,
0.06598503740648379,0.03417405824002681,
0.06603491271820448,0.02996441370954092,
0.06608478802992519,0.024495633558463986,
0.06613466334164589,-0.01504750134622925,
0.06618453865336658,-0.0039069263331801985,
0.06623441396508728,0.012944056194843954,
0.06628428927680798,0.010104722462039854,
0.06633416458852869,0.005769384011299032,
0.06638403990024938,0.012574251593700849,
0.06643391521197008,0.05383484566904975,
0.06648379052369077,0.012960436836118026,
0.06653366583541147,0.010574467242250063,
0.06658354114713216,0.014630470681164288,
0.06663341645885287,0.022087165320134293,
0.06668329177057357,0.02224753014324312,
0.06673316708229426,0.01717138530700843,
0.06678304239401496,0.00585886213726323,
0.06683291770573566,0.004931162252112544,
0.06688279301745637,0.014497916343318748,
0.06693266832917706,0.009596705168048333,
0.06698254364089776,0.0006087193615683419,
0.06703241895261845,-0.0028627176868887168,
0.06708229426433915,0.0270954003955517,
0.06713216957605984,-0.001118946103572823,
0.06718204488778055,0.021691346241851837,
0.06723192019950125,0.045319047031530876,
0.06728179551122195,-0.009932910109796966,
0.06733167082294264,0.01749681868466605,
0.06738154613466334,0.0086686229413468,
0.06743142144638405,0.015791331006636482,
0.06748129675810474,0.00040119046715221887,
0.06753117206982544,0.007410191985207612,
0.06758104738154613,0.03425544973178123,
0.06763092269326683,0.03542668168795462,
0.06768079800498752,0.021809628186047376,
0.06773067331670823,0.003708920737368955,
0.06778054862842893,0.016469151685551228,
0.06783042394014963,0.04865519937089348,
0.06788029925187032,0.013455975304636615,
0.06793017456359102,0.059481055049197214,
0.06798004987531173,0.02590596190838963,
0.06802992518703242,0.020059253532019563,
0.06807980049875312,0.02028867389250545,
0.06812967581047381,0.014430239619560721,
0.06817955112219451,0.016901821072542726,
0.0682294264339152,0.03734498463186559,
0.06827930174563591,0.04611463548497974,
0.06832917705735661,0.008067707256624732,
0.0683790523690773,0.0258710060806296,
0.068428927680798,-0.007232858570619661,
0.0684788029925187,0.007342581272329826,
0.06852867830423941,0.028195746307683137,
0.0685785536159601,0.025476237059142155,
0.0686284289276808,0.03566586726842569,
0.0686783042394015,0.025084310057103477,
0.06872817955112219,0.021604633626766297,
0.0687780548628429,-0.006760717917194927,
0.0688279301745636,0.025004532182183653,
0.06887780548628429,0.024387502131454884,
0.06892768079800499,0.0037869166959340894,
0.06897755610972568,0.021969479148038602,
0.06902743142144638,0.026774433185966954,
0.06907730673316709,0.03814366286088513,
0.06912718204488778,0.05184448874744342,
0.06917705735660848,0.002273851246789131,
0.06922693266832917,0.0033977649624175807,
0.06927680798004987,0.00397828884104081,
0.06932668329177058,0.028874340352899833,
0.06937655860349128,0.005967747824482214,
0.06942643391521197,0.02412407080885379,
0.06947630922693267,0.03162344436665546,
0.06952618453865336,0.0036807651856045863,
0.06957605985037406,0.026596240325240498,
0.06962593516209477,0.03073068319131911,
0.06967581047381546,0.0010819971227835588,
0.06972568578553616,0.01510491723129558,
0.06977556109725686,0.008283568998116591,
0.06982543640897755,0.024147912293723837,
0.06987531172069826,0.009548282650730221,
0.06992518703241896,0.07295920276723969,
0.06997506234413965,0.032250381778699204,
0.07002493765586035,0.020975851705747506,
0.07007481296758104,0.026874653301486928,
0.07012468827930174,0.01945061324111597,
0.07017456359102245,0.0188538051529155,
0.07022443890274314,0.017525396152242502,
0.07027431421446384,0.021157606181950412,
0.07032418952618454,0.029240746922561102,
0.07037406483790523,0.008920906215630409,
0.07042394014962594,0.003301266590420914,
0.07047381546134664,0.037016148541062895,
0.07052369077306733,0.04746349778121138,
0.07057356608478803,0.022078575858395424,
0.07062344139650872,0.025505336069759084,
0.07067331670822943,0.023405133065713044,
0.07072319201995013,0.02220011540209947,
0.07077306733167082,0.03947364395866224,
0.07082294264339152,0.01673407367348073,
0.07087281795511222,0.03768923409777737,
0.07092269326683291,0.01679851925152813,
0.07097256857855362,0.019471781661835157,
0.07102244389027432,0.015800494908526377,
0.07107231920199501,0.0038985455593166483,
0.07112219451371571,0.02804953990036632,
0.0711720698254364,0.031665568121341664,
0.07122194513715711,0.008005783850476213,
0.07127182044887781,0.027210831829208873,
0.0713216957605985,0.018896590227270034,
0.0713715710723192,0.02047389721174363,
0.0714214463840399,0.017860125229072106,
0.07147132169576059,0.02522410262628028,
0.0715211970074813,0.021382037337290223,
0.071571072319202,0.02234846045922388,
0.0716209476309227,0.030428376984176952,
0.07167082294264339,0.030070144479071408,
0.07172069825436408,0.007765881397237887,
0.0717705735660848,0.035335018270385654,
0.07182044887780549,0.03750011023917234,
0.07187032418952619,0.013837565952509817,
0.07192019950124688,-0.004574312341486177,
0.07197007481296758,0.004276643106817673,
0.07201995012468827,0.02705296948735853,
0.07206982543640898,0.014893399417239227,
0.07211970074812968,0.02732238979210769,
0.07216957605985037,0.0475445277322397,
0.07221945137157107,0.005416078348628893,
0.07226932668329177,0.01796958803115802,
0.07231920199501247,0.040313209901557054,
0.07236907730673317,0.012426235066241525,
0.07241895261845387,-0.002766158477394226,
0.07246882793017456,0.0202641700212016,
0.07251870324189526,0.04326845658865921,
0.07256857855361595,0.03116075414811654,
0.07261845386533666,0.002333466260125802,
0.07266832917705736,0.006890902493477177,
0.07271820448877805,-0.00924019387290152,
0.07276807980049875,0.02518478685027176,
0.07281795511221945,0.029738689313028293,
0.07286783042394016,0.019764538487410315,
0.07291770573566085,0.008697042183063067,
0.07296758104738155,0.01978660046802692,
0.07301745635910224,-0.005233366567938217,
0.07306733167082294,0.011061910149460095,
0.07311720698254365,0.02484906965490108,
0.07316708229426434,0.025715139760070484,
0.07321695760598504,0.020664824020011702,
0.07326683291770573,-0.01132716784373515,
0.07331670822942643,-0.0034193126730349254,
0.07336658354114713,0.006458464524168896,
0.07341645885286784,0.030292018805244396,
0.07346633416458853,0.009117696127954064,
0.07351620947630923,0.011356367394586352,
0.07356608478802992,0.019286988729539926,
0.07361596009975062,0.012493992862398074,
0.07366583541147133,0.01300103579745705,
0.07371571072319202,-0.000466671781879752,
0.07376558603491272,0.0023701582848192106,
0.07381546134663342,0.014803678762232049,
0.07386533665835411,0.03530427892371574,
0.0739152119700748,-0.0009915950845080842,
0.07396508728179552,0.0068995551275664,
0.07401496259351621,0.01559878461581129,
0.07406483790523691,0.03522682836523652,
0.0741147132169576,0.023865860051434366,
0.0741645885286783,-0.008829197611765182,
0.07421446384039901,0.0036400124601308178,
0.0742643391521197,0.0017652613998975584,
0.0743142144638404,-0.007820139875664859,
0.0743640897755611,0.008547121190555193,
0.07441396508728179,0.03176143300135566,
0.07446384039900249,0.010870669470219328,
0.0745137157107232,0.01171079188527118,
0.07456359102244389,-0.00835015301238281,
0.07461346633416459,0.022305681956018474,
0.07466334164588528,0.01288083523465042,
0.07471321695760598,0.012023543784397121,
0.07476309226932669,0.02011292000944994,
0.07481296758104738,-0.002453310287733086,
0.07486284289276808,-0.015194590874743357,
0.07491271820448878,0.009624827453780897,
0.07496259351620947,0.002364350554423439,
0.07501246882793017,-0.0005524488639167451,
0.07506234413965088,0.028378491066303038,
0.07511221945137157,0.02134483632850015,
0.07516209476309227,0.008071730542636267,
0.07521197007481296,-0.010840953749071257,
0.07526184538653366,0.060664425504783945,
0.07531172069825437,0.010858521615272277,
0.07536159600997507,0.0027756645183557036,
0.07541147132169576,-0.006331681289228236,
0.07546134663341646,-0.0007996132789070752,
0.07551122194513715,-0.011458888998874418,
0.07556109725685786,-0.015878705912282104,
0.07561097256857856,-0.001350715374139706,
0.07566084788029925,0.016434245194149683,
0.07571072319201995,3.0116173335405878e-05,
0.07576059850374064,-0.039703638234427935,
0.07581047381546134,0.02467203546891609,
0.07586034912718205,-0.021048976035735387,
0.07591022443890275,-0.01378239897368111,
0.07596009975062344,0.014190514451036359,
0.07600997506234414,0.008524329491166285,
0.07605985037406483,0.018989894162474014,
0.07610972568578554,0.010518022875609583,
0.07615960099750624,0.012058482419834485,
0.07620947630922693,-0.0130300762591724,
0.07625935162094763,-0.010868790978001246,
0.07630922693266833,0.0019655144480333524,
0.07635910224438902,-0.008606608204549414,
0.07640897755610973,-0.00022184064299739107,
0.07645885286783043,0.015883225585904288,
0.07650872817955112,0.00816618875256282,
0.07655860349127182,0.01640653560252823,
0.07660847880299251,-0.006420793759850458,
0.07665835411471322,-0.006573936876300084,
0.07670822942643392,0.0095970196737943,
0.07675810473815461,-0.0408473663994677,
0.07680798004987531,0.012700480761674432,
0.076857855361596,-0.009519311076088617,
0.0769077306733167,-0.012265314907155779,
0.07695760598503741,-0.01929282229448057,
0.0770074812967581,-0.0024505721154319537,
0.0770573566084788,0.005140472498395423,
0.0771072319201995,-0.00323461912850851,
0.0771571072319202,-0.028146100723197082,
0.0772069825436409,0.013215818669105515,
0.0772568578553616,-0.034413392230312374,
0.0773067331670823,-0.00010503403901180632,
0.07735660847880299,-0.019570137908705626,
0.07740648379052369,-0.019071152492645772,
0.0774563591022444,-0.03611072301122159,
0.07750623441396509,-0.030412509776543386,
0.07755610972568579,0.013284005122324609,
0.07760598503740648,-0.009031283420434768,
0.07765586034912718,-0.01064191688729325,
0.07770573566084787,-0.008973604322541002,
0.07775561097256858,0.0031263527937314285,
0.07780548628428928,-0.009301355313394453,
0.07785536159600998,-0.006744301773999236,
0.07790523690773067,-0.007181235846490171,
0.07795511221945137,-0.012036592082418909,
0.07800498753117208,-0.017236904627457965,
0.07805486284289277,-0.00021828305297131277,
0.07810473815461347,-0.020679974061416338,
0.07815461346633416,0.006005336346084342,
0.07820448877805486,0.0034259374307512077,
0.07825436408977555,0.003529517308716385,
0.07830423940149626,-0.02604992493895046,
0.07835411471321696,0.005959885028814758,
0.07840399002493766,0.0010078625807874407,
0.07845386533665835,-0.034473314498199174,
0.07850374064837905,-0.01941461602628114,
0.07855361596009976,0.01720357311686625,
0.07860349127182045,-0.01551020199324549,
0.07865336658354115,0.010914542639004658,
0.07870324189526184,0.0036171975171427687,
0.07875311720698254,-0.023760356685390838,
0.07880299251870324,-0.005026021356286885,
0.07885286783042394,-0.014146049328131531,
0.07890274314214464,-0.03745598398273023,
0.07895261845386534,-0.019572341633168084,
0.07900249376558603,0.0010562334598300874,
0.07905236907730673,-0.015804399330215484,
0.07910224438902744,-0.028877588480225227,
0.07915211970074813,0.003326596314185618,
0.07920199501246883,-0.014991205670617803,
0.07925187032418952,0.007319327276553007,
0.07930174563591022,-0.029379107942969537,
0.07935162094763092,0.011785366094425067,
0.07940149625935163,-0.0063540873120007495,
0.07945137157107232,-0.00253088667244521,
0.07950124688279302,-0.004537215296099106,
0.07955112219451371,-0.01619298467092382,
0.07960099750623441,-0.03267443589848787,
0.07965087281795512,-0.030495079112286126,
0.07970074812967581,0.0009042662854968041,
0.07975062344139651,-0.015330923267878506,
0.0798004987531172,-0.002719532007155233,
0.0798503740648379,-0.009729112867648671,
0.07990024937655861,-0.013813992026031688,
0.0799501246882793,-0.0119408066707741,
0.08,0.0029941968991903725,
0.0800498753117207,-0.026677641117668602,
0.0800997506234414,-0.01706142909287687,
0.08014962593516209,-0.0025956747487656685,
0.0801995012468828,-0.05131788462236037,
0.0802493765586035,-0.009360018252182023,
0.08029925187032419,-0.025441331554466626,
0.08034912718204489,-0.005395168276513738,
0.08039900249376558,-0.03810433396343009,
0.08044887780548629,-0.0011200034865029556,
0.08049875311720699,-0.03696694806866435,
0.08054862842892768,-0.02651669000553312,
0.08059850374064838,-0.012389433781221173,
0.08064837905236907,-0.027518932048334922,
0.08069825436408977,-0.014450728980679057,
0.08074812967581048,-0.029877802580606825,
0.08079800498753117,-0.02001514030935072,
0.08084788029925187,-0.0020419083468604937,
0.08089775561097257,-0.00916183052526381,
0.08094763092269326,0.007871275490682159,
0.08099750623441397,-0.01780778222842495,
0.08104738154613467,-0.0002733060004027673,
0.08109725685785536,-0.004410288049123315,
0.08114713216957606,0.018090067683500567,
0.08119700748129675,0.030202291599912917,
0.08124688279301745,-0.004748784107441885,
0.08129675810473816,-0.022029590622026633,
0.08134663341645886,-0.021324731181401935,
0.08139650872817955,0.0013675374081138156,
0.08144638403990025,-0.019180032455966674,
0.08149625935162094,-0.008204238729737579,
0.08154613466334165,-0.028692454348563705,
0.08159600997506235,-0.01474009970841109,
0.08164588528678304,-0.014024441528543138,
0.08169576059850374,-0.014799629840291378,
0.08174563591022443,0.007710048928927881,
0.08179551122194513,-0.003986658601011235,
0.08184538653366584,0.0012795514864119683,
0.08189526184538654,-0.004541858894648299,
0.08194513715710723,-0.030331685349040818,
0.08199501246882793,-0.0006685919231296193,
0.08204488778054862,-0.023009937831757747,
0.08209476309226933,-0.019299658294438925,
0.08214463840399003,-0.018703755154931945,
0.08219451371571072,0.017010478016194,
0.08224438902743142,-0.005844897687569283,
0.08229426433915212,-0.004360558643024707,
0.08234413965087282,0.012405569262718288,
0.08239401496259352,-0.016741191708292153,
0.08244389027431422,0.012876936772843697,
0.08249376558603491,-0.01520453664059394,
0.08254364089775561,-0.009879985431835731,
0.0825935162094763,-0.01507921464691201,
0.08264339152119701,-0.017109317302959996,
0.08269326683291771,-0.009098144583440364,
0.0827431421446384,0.007866426559320551,
0.0827930174563591,0.02509651477631504,
0.0828428927680798,-0.03516616060909317,
0.0828927680798005,0.013930444968258331,
0.0829426433915212,-0.003960433074443264,
0.0829925187032419,-0.00854940229311383,
0.08304239401496259,-0.0064639165521418775,
0.08309226932668329,0.01464549794491443,
0.08314214463840398,0.006048969009624251,
0.0831920199501247,-0.013674321774227404,
0.08324189526184539,0.007248244125954514,
0.08329177057356608,-0.005704753538384934,
0.08334164588528678,-0.013346066485009108,
0.08339152119700748,-0.021850542336726213,
0.08344139650872819,-0.01706456746264599,
0.08349127182044888,0.0018852437162588404,
0.08354114713216958,-0.011005952124887867,
0.08359102244389027,0.004397174053162077,
0.08364089775561097,0.01355431522126901,
0.08369077306733166,-0.006439711656584352,
0.08374064837905237,-0.005031430331687628,
0.08379052369077307,-0.022986944619376698,
0.08384039900249377,0.017344750204571806,
0.08389027431421446,0.013992191835668119,
0.08394014962593516,-0.002634199789920479,
0.08399002493765587,-0.005270172791718584,
0.08403990024937656,-0.0018318667917627527,
0.08408977556109726,0.0033325486385924357,
0.08413965087281795,0.007832050437794995,
0.08418952618453865,0.0004149046700848018,
0.08423940149625936,0.0009324253706348783,
0.08428927680798005,0.01357714964672756,
0.08433915211970075,0.010730197703726085,
0.08438902743142145,0.02903839234055049,
0.08443890274314214,0.017959399357797574,
0.08448877805486284,-0.015081274269899168,
0.08453865336658355,0.001647461521337843,
0.08458852867830424,-0.0008528208966739181,
0.08463840399002494,-0.010120570632644385,
0.08468827930174563,0.005589351711248995,
0.08473815461346633,0.016747932315444934,
0.08478802992518704,0.0010363609893664265,
0.08483790523690773,0.008376807266199188,
0.08488778054862843,0.006604572303191611,
0.08493765586034913,0.010926893772710968,
0.08498753117206982,-0.00916656061632419,
0.08503740648379052,0.029855064143269328,
0.08508728179551123,0.01415494128455613,
0.08513715710723192,-0.0014378955835689863,
0.08518703241895262,0.0395353157462867,
0.08523690773067331,0.0012683680568780142,
0.08528678304239401,0.000312941346747005,
0.08533665835411472,0.01135960709156279,
0.08538653366583542,0.014311820378873902,
0.08543640897755611,0.024704881067828532,
0.0854862842892768,0.02786619585788548,
0.0855361596009975,0.01293069942673928,
0.0855860349127182,0.015777900627192722,
0.08563591022443891,-0.007149007535071871,
0.0856857855361596,0.03603897874415145,
0.0857356608478803,-0.0011863384770834685,
0.085785536159601,0.014825082414018611,
0.08583541147132169,0.02753877954262569,
0.0858852867830424,0.002886075053962855,
0.0859351620947631,0.02874908138877279,
0.08598503740648379,0.0038551180792961593,
0.08603491271820449,0.01939313195605636,
0.08608478802992518,0.0180465917698804,
0.08613466334164588,-0.011702746807426048,
0.08618453865336659,0.016133824795720113,
0.08623441396508728,0.006195081860271824,
0.08628428927680798,0.03984318938674013,
0.08633416458852868,0.012637819845529431,
0.08638403990024937,0.012829276539109102,
0.08643391521197008,0.012647038468423341,
0.08648379052369078,0.004437229187366741,
0.08653366583541147,0.031952108405833,
0.08658354114713217,-0.026708820991885193,
0.08663341645885286,0.02429227746592425,
0.08668329177057357,0.024759548619492942,
0.08673316708229427,-0.0047868663508072486,
0.08678304239401496,0.015859435311682393,
0.08683291770573566,0.018102348157544766,
0.08688279301745636,0.015358089442851552,
0.08693266832917705,0.01570901462571221,
0.08698254364089776,-0.003842927312349295,
0.08703241895261846,0.010695700021897268,
0.08708229426433915,0.02885533689086945,
0.08713216957605985,0.02170832564116953,
0.08718204488778054,0.009115187891386045,
0.08723192019950125,0.018112143976218745,
0.08728179551122195,0.020987156993983336,
0.08733167082294264,0.014859866243607333,
0.08738154613466334,0.02005367438203109,
0.08743142144638404,0.017790727360624876,
0.08748129675810473,0.016924327153096476,
0.08753117206982544,0.0010072273289668428,
0.08758104738154614,0.037012516080493676,
0.08763092269326683,0.029767790506958325,
0.08768079800498753,0.007985759127088312,
0.08773067331670822,0.029630333120607606,
0.08778054862842893,0.03647999584415968,
0.08783042394014963,0.01976035554721568,
0.08788029925187033,0.031503128897461305,
0.08793017456359102,0.01662391311398098,
0.08798004987531172,0.03634276075065218,
0.08802992518703241,0.0164880365840735,
0.08807980049875312,0.009619817250184858,
0.08812967581047382,0.003111847454605257,
0.08817955112219451,-0.0021046429611997278,
0.08822942643391521,0.06129565440022042,
0.0882793017456359,0.007858293447070817,
0.08832917705735661,0.027314432930512514,
0.08837905236907731,0.017860427600927466,
0.088428927680798,0.029894491440966182,
0.0884788029925187,0.05495593501973792,
0.0885286783042394,0.020222419556180184,
0.0885785536159601,0.009871846336904763,
0.0886284289276808,0.019732014375033496,
0.0886783042394015,0.02854564804339852,
0.0887281795511222,0.03258401596796943,
0.08877805486284289,0.020362994317967894,
0.08882793017456359,0.039783293224671556,
0.0888778054862843,0.022332152247400462,
0.08892768079800499,0.020948184199588774,
0.08897755610972569,0.010674681971559439,
0.08902743142144638,0.05141715279981819,
0.08907730673316708,0.017570022383787492,
0.08912718204488779,0.04915472639951065,
0.08917705735660848,0.011505189414745003,
0.08922693266832918,0.015437636948206854,
0.08927680798004987,0.02868398550845216,
0.08932668329177057,0.01856171753025396,
0.08937655860349127,0.022756393321706377,
0.08942643391521198,-0.0019445103458378618,
0.08947630922693267,0.009405134087045481,
0.08952618453865337,0.03349767796535119,
0.08957605985037406,0.0331976602593977,
0.08962593516209476,0.012019958898434465,
0.08967581047381547,0.02421985212333426,
0.08972568578553616,0.006620682679875374,
0.08977556109725686,0.033803662218465765,
0.08982543640897755,0.04598759163566947,
0.08987531172069825,0.003656437443619629,
0.08992518703241895,0.03165516428341543,
0.08997506234413966,0.003086871346391906,
0.09002493765586035,0.045644930225574976,
0.09007481296758105,0.06059029012407102,
0.09012468827930174,0.030253840096583773,
0.09017456359102244,0.012066838523774215,
0.09022443890274315,0.02417753122512893,
0.09027431421446384,0.030518462511737794,
0.09032418952618454,0.03597086037650975,
0.09037406483790524,0.011661122005999008,
0.09042394014962593,0.020093037465050062,
0.09047381546134663,0.04087760533900757,
0.09052369077306734,0.03343640056511151,
0.09057356608478803,0.017007238367149582,
0.09062344139650873,0.0532086763340173,
0.09067331670822942,0.02012804960148434,
0.09072319201995012,0.0010287428607256045,
0.09077306733167083,0.013382625717701525,
0.09082294264339152,0.050952754172977725,
0.09087281795511222,0.041294037359436216,
0.09092269326683292,0.03484196069011414,
0.09097256857855361,0.04028434178013127,
0.09102244389027432,0.03505986204352736,
0.09107231920199502,0.013506462877472645,
0.09112219451371571,0.011270115633265378,
0.09117206982543641,0.015598682629392088,
0.0912219451371571,0.032574265412997044,
0.0912718204488778,0.03500371608577611,
0.09132169576059851,0.04137286748222735,
0.0913715710723192,0.05159843729357748,
0.0914214463840399,0.044537240743230413,
0.0914713216957606,0.04359210365514653,
0.09152119700748129,0.030631520439117814,
0.091571072319202,0.02177120408241874,
0.0916209476309227,0.026937761690108086,
0.09167082294264339,0.01353821070988653,
0.09172069825436409,-0.003138034643753368,
0.09177057356608478,0.049667920394087434,
0.09182044887780548,0.01685666879835433,
0.09187032418952619,0.02263862204133186,
0.09192019950124689,0.02542695124142781,
0.09197007481296758,0.022910645976246206,
0.09201995012468828,0.012961348409591051,
0.09206982543640897,0.00881904854095388,
0.09211970074812968,-0.006322596971594825,
0.09216957605985038,0.026772245786932505,
0.09221945137157107,0.0453137907898809,
0.09226932668329177,0.0264103663611644,
0.09231920199501246,0.01025759765187116,
0.09236907730673316,0.017273764193204557,
0.09241895261845387,0.029063097543768887,
0.09246882793017457,0.03180332247948524,
0.09251870324189526,0.009920639161207325,
0.09256857855361596,0.002960516330471074,
0.09261845386533665,0.005488652046878588,
0.09266832917705736,0.027442759725966225,
0.09271820448877806,-0.0007555564415534823,
0.09276807980049875,0.0067305722202850565,
0.09281795511221945,0.018244653449941674,
0.09286783042394015,0.04465268243047573,
0.09291770573566084,0.010679842153476404,
0.09296758104738155,0.0306099617092185,
0.09301745635910225,-0.0012723344001009697,
0.09306733167082294,0.014117669271489348,
0.09311720698254364,-0.008262652469524605,
0.09316708229426433,0.021162131244623055,
0.09321695760598504,0.00673037768166241,
0.09326683291770574,0.020256090375445453,
0.09331670822942643,0.006119790819549853,
0.09336658354114713,0.0375270733532463,
0.09341645885286783,0.011785319908128354,
0.09346633416458854,0.011785108805714532,
0.09351620947630923,0.008603739366358248,
0.09356608478802993,0.017645722251921188,
0.09361596009975062,0.019433726729053094,
0.09366583541147132,0.0027784354529802307,
0.09371571072319201,0.011751411542420043,
0.09376558603491272,0.020934315489768054,
0.09381546134663342,0.03592655834001686,
0.09386533665835411,0.028047737203285964,
0.09391521197007481,0.019886859175418145,
0.0939650872817955,0.03232266943538406,
0.09401496259351622,-0.005855419172173724,
0.09406483790523691,0.03311508594724878,
0.09411471321695761,0.014069502961780903,
0.0941645885286783,0.0035015113298608666,
0.094214463840399,0.007427810970077188,
0.0942643391521197,0.02442163395052198,
0.0943142144638404,0.005074265224050194,
0.0943640897755611,0.01235424495773345,
0.0944139650872818,0.017231703203328036,
0.09446384039900249,0.02357621148642148,
0.09451371571072319,-0.010425299838447023,
0.0945635910224439,0.004976281676463581,
0.09461346633416459,0.02147801693813217,
0.09466334164588529,0.029239372722478566,
0.09471321695760598,-0.0006467198726913658,
0.09476309226932668,0.03417453065103321,
0.09481296758104737,0.01058685696316797,
0.09486284289276808,-0.012277365788695305,
0.09491271820448878,0.014327005438071017,
0.09496259351620948,0.003091760023016872,
0.09501246882793017,-0.0046256707914595204,
0.09506234413965087,-0.016545848682042286,
0.09511221945137158,0.005077299803338108,
0.09516209476309227,0.012496308551620199,
0.09521197007481297,0.009835903415939694,
0.09526184538653366,0.00021571977322065033,
0.09531172069825436,-0.014546443707476445,
0.09536159600997507,0.022180743707300637,
0.09541147132169576,0.009602580399575657,
0.09546134663341646,-0.048154110298604565,
0.09551122194513716,-0.006266584127557238,
0.09556109725685785,0.01357008680584768,
0.09561097256857855,0.021898053215754446,
0.09566084788029926,0.017276340102270308,
0.09571072319201995,0.007999482004426094,
0.09576059850374065,-0.00976601626472946,
0.09581047381546134,0.021474318007933695,
0.09586034912718204,0.014543367482558101,
0.09591022443890275,0.00047367159067456845,
0.09596009975062345,0.005283058436524077,
0.09600997506234414,0.003748131751930878,
0.09605985037406484,-0.007642874232929003,
0.09610972568578553,-0.0029132950228694045,
0.09615960099750623,0.010189988658197032,
0.09620947630922694,-0.0004227586834041823,
0.09625935162094763,0.0007633745776066164,
0.09630922693266833,-0.013637060177757489,
0.09635910224438902,0.013102741772332008,
0.09640897755610972,0.006380334127929662,
0.09645885286783043,-0.0205245652400781,
0.09650872817955113,0.0008361922431381107,
0.09655860349127182,-0.004608171146840246,
0.09660847880299252,0.02431983021749412,
0.09665835411471321,-0.012647248201620616,
0.09670822942643391,-0.011552003575198956,
0.09675810473815462,-0.016733546348071913,
0.09680798004987531,0.025705401617654104,
0.09685785536159601,0.02098888531373941,
0.0969077306733167,0.005821306488138468,
0.0969576059850374,-0.01216728577527065,
0.09700748129675811,-0.0323647808946782,
0.0970573566084788,-0.016534593565528683,
0.0971072319201995,-0.038572078867859336,
0.0971571072319202,-0.026315252493763833,
0.0972069825436409,-0.01776421376899688,
0.09725685785536159,-0.0011679466671030954,
0.0973067331670823,-0.0015115579327304868,
0.097356608478803,-0.0014824150076363897,
0.09740648379052369,0.011510530548414631,
0.09745635910224439,-0.013624308887824052,
0.09750623441396508,-0.029219779759959777,
0.09755610972568579,-0.029457860166529883,
0.09760598503740649,-0.030391114670501474,
0.09765586034912718,0.003251136779657304,
0.09770573566084788,-0.02496237973825939,
0.09775561097256857,-0.0393330595871053,
0.09780548628428928,-0.003884649438400975,
0.09785536159600998,-0.016948894379867088,
0.09790523690773068,-0.009363021328148669,
0.09795511221945137,-0.008120695137670456,
0.09800498753117207,-0.027134811226699834,
0.09805486284289276,0.017816482540988686,
0.09810473815461347,-0.019785974141101434,
0.09815461346633417,-0.041736549960601804,
0.09820448877805486,0.010945711746209518,
0.09825436408977556,-0.001459011460445957,
0.09830423940149625,-0.040385423288272604,
0.09835411471321696,-0.03513611075363507,
0.09840399002493766,0.017780112122626,
0.09845386533665836,-0.022370460907522843,
0.09850374064837905,-0.029569526544910563,
0.09855361596009975,0.004463045994654599,
0.09860349127182044,0.015180578057298895,
0.09865336658354115,-0.032941959144860034,
0.09870324189526185,-0.0052520671105735625,
0.09875311720698254,0.003301898133064699,
0.09880299251870324,-0.029534069504875818,
0.09885286783042393,-0.015195205823743193,
0.09890274314214464,-0.03366416481342248,
0.09895261845386534,-0.017252485077621487,
0.09900249376558604,0.0012519968289651622,
0.09905236907730673,-0.00846595583071759,
0.09910224438902743,-0.023573908398515593,
0.09915211970074812,-0.012278697705832254,
0.09920199501246883,-0.0463393893345269,
0.09925187032418953,-0.02554230511353791,
0.09930174563591022,0.01988391585134934,
0.09935162094763092,-0.00547263724082983,
0.09940149625935162,0.003666932082872769,
0.09945137157107233,-0.026247501998144813,
0.09950124688279302,-0.029115370548972293,
0.09955112219451372,-0.02692513753695759,
0.09960099750623441,-0.011350188908432774,
0.09965087281795511,0.010752552424940196,
0.0997007481296758,-0.003712649185163109,
0.09975062344139651,-0.014327760964490465,
0.09980049875311721,-0.005968208424102142,
0.0998503740648379,0.013281368165995344,
0.0999002493765586,-0.027280181757216505,
0.0999501246882793,0.014433804128268921,
0.1,-0.004850138692308182,
0.1000498753117207,0.011335851303156176,
0.1000997506234414,-0.007119387944744136,
0.10014962593516209,0.012002915482771149,
0.10019950124688279,-0.007588501857020247,
0.1002493765586035,0.0008459758168677615,
0.1002992518703242,-0.0046670954766494304,
0.10034912718204489,-0.007064185457577358,
0.10039900249376559,-0.027365426750394085,
0.10044887780548628,-0.01822419111954187,
0.10049875311720698,0.0016629456000049683,
0.10054862842892769,-0.022175805445582626,
0.10059850374064838,-0.007766833509646849,
0.10064837905236908,-0.005816114455183358,
0.10069825436408977,-0.044422167112562486,
0.10074812967581047,-0.036342014587973495,
0.10079800498753118,0.0077168444231558945,
0.10084788029925187,0.004372547400923792,
0.10089775561097257,-0.007935444717924865,
0.10094763092269327,-0.014830178493273536,
0.10099750623441396,-0.017356434413493972,
0.10104738154613466,-0.020716460536032266,
0.10109725685785537,-0.02086558671876008,
0.10114713216957606,-0.016147639166135253,
0.10119700748129676,0.013239581931117277,
0.10124688279301745,-0.01744681625536245,
0.10129675810473815,-0.01015820641075536,
0.10134663341645886,-0.03818134504033982,
0.10139650872817955,-0.02319662208328121,
0.10144638403990025,-0.01608828332419815,
0.10149625935162095,-0.009611558712730027,
0.10154613466334164,-0.013925500270768979,
0.10159600997506234,-0.03752830724458377,
0.10164588528678305,-0.006369856168662017,
0.10169576059850374,-0.0024434477525144714,
0.10174563591022444,0.01784830858640686,
0.10179551122194513,-0.014688322507670201,
0.10184538653366583,-0.006980187670657865,
0.10189526184538654,-0.013194542472420849,
0.10194513715710724,-0.008906940497947812,
0.10199501246882793,-0.004047854320289531,
0.10204488778054863,0.004885149820740557,
0.10209476309226932,-0.002152696081158181,
0.10214463840399003,-0.021656554449199485,
0.10219451371571073,-0.023728088580995396,
0.10224438902743142,-0.01646461885659612,
0.10229426433915212,-0.02049070644675735,
0.10234413965087281,-0.017332952917590155,
0.10239401496259351,-0.02602567908508081,
0.10244389027431422,0.005850415293153054,
0.10249376558603492,-0.015331507035528213,
0.10254364089775561,-0.011482434975099192,
0.10259351620947631,0.01080931770393336,
0.102643391521197,-0.01659111814309447,
0.10269326683291771,-0.0010081831558183046,
0.10274314214463841,0.015776325015404755,
0.1027930174563591,-0.02777688966177468,
0.1028428927680798,-0.0011991872271159233,
0.1028927680798005,0.007785186965809837,
0.10294264339152119,-0.007701283289699944,
0.1029925187032419,-0.02246046601652083,
0.1030423940149626,-0.006228559338564595,
0.10309226932668329,0.015296677702679182,
0.10314214463840399,-0.01627170386359563,
0.10319201995012468,0.0038722256592613816,
0.10324189526184539,-0.012499749227395923,
0.10329177057356609,0.01768178780981045,
0.10334164588528678,-0.004103501248632342,
0.10339152119700748,-0.02060013603515386,
0.10344139650872818,-0.0008637208089819278,
0.10349127182044887,-0.017942470546185984,
0.10354114713216958,-0.003636558071260015,
0.10359102244389028,0.0060012164649672125,
0.10364089775561097,-0.000878473595412809,
0.10369077306733167,0.007677386246745302,
0.10374064837905236,0.0242098112643591,
0.10379052369077307,-0.007798960225335844,
0.10384039900249377,0.00021737355030804916,
0.10389027431421446,0.0037879133077906163,
0.10394014962593516,0.009563981143673139,
0.10399002493765586,0.014672452498821657,
0.10403990024937655,-0.0027904626455509916,
0.10408977556109726,-0.018406691103455986,
0.10413965087281796,0.008562952600655122,
0.10418952618453865,0.0025085090485477404,
0.10423940149625935,0.026611761270413474,
0.10428927680798004,0.0031069095735049967,
0.10433915211970075,0.003498526829130203,
0.10438902743142145,0.001124745566970843,
0.10443890274314215,-0.0240720595429385,
0.10448877805486284,0.0010951955129220418,
0.10453865336658354,-0.003902073123767825,
0.10458852867830425,-0.03155457716469691,
0.10463840399002494,0.007579799578850658,
0.10468827930174564,0.0029341608141879062,
0.10473815461346633,-0.025871100321093167,
0.10478802992518703,-0.00343553455856418,
0.10483790523690772,0.018742519327689083,
0.10488778054862843,-0.0015442599466317592,
0.10493765586034913,-0.001689211128696173,
0.10498753117206983,-0.00016225141165044157,
0.10503740648379052,0.021815434957122435,
0.10508728179551122,0.030878761700422516,
0.10513715710723193,0.023958591740536828,
0.10518703241895262,0.016030227120334084,
0.10523690773067332,0.030398063309160256,
0.10528678304239401,-0.003243011446935437,
0.10533665835411471,0.02503458365159375,
0.1053865336658354,0.02473298905192451,
0.10543640897755611,-0.021776610459031478,
0.10548628428927681,0.019559992863594652,
0.1055361596009975,0.041795863128819624,
0.1055860349127182,0.02062279643259604,
0.1056359102244389,0.034057034894902916,
0.10568578553615961,0.012709694421023826,
0.1057356608478803,0.006534175006371616,
0.105785536159601,0.012680553737390245,
0.1058354114713217,0.01505117259932449,
0.10588528678304239,0.004437622808359425,
0.10593516209476309,0.01552698983550804,
0.1059850374064838,0.018059152836299372,
0.10603491271820449,0.020125085426487783,
0.10608478802992519,0.04408137542050664,
0.10613466334164588,0.02886981094509474,
0.10618453865336658,0.014443124229458754,
0.10623441396508729,0.017042691180499683,
0.10628428927680798,0.035746113510500784,
0.10633416458852868,0.014469174149756549,
0.10638403990024937,-0.0027494337580182514,
0.10643391521197007,0.009342041581865423,
0.10648379052369077,0.024089474810660722,
0.10653366583541148,0.007067038274678047,
0.10658354114713217,0.01618318692097492,
0.10663341645885287,0.02298063917759448,
0.10668329177057356,0.017743810235161674,
0.10673316708229426,-0.006579682002940346,
0.10678304239401497,0.018051651555513547,
0.10683291770573566,0.016011122199773884,
0.10688279301745636,0.0076305282003674545,
0.10693266832917706,0.022272421532269014,
0.10698254364089775,0.015670724964963904,
0.10703241895261846,0.01082378316006317,
0.10708229426433916,0.013813338550554617,
0.10713216957605985,0.006489392962630444,
0.10718204488778055,0.022540474430057855,
0.10723192019950124,0.008624268512888706,
0.10728179551122194,0.011696046880112164,
0.10733167082294265,0.011876420615011216,
0.10738154613466334,-0.005611978986537359,
0.10743142144638404,0.0116817695847202,
0.10748129675810474,0.017754767779447837,
0.10753117206982543,0.01925730403735387,
0.10758104738154614,0.04154946232122894,
0.10763092269326684,0.0265156765833898,
0.10768079800498753,0.02118476331926886,
0.10773067331670823,0.027644533924220248,
0.10778054862842892,0.02379926020784013,
0.10783042394014962,0.029858386886536734,
0.10788029925187033,0.012589097567346523,
0.10793017456359102,0.020743410352045917,
0.10798004987531172,0.008834111211155113,
0.10802992518703242,0.022871114700855212,
0.10807980049875311,0.017096501764306497,
0.10812967581047382,0.040391477815290414,
0.10817955112219452,0.02736098556433552,
0.10822942643391521,0.05128747250741506,
0.10827930174563591,0.032659221105026046,
0.1083291770573566,0.05071452514226943,
0.1083790523690773,0.04862986847295335,
0.10842892768079801,0.01822824323483799,
0.1084788029925187,0.04251066389765562,
0.1085286783042394,0.03720848332725214,
0.1085785536159601,-0.00037313122788985853,
0.10862842892768079,0.010414602344511754,
0.1086783042394015,0.015884992421435717,
0.1087281795511222,0.01674264825006818,
0.1087780548628429,0.02745916551660243,
0.10882793017456359,0.028790287239604494,
0.10887780548628428,0.01949669246902155,
0.108927680798005,0.006877153872120935,
0.10897755610972569,0.03356516428396953,
0.10902743142144639,-0.003343192081713367,
0.10907730673316708,0.009791550969563242,
0.10912718204488778,0.02456694160947099,
0.10917705735660847,-0.0016694585825209399,
0.10922693266832918,0.02495656032521763,
0.10927680798004988,0.015219079932315922,
0.10932668329177057,0.04110114776463017,
0.10937655860349127,0.007959424606275425,
0.10942643391521197,0.035504855967383835,
0.10947630922693267,0.03751008836991168,
0.10952618453865337,0.03770653513514151,
0.10957605985037407,0.032751546649451936,
0.10962593516209476,0.04214649157580568,
0.10967581047381546,0.028931789700819714,
0.10972568578553615,0.01482962413350107,
0.10977556109725686,0.053598954247122244,
0.10982543640897756,0.038118796834215325,
0.10987531172069825,0.03105261493513651,
0.10992518703241895,0.03168167726526622,
0.10997506234413965,0.02719008153289647,
0.11002493765586036,0.031105916632734383,
0.11007481296758105,0.047800360906991274,
0.11012468827930175,0.01324614438988557,
0.11017456359102244,0.03808768506659615,
0.11022443890274314,0.01960232233658285,
0.11027431421446383,0.0006460437376407877,
0.11032418952618454,-0.00213677931842721,
0.11037406483790524,0.009413378920796002,
0.11042394014962593,0.014342373033531445,
0.11047381546134663,0.004973716965183974,
0.11052369077306733,0.03158086638606481,
0.11057356608478804,0.014406854841601603,
0.11062344139650873,0.044161361496961433,
0.11067331670822943,0.048345926515469304,
0.11072319201995012,0.041372347348944113,
0.11077306733167082,0.04100272506003186,
0.11082294264339151,0.057649836879797946,
0.11087281795511222,0.027276007685523625,
0.11092269326683292,0.03098965820450501,
0.11097256857855362,0.03465236630687103,
0.11102244389027431,0.04403887133891561,
0.111072319201995,0.01331990900083137,
0.11112219451371572,0.03445677683436755,
0.11117206982543641,0.011692361639103943,
0.11122194513715711,0.0549072798162355,
0.1112718204488778,0.02887956436774667,
0.1113216957605985,0.02995201468515651,
0.11137157107231921,0.014362620903122693,
0.1114214463840399,0.01483358441713617,
0.1114713216957606,0.021615460874932525,
0.1115211970074813,0.04265046495961818,
0.11157107231920199,0.05507782636905574,
0.11162094763092269,0.01490569800014552,
0.1116708229426434,0.03123917537744344,
0.11172069825436409,-0.0077294778108538825,
0.11177057356608479,0.05341401024395477,
0.11182044887780548,0.009521335462456412,
0.11187032418952618,0.031085498234522772,
0.11192019950124689,0.04828540882790912,
0.11197007481296758,0.005533100262561413,
0.11201995012468828,0.017744015092421794,
0.11206982543640898,0.038291626404849094,
0.11211970074812967,0.01126716737517209,
0.11216957605985037,0.008699364687703812,
0.11221945137157108,0.03793621559017605,
0.11226932668329177,0.03015642845486405,
0.11231920199501247,0.014242371928846828,
0.11236907730673316,0.05553403702262657,
0.11241895261845386,-0.009059902508869067,
0.11246882793017457,-9.079888020289625e-05,
0.11251870324189527,0.03730701772982291,
0.11256857855361596,0.0001089176440566067,
0.11261845386533666,0.01622524512658028,
0.11266832917705735,0.037593323551311834,
0.11271820448877805,-0.002553437915227545,
0.11276807980049876,0.029474537465805497,
0.11281795511221945,0.026694730534261763,
0.11286783042394015,0.023112880143184123,
0.11291770573566084,0.06514093981527083,
0.11296758104738154,0.02911407941412955,
0.11301745635910225,0.02812882791053614,
0.11306733167082295,0.027083251766594513,
0.11311720698254364,0.007453825276621759,
0.11316708229426434,0.03311187746745079,
0.11321695760598503,0.02488195512252906,
0.11326683291770574,0.009168149135071434,
0.11331670822942644,0.016520665447582874,
0.11336658354114713,0.011582933645483844,
0.11341645885286783,0.009101322361537866,
0.11346633416458853,0.019935595162000722,
0.11351620947630922,0.007690174126201111,
0.11356608478802993,0.011750506389265395,
0.11361596009975063,0.014971477527148145,
0.11366583541147132,0.010703079830838794,
0.11371571072319202,0.009395490662020594,
0.11376558603491271,0.0218560957364716,
0.11381546134663342,0.022753599651765835,
0.11386533665835412,0.0021165334351741904,
0.11391521197007481,-0.014818406545490605,
0.11396508728179551,0.019185059891009652,
0.1140149625935162,0.007014291152232256,
0.1140648379052369,0.02028253215747875,
0.11411471321695761,0.023338406261652823,
0.1141645885286783,0.027253468076087833,
0.114214463840399,-0.04079518265411106,
0.1142643391521197,0.03665523550023593,
0.1143142144638404,0.0014832225124754468,
0.1143640897755611,-0.009712295794831866,
0.1144139650872818,-0.0013226884125165737,
0.1144638403990025,-0.017388897067783203,
0.11451371571072319,0.02047018690911432,
0.11456359102244389,0.028143481944156095,
0.11461346633416458,0.0012039071709653622,
0.11466334164588529,0.022097151908960076,
0.11471321695760599,0.015427315131368358,
0.11476309226932668,0.014746013805313003,
0.11481296758104738,-0.01598763927101836,
0.11486284289276807,0.015295795828180947,
0.11491271820448878,0.0247388273461843,
0.11496259351620948,-0.0008792304670094137,
0.11501246882793018,0.027930283824284564,
0.11506234413965087,0.01984859071231799,
0.11511221945137157,0.03883884566805304,
0.11516209476309226,0.0024397559883078904,
0.11521197007481297,0.020386647099231294,
0.11526184538653367,0.020323171395028386,
0.11531172069825436,-0.0024830767700364017,
0.11536159600997506,-0.0221489145404823,
0.11541147132169575,-0.003548130514374432,
0.11546134663341646,0.021262699406678423,
0.11551122194513716,0.01737708137318856,
0.11556109725685786,0.013000744418433824,
0.11561097256857855,0.014067239932359043,
0.11566084788029925,0.013633468059613157,
0.11571072319201996,-0.004038155446532795,
0.11576059850374065,0.01651336843929234,
0.11581047381546135,-0.008405324918231484,
0.11586034912718204,0.00019461966510606185,
0.11591022443890274,-0.002375073631523726,
0.11596009975062344,0.02278685348961255,
0.11600997506234415,-0.004887023728651942,
0.11605985037406484,-0.003385553264944419,
0.11610972568578554,0.004138989701766937,
0.11615960099750623,-0.0005770614885196755,
0.11620947630922693,-0.015809418670831195,
0.11625935162094764,0.015135275592018722,
0.11630922693266833,-0.0304991137937779,
0.11635910224438903,0.007518452232667842,
0.11640897755610972,0.01634063987221454,
0.11645885286783042,-0.010839034861069552,
0.11650872817955112,-0.012453653153164976,
0.11655860349127183,-0.019059921188091543,
0.11660847880299252,-0.012884205882823983,
0.11665835411471322,-0.022692215295204172,
0.11670822942643391,0.025013574377247952,
0.11675810473815461,-0.018424989454503223,
0.11680798004987532,0.006426128898550735,
0.11685785536159601,0.02518990617755714,
0.11690773067331671,-0.03781294722903853,
0.1169576059850374,0.011692565877760975,
0.1170074812967581,-0.015942138919500727,
0.1170573566084788,0.0007537731537195216,
0.1171072319201995,-0.007571772005133831,
0.1171571072319202,-0.015483960938783722,
0.1172069825436409,-0.007083608265707677,
0.1172568578553616,-0.01023698030623136,
0.11730673316708229,0.012874192979987164,
0.117356608478803,-0.011746461478685102,
0.1174064837905237,-0.0027471831592076937,
0.11745635910224439,-0.009156863645484093,
0.11750623441396509,-0.01474606738749957,
0.11755610972568578,-0.0022367609514396605,
0.11760598503740648,0.0032422304688407115,
0.11765586034912719,-0.010957071491498816,
0.11770573566084788,0.02370718597765286,
0.11775561097256858,0.004198013455459972,
0.11780548628428927,0.005949357194724255,
0.11785536159600997,0.003950117261651001,
0.11790523690773068,0.024610997526173184,
0.11795511221945137,0.005226516897799341,
0.11800498753117207,0.019731742609531408,
0.11805486284289277,0.003900238907627678,
0.11810473815461346,-0.010895404045537915,
0.11815461346633417,-0.031048075082771548,
0.11820448877805487,0.0021406433978770536,
0.11825436408977556,-0.027347115039019057,
0.11830423940149626,-0.0064307419199546405,
0.11835411471321695,-0.008322573276815314,
0.11840399002493765,-0.009319792944307374,
0.11845386533665836,0.00476868655599243,
0.11850374064837906,-0.02514499814215418,
0.11855361596009975,0.005179662648322663,
0.11860349127182045,-0.026334336541220617,
0.11865336658354114,0.00542831798786741,
0.11870324189526185,-0.00623711127135133,
0.11875311720698255,0.0006946046498445095,
0.11880299251870324,0.01981257811424541,
0.11885286783042394,-0.026191389132597602,
0.11890274314214463,-0.03533808254566946,
0.11895261845386533,-0.002448558720357853,
0.11900249376558604,-0.01981037758543234,
0.11905236907730674,0.007003925212782407,
0.11910224438902743,-0.022950625677750892,
0.11915211970074813,0.0029705758323507886,
0.11920199501246882,-0.005622904609935878,
0.11925187032418953,-0.020378460771164775,
0.11930174563591023,0.007504178716041825,
0.11935162094763092,-0.02467476587462998,
0.11940149625935162,-0.008628355456032159,
0.11945137157107232,-0.020290264240966922,
0.11950124688279301,-0.0019570743622202135,
0.11955112219451372,-0.004280647109438682,
0.11960099750623442,-0.010602670631083864,
0.11965087281795511,-0.03145641601713725,
0.11970074812967581,-0.014410127972254532,
0.1197506234413965,-0.022335630906001883,
0.11980049875311721,-0.016847658184701474,
0.11985037406483791,-0.018622836699523686,
0.1199002493765586,0.008366751532860303,
0.1199501246882793,-0.009748002594589716,
0.12,-0.0013435984654349333,
0.1200498753117207,0.005764510259851707,
0.1200997506234414,-0.02589040511956528,
0.1201496259351621,0.023704207965763252,
0.12019950124688279,-0.010778483374273997,
0.12024937655860349,-0.03493762040775747,
0.12029925187032418,-0.006026327069072239,
0.1203491271820449,-0.0057828724960527845,
0.12039900249376559,-0.02313367585429555,
0.12044887780548628,0.027822777422060466,
0.12049875311720698,-0.035508367903701946,
0.12054862842892768,-0.005648492184528256,
0.12059850374064839,-0.005369482476237303,
0.12064837905236908,0.00703761320789772,
0.12069825436408978,0.0025998367892752713,
0.12074812967581047,-0.01417206402828241,
0.12079800498753117,-0.023755093905361534,
0.12084788029925186,0.001698757730691211,
0.12089775561097257,-0.015548131469332361,
0.12094763092269327,0.00011267795532984674,
0.12099750623441397,-0.013319124979005711,
0.12104738154613466,-0.010011023090159272,
0.12109725685785536,0.01760978609368003,
0.12114713216957607,-0.028008856740661708,
0.12119700748129676,-0.021432672327096593,
0.12124688279301746,-0.0014044451525722246,
0.12129675810473815,-0.020729099885600767,
0.12134663341645885,0.013776724500425963,
0.12139650872817954,-0.05625181359415249,
0.12144638403990025,-0.02947399611578439,
0.12149625935162095,-0.010732556701227521,
0.12154613466334165,0.0022322590233290612,
0.12159600997506234,-0.014225293532227411,
0.12164588528678304,-0.00588447293173377,
0.12169576059850375,0.013466183235173975,
0.12174563591022444,0.00740793352970209,
0.12179551122194514,-0.010746552264220579,
0.12184538653366583,-0.00414557086677284,
0.12189526184538653,-0.013546809718232857,
0.12194513715710723,0.03101469939476823,
0.12199501246882793,-0.025225928336571737,
0.12204488778054863,-0.014759167343027452,
0.12209476309226933,0.009317844128388646,
0.12214463840399002,-0.005468295193757059,
0.12219451371571072,0.01587950759732884,
0.12224438902743143,0.027259740480606698,
0.12229426433915212,9.66496560776374e-05,
0.12234413965087282,-0.010240790891246482,
0.12239401496259351,-0.027294295144111032,
0.12244389027431421,-0.024739616798111784,
0.12249376558603492,-0.0415732212655365,
0.12254364089775562,-0.005028728435590272,
0.12259351620947631,0.01943189549336608,
0.122643391521197,-0.019028843604620982,
0.1226932668329177,0.006641615885030885,
0.1227431421446384,0.005138378006185747,
0.12279301745635911,-0.021646494222614852,
0.1228428927680798,0.010955756286943773,
0.1228927680798005,-0.003135442793995681,
0.1229426433915212,0.02471475019191733,
0.12299251870324189,-0.00716376857535886,
0.1230423940149626,0.02221097762061413,
0.1230922693266833,-0.03988232642583463,
0.12314214463840399,0.0026355219961087797,
0.12319201995012469,-0.03473449024535107,
0.12324189526184538,-0.03192140437517814,
0.12329177057356608,0.004526325761937115,
0.12334164588528679,-0.025732782809376166,
0.12339152119700748,-0.025988290672342304,
0.12344139650872818,-0.010057249159685675,
0.12349127182044888,0.007492727999104921,
0.12354114713216957,0.008076737732188474,
0.12359102244389028,0.004822611943353256,
0.12364089775561098,0.0031545870469639743,
0.12369077306733167,-0.016619789536814616,
0.12374064837905237,-0.018831100254899823,
0.12379052369077306,0.01921450833074858,
0.12384039900249376,0.0021647556498730243,
0.12389027431421447,0.011190940207205407,
0.12394014962593516,-0.0021278170632615554,
0.12399002493765586,0.0028559455551883076,
0.12403990024937656,0.011517040705160513,
0.12408977556109725,0.004737223333043898,
0.12413965087281796,-0.01260081315607965,
0.12418952618453866,-0.0048079960195896165,
0.12423940149625935,-0.0248423105186109,
0.12428927680798005,0.012426837202273874,
0.12433915211970074,-0.006186371230995723,
0.12438902743142144,0.006934278257582507,
0.12443890274314215,-0.00748877072566222,
0.12448877805486284,0.005322830728207929,
0.12453865336658354,0.03200022177509959,
0.12458852867830424,-0.0001439969723631071,
0.12463840399002493,0.00995422597524133,
0.12468827930174564,0.022144079081047145,
0.12473815461346634,0.0210998518242298,
0.12478802992518703,-0.0005898169659703661,
0.12483790523690773,0.027530629607239128,
0.12488778054862842,0.02218689546952622,
0.12493765586034913,0.01479134526817967,
0.12498753117206983,-0.025281863780996262,
0.12503740648379053,0.021864541964648345,
0.12508728179551123,0.016667564315248067,
0.12513715710723192,0.029534718642420084,
0.12518703241895263,0.02554425966938794,
0.1252369077306733,0.01889733490016661,
0.12528678304239402,-0.008611072634198105,
0.1253366583541147,-0.02059476796507975,
0.1253865336658354,0.024707467513494463,
0.12543640897755612,0.026129855428320622,
0.1254862842892768,0.00356020441284848,
0.1255361596009975,0.0022852998973239384,
0.1255860349127182,0.001425688801720948,
0.1256359102244389,0.007233654453698063,
0.1256857855361596,0.005922892623923093,
0.1257356608478803,0.020344624811616287,
0.125785536159601,0.008050558381122199,
0.12583541147132168,-0.0035180413085223756,
0.1258852867830424,0.027669726933992694,
0.1259351620947631,0.017232256702488985,
0.12598503740648379,0.03325543362772358,
0.1260349127182045,0.02103606624232621,
0.12608478802992518,0.01194253075260545,
0.1261346633416459,0.002881192444029913,
0.1261845386533666,0.04427487359262109,
0.12623441396508728,0.021017169473016784,
0.126284289276808,0.01429333394307302,
0.12633416458852867,0.002576310940519801,
0.12638403990024938,-0.0042682533183055135,
0.1264339152119701,0.01133159932756361,
0.12648379052369077,0.042157641730105666,
0.12653366583541148,0.034444892018664276,
0.12658354114713216,-0.009947174796798672,
0.12663341645885287,0.005872595560553169,
0.12668329177057355,0.011325011915294244,
0.12673316708229426,0.01730015292455038,
0.12678304239401497,0.027294824338156123,
0.12683291770573565,-0.00120073049971018,
0.12688279301745636,0.03244632338217006,
0.12693266832917705,0.015530648564188902,
0.12698254364089775,0.024312860574485777,
0.12703241895261846,0.026959585672999872,
0.12708229426433915,0.01739069051927293,
0.12713216957605986,0.025088831008436,
0.12718204488778054,0.019505160045848215,
0.12723192019950125,0.02909058476306072,
0.12728179551122196,0.02787571702055441,
0.12733167082294264,0.03390787327521337,
0.12738154613466335,0.046380236318491766,
0.12743142144638403,0.015501635827556749,
0.12748129675810474,0.030734185522037633,
0.12753117206982545,0.0191495062913573,
0.12758104738154613,0.026544577502495535,
0.12763092269326684,0.01997682016812192,
0.12768079800498752,0.025049777223470925,
0.12773067331670823,0.00796288005846256,
0.1277805486284289,0.013809622732315577,
0.12783042394014962,0.052285472101360406,
0.12788029925187033,0.06219803204428248,
0.12793017456359101,0.03388684769757702,
0.12798004987531172,0.01430508895288086,
0.1280299251870324,0.03883251605821207,
0.12807980049875312,0.05577768092896027,
0.12812967581047383,0.017763144493220778,
0.1281795511221945,0.024219206147681267,
0.12822942643391522,0.02665220354814133,
0.1282793017456359,0.03456752222774005,
0.1283291770573566,0.024895097434904,
0.12837905236907732,0.030632024480320732,
0.128428927680798,0.03182109319203197,
0.1284788029925187,0.0007426104254092403,
0.1285286783042394,0.015865574526302405,
0.1285785536159601,0.007020229992394798,
0.1286284289276808,0.032966834615196915,
0.1286783042394015,0.01771322966755514,
0.1287281795511222,0.016256085584896985,
0.12877805486284288,0.017903202675983897,
0.1288279301745636,0.022230268728426976,
0.1288778054862843,0.031205308004355618,
0.12892768079800498,0.028572932347144673,
0.1289775561097257,0.037276992386268706,
0.12902743142144638,0.04205304626352244,
0.12907730673316709,-0.0009585096589474762,
0.12912718204488777,0.04293283544837072,
0.12917705735660848,0.017628667155044308,
0.1292269326683292,0.022893952872087946,
0.12927680798004987,0.0541719227028148,
0.12932668329177058,0.022248704654730424,
0.12937655860349126,0.03323185868673453,
0.12942643391521197,0.021496159725709202,
0.12947630922693268,0.032696675952924956,
0.12952618453865336,0.051934415799384556,
0.12957605985037407,0.022677530972465686,
0.12962593516209475,0.02358232602899117,
0.12967581047381546,0.05142174873862502,
0.12972568578553617,0.019758015695565512,
0.12977556109725685,0.044252639655370615,
0.12982543640897756,0.028119480305121087,
0.12987531172069824,0.027227996510746626,
0.12992518703241895,0.044178596321019996,
0.12997506234413966,0.024469614118265613,
0.13002493765586035,0.04137816198399114,
0.13007481296758105,0.032160515737726506,
0.13012468827930174,0.009520889120117039,
0.13017456359102245,0.03490002988070115,
0.13022443890274316,0.030311855009101607,
0.13027431421446384,0.00717644939081458,
0.13032418952618455,0.019312624770368332,
0.13037406483790523,0.0383061562341651,
0.13042394014962594,0.029183561521133543,
0.13047381546134662,0.005432796151441481,
0.13052369077306733,0.057961392806751534,
0.13057356608478804,0.03894611131117471,
0.13062344139650872,0.004631139547672171,
0.13067331670822943,0.018426849311534453,
0.1307231920199501,0.04463758448810308,
0.13077306733167082,0.04087962460598841,
0.13082294264339153,0.042083174354486885,
0.13087281795511221,-0.01053591948665521,
0.13092269326683292,0.045409095055522104,
0.1309725685785536,0.039110805810532806,
0.13102244389027431,0.05914676432051774,
0.13107231920199502,0.024089029830240256,
0.1311221945137157,0.029933246891518064,
0.13117206982543642,0.05436430743464016,
0.1312219451371571,0.037223799142202196,
0.1312718204488778,0.0012693366532396388,
0.13132169576059852,0.03910952752432396,
0.1313715710723192,0.014541268060932323,
0.1314214463840399,0.02579291305635861,
0.1314713216957606,0.03586064654731469,
0.1315211970074813,0.024344740954479475,
0.13157107231920198,0.02637120011200485,
0.1316209476309227,0.039518364776225764,
0.1316708229426434,0.020333829874084407,
0.13172069825436408,0.04291429285545915,
0.1317705735660848,0.04239793548591739,
0.13182044887780547,0.040367724535697966,
0.13187032418952618,0.038651882659338804,
0.1319201995012469,0.05345384199573423,
0.13197007481296757,0.053793350105790394,
0.13201995012468828,0.016061383761546005,
0.13206982543640897,-0.014142103167728601,
0.13211970074812968,0.01961351103491514,
0.13216957605985039,0.05214120244627914,
0.13221945137157107,0.023964772698682628,
0.13226932668329178,0.03676357681641852,
0.13231920199501246,0.02851666140220753,
0.13236907730673317,0.01664052788149769,
0.13241895261845388,0.041976641974154544,
0.13246882793017456,0.032858242490896965,
0.13251870324189527,0.03535856374983064,
0.13256857855361595,0.05649624721999404,
0.13261845386533666,0.013199873951434305,
0.13266832917705737,0.026547741638063907,
0.13271820448877805,0.010326021385985781,
0.13276807980049876,0.025472601532000674,
0.13281795511221944,0.009035536005415797,
0.13286783042394015,0.014603803143129073,
0.13291770573566083,0.028467562461147358,
0.13296758104738154,0.03826235041117508,
0.13301745635910225,0.025498261736969268,
0.13306733167082294,0.01567495790971001,
0.13311720698254365,0.025441867134877488,
0.13316708229426433,0.02146737372804816,
0.13321695760598504,0.005288600653411912,
0.13326683291770575,0.029905300592305138,
0.13331670822942643,0.020426141502071126,
0.13336658354114714,0.009873914058457042,
0.13341645885286782,0.02482764366264556,
0.13346633416458853,-0.01040860097016804,
0.13351620947630924,-0.006720948917473785,
0.13356608478802992,0.027232017963497848,
0.13361596009975063,-0.007756513066528796,
0.1336658354114713,0.05578067702447047,
0.13371571072319202,0.019391028934646715,
0.13376558603491273,-0.0006919516001906052,
0.1338154613466334,0.007991390970554074,
0.13386533665835412,0.01937147018941925,
0.1339152119700748,0.016711352762516167,
0.13396508728179551,-0.0047625511744604394,
0.1340149625935162,0.019952850979157628,
0.1340648379052369,-0.012321786891389654,
0.13411471321695762,0.0362514768210611,
0.1341645885286783,0.004366414595236024,
0.134214463840399,0.008179571674708536,
0.1342643391521197,0.028838633303484126,
0.1343142144638404,0.023146261940575084,
0.1343640897755611,0.02840309616863925,
0.1344139650872818,0.02569404082576704,
0.1344638403990025,0.016608441841604704,
0.13451371571072318,-0.005876271007358179,
0.1345635910224439,-0.012635583156539733,
0.1346134663341646,0.012941574217498784,
0.13466334164588528,0.009723989808254903,
0.134713216957606,0.021179617035637865,
0.13476309226932667,-0.0006202096341957689,
0.13481296758104738,-0.003694580187882301,
0.1348628428927681,0.008408518398649407,
0.13491271820448877,0.003924028161096156,
0.13496259351620948,-0.013077487110947717,
0.13501246882793017,0.0100992895625501,
0.13506234413965088,0.04377295165612703,
0.13511221945137158,0.01062736688901699,
0.13516209476309227,0.025846513730906122,
0.13521197007481298,0.03267682129605302,
0.13526184538653366,0.010121835513382124,
0.13531172069825437,0.01616747607967968,
0.13536159600997505,0.00014856155131236226,
0.13541147132169576,-0.009544952422627193,
0.13546134663341647,-0.003986406070319985,
0.13551122194513715,0.028965355785482906,
0.13556109725685786,0.00076452978549896,
0.13561097256857854,0.004757946019662133,
0.13566084788029925,-0.005725217495801377,
0.13571072319201996,0.00785766371033738,
0.13576059850374064,0.018693259330272737,
0.13581047381546135,0.03299680649781,
0.13586034912718203,-0.02415617759437638,
0.13591022443890274,0.00036402456465667744,
0.13596009975062345,0.013818571572591401,
0.13600997506234414,0.016107684918929048,
0.13605985037406484,0.019709244966466685,
0.13610972568578553,-0.0045293886972123274,
0.13615960099750624,-0.022370730329134683,
0.13620947630922695,0.023818081871297057,
0.13625935162094763,0.009340412852587743,
0.13630922693266834,0.0034319054949290967,
0.13635910224438902,0.012406125606713109,
0.13640897755610973,0.001542534917790035,
0.1364588528678304,0.010887226428086587,
0.13650872817955112,-0.029552272427591477,
0.13655860349127183,0.011640579579774858,
0.1366084788029925,0.014260728766122627,
0.13665835411471322,0.0055210265308282234,
0.1367082294264339,-0.008522689015831324,
0.1367581047381546,-0.0012850550659427545,
0.13680798004987532,0.014929091052213685,
0.136857855361596,0.009193951052034197,
0.1369077306733167,0.005863630488370753,
0.1369576059850374,0.008377145417560043,
0.1370074812967581,0.0069923437238480265,
0.13705735660847881,-0.010167539069693666,
0.1371072319201995,-0.0026968877118622395,
0.1371571072319202,0.014022517235506043,
0.1372069825436409,-0.001905629106311345,
0.1372568578553616,-0.019431021673788757,
0.1373067331670823,-0.014955864519094642,
0.137356608478803,-0.01538676583617478,
0.1374064837905237,-0.02113125287168334,
0.13745635910224438,-0.017395969198793854,
0.1375062344139651,0.023699479275280537,
0.1375561097256858,-0.006354562410808557,
0.13760598503740648,0.019856987220041235,
0.1376558603491272,0.011581183446575495,
0.13770573566084787,-0.022243708440421422,
0.13775561097256858,-0.011508251825167681,
0.13780548628428926,-0.01847459779290727,
0.13785536159600997,0.003699794636593163,
0.13790523690773068,-0.003960047162932197,
0.13795511221945136,-0.02862083341049028,
0.13800498753117207,-0.010267578246217959,
0.13805486284289276,-0.005015514374191462,
0.13810473815461347,-0.0018980530910418002,
0.13815461346633418,-0.022467999494133882,
0.13820448877805486,-0.014936961537147932,
0.13825436408977557,-0.005391295930654791,
0.13830423940149625,-0.0049225795046365295,
0.13835411471321696,-0.02167783387569413,
0.13840399002493767,-0.008811156544970415,
0.13845386533665835,-0.01367369592070336,
0.13850374064837906,0.004099325239893901,
0.13855361596009974,-0.01203115684639594,
0.13860349127182045,0.00035122058154656716,
0.13865336658354116,0.004442478195659591,
0.13870324189526184,0.0015616188044067416,
0.13875311720698255,0.004972435223092951,
0.13880299251870323,-0.011889995107900035,
0.13885286783042394,-0.026543274623386695,
0.13890274314214462,-0.02653444714767652,
0.13895261845386533,-0.001297541674712019,
0.13900249376558604,0.02113622345691358,
0.13905236907730673,-0.018518757124589426,
0.13910224438902744,0.011788431950500578,
0.13915211970074812,-0.029702420985317612,
0.13920199501246883,-0.007593655472930586,
0.13925187032418954,-0.03232900628865264,
0.13930174563591022,-0.019976174708787132,
0.13935162094763093,-0.025847200895237187,
0.1394014962593516,0.006620899570733274,
0.13945137157107232,0.01880744403560282,
0.13950124688279303,-0.03565973756634772,
0.1395511221945137,-0.022557517105576734,
0.13960099750623442,0.024932809029157278,
0.1396508728179551,0.016990797726340528,
0.1397007481296758,-0.00120107828226974,
0.13975062344139652,-0.01412919824032953,
0.1398004987531172,-0.02413237512704719,
0.1398503740648379,-0.016501282901168847,
0.1399002493765586,-0.01975443442912908,
0.1399501246882793,0.005143155230375613,
0.14,-0.014093376061800507,
0.1400498753117207,-0.007066547845041387,
0.1400997506234414,0.029012889463038274,
0.1401496259351621,-0.010684897308460704,
0.1401995012468828,-0.010713982963812627,
0.14024937655860348,0.008077409024138362,
0.1402992518703242,0.002350591647993625,
0.1403491271820449,-0.002940625197663597,
0.14039900249376558,-0.03568289994957077,
0.1404488778054863,0.022209129270091214,
0.14049875311720697,0.0019721875853922436,
0.14054862842892768,0.0017742152463362318,
0.1405985037406484,0.01024723294209435,
0.14064837905236907,0.007640312289368062,
0.14069825436408978,-0.01189245977237841,
0.14074812967581046,0.02093679174082206,
0.14079800498753117,-0.017715695031216637,
0.14084788029925188,-0.03919682249497102,
0.14089775561097256,-0.012956818943613257,
0.14094763092269327,-0.028145883144326138,
0.14099750623441396,-0.003526893455376808,
0.14104738154613466,-0.019383328263681703,
0.14109725685785537,-0.005273149590233986,
0.14114713216957606,-0.012752407998887307,
0.14119700748129677,-0.004009053355666517,
0.14124688279301745,-0.019947318335578917,
0.14129675810473816,-0.01641261420004192,
0.14134663341645887,-0.03201455572265962,
