time,amplitude,label
0.0,-0.039480674818898026,
4.987531172069826e-05,-0.026386428407066224,
9.975062344139652e-05,-0.003456193529395017,
0.00014962593516209475,-0.006119989777814602,
0.00019950124688279303,-0.03177030187836842,
0.00024937655860349125,-0.008383689717828924,
0.0002992518703241895,-0.023035239548305036,
0.00034912718204488776,0.005208112529478982,
0.00039900249376558606,-0.04725531355634897,
0.0004488778054862843,-0.004506708157555628,
0.0004987531172069825,-0.015370978949987926,
0.0005486284289276808,-0.002293635022851133,
0.000598503740648379,-0.049309708177079525,
0.0006483790523690773,-0.02187595912443343,
0.0006982543640897755,-0.04259945592457965,
0.0007481296758104738,-0.01811450429740658,
0.0007980049875311721,-0.00439348134350797,
0.0008478802992518703,-0.01590988070674851,
0.0008977556109725686,-0.02993164560633559,
0.0009476309226932668,-0.0369842160560303,
0.000997506234413965,-0.02478653202427762,
0.0010473815461346633,-0.01132907388267833,
0.0010972568578553616,-0.0064364448967835115,
0.00114713216957606,-0.01914511341505115,
0.001197007481296758,-0.02774300586160785,
0.0012468827930174563,-0.0033875887173088204,
0.0012967581047381546,-0.03118505354680782,
0.001346633416458853,-0.011986368845798363,
0.001396508728179551,-0.005464711478811361,
0.0014463840399002493,-0.05126117282415302,
0.0014962593516209476,-0.02454021158022747,
0.001546134663341646,-0.010234885631647211,
0.0015960099750623442,-0.002631556097529693,
0.0016458852867830423,-0.007712044528905965,
0.0016957605985037406,-0.03539947790984253,
0.001745635910224439,-0.020427356489796673,
0.0017955112219451373,-0.026158275277956833,
0.0018453865336658353,-0.027393248396256013,
0.0018952618453865336,0.019601968160879103,
0.001945137157107232,-0.020159323468070887,
0.00199501246882793,0.01327331086575496,
0.0020448877805486283,-0.036856984057413514,
0.0020947630922693266,-0.014974521012787097,
0.002144638403990025,-0.012785037677821926,
0.0021945137157107233,-0.015368715571988118,
0.0022443890274314216,-0.04148518050673705,
0.00229426433915212,-0.0031459345755121514,
0.0023441396508728177,-0.015612377404995138,
0.002394014962593516,-0.0263409370548419,
0.0024438902743142144,-0.0006221594524519376,
0.0024937655860349127,-0.009765075622935557,
0.002543640897755611,-0.018488455843813915,
0.0025935162094763093,-0.007714473355704554,
0.0026433915211970076,-0.05139813569098654,
0.002693266832917706,-0.03212947517718726,
0.002743142144638404,-0.025840838094229247,
0.002793017456359102,-0.01640835489920497,
0.0028428927680798004,-0.031280979608098926,
0.0028927680798004987,-0.01468096974041358,
0.002942643391521197,-0.014629493985774004,
0.0029925187032418953,-0.032646082002348184,
0.0030423940149625936,-0.00831428536096098,
0.003092269326683292,-0.024421592542920832,
0.00314214463840399,-0.023351471343891903,
0.0031920199501246885,-0.014381335019155037,
0.0032418952618453864,-0.008152069587729615,
0.0032917705735660847,-0.02885723935389794,
0.003341645885286783,-0.03087452543611585,
0.0033915211970074813,-0.0284830800283564,
0.0034413965087281796,0.008058752400343396,
0.003491271820448878,-0.002162163563415727,
0.003541147132169576,-0.013923702312173485,
0.0035910224438902745,-0.016203183515561638,
0.0036408977556109724,-0.011978593520225872,
0.0036907730673316707,-0.011283142839880418,
0.003740648379052369,-0.0279661845552324,
0.0037905236907730673,-0.0011970529927761448,
0.0038403990024937656,-0.002917161160288584,
0.003890274314214464,-0.028355989511301423,
0.003940149625935162,0.0003451736853632738,
0.00399002493765586,0.0013299403138315284,
0.004039900249376558,-0.02247918744890194,
0.004089775561097257,-0.006373764169128918,
0.004139650872817955,-0.004546471633853326,
0.004189526184538653,-0.010312674035780888,
0.004239401496259352,-0.007021652548696842,
0.00428927680798005,-0.03465302765579005,
0.004339152119700748,-0.001999301592047524,
0.0043890274314214465,-0.010782896542671989,
0.004438902743142145,-0.023144682153499293,
0.004488778054862843,-0.0018516144629486184,
0.004538653366583541,-0.017595854125399425,
0.00458852867830424,0.008649361823425251,
0.004638403990024938,0.01183199603409522,
0.0046882793017456355,-0.0014946043214808073,
0.004738154613466334,-0.0048119006675827955,
0.004788029925187032,-0.019080656469136505,
0.00483790523690773,-0.005525714263498192,
0.004887780548628429,-0.01242505508978366,
0.004937655860349127,-0.02564952497192372,
0.004987531172069825,0.009323859657957996,
0.005037406483790524,-0.002315018476625492,
0.005087281795511222,-0.015555524874230273,
0.00513715710723192,-0.0018677410993224002,
0.0051870324189526185,-0.027610568753839576,
0.005236907730673317,-0.024366249599866222,
0.005286783042394015,-0.023161084531223196,
0.0053366583541147134,-0.028748371189222646,
0.005386533665835412,0.004781981628426427,
0.00543640897755611,-0.01732181658268927,
0.005486284289276808,0.00457614231303321,
0.005536159600997507,-0.035701286527840916,
0.005586034912718204,-0.024328790415791293,
0.005635910224438902,-0.0019692629402164197,
0.005685785536159601,0.0003416790336585587,
0.005735660847880299,0.0009769837611000838,
0.005785536159600997,0.02580869096562867,
0.005835411471321696,-0.0063271396856088005,
0.005885286783042394,0.010154989478670839,
0.005935162094763092,-0.004022796776604473,
0.0059850374064837905,-0.005363350850007199,
0.006034912718204489,-0.006454109077531793,
0.006084788029925187,0.005366077540904018,
0.0061346633416458855,-0.011177943684917832,
0.006184538653366584,0.010585841888812633,
0.006234413965087282,3.369849062169776e-05,
0.00628428927680798,0.002285326194590814,
0.006334164588528679,-0.025751607723067768,
0.006384039900249377,-0.009926710758736338,
0.006433915211970074,0.027080363443945595,
0.006483790523690773,0.02479185559917103,
0.006533665835411471,-0.015565559855838232,
0.006583541147132169,-0.019670358117596896,
0.006633416458852868,-0.018132883254586674,
0.006683291770573566,-0.009262415275593837,
0.006733167082294264,-0.022299163236241724,
0.0067830423940149626,-0.0052650110196730375,
0.006832917705735661,0.023926890108217646,
0.006882793017456359,-0.017351920627032533,
0.0069326683291770575,-0.020830140645000182,
0.006982543640897756,-0.016283107859942754,
0.007032418952618454,-0.004399086286374278,
0.007082294264339152,-0.029120540985271073,
0.007132169576059851,-0.0014408417446638393,
0.007182044887780549,-0.004724703244103802,
0.007231920199501247,0.014269066419657282,
0.007281795511221945,-0.0011965011143644931,
0.007331670822942643,0.02706218610792655,
0.007381546134663341,0.010507718098757085,
0.00743142144638404,0.0019071932222337004,
0.007481296758104738,-0.0012451606816411718,
0.007531172069825436,0.008313263023844721,
0.007581047381546135,0.025126662571751467,
0.007630922693266833,-0.018755980236405626,
0.007680798004987531,-0.01703081008184097,
0.0077306733167082295,-0.007540632990363114,
0.007780548628428928,-0.005071449158242043,
0.007830423940149626,-0.017741911260334194,
0.007880299251870324,0.051562172424590304,
0.007930174563591023,0.015060153102572967,
0.00798004987531172,0.03503544381495902,
0.00802992518703242,-0.01708893818089191,
0.008079800498753117,-0.022400683714392827,
0.008129675810473816,0.011639161734339123,
0.008179551122194513,5.4502518469987105e-05,
0.008229426433915213,0.02357605918166114,
0.00827930174563591,-0.0048236138677543675,
0.00832917705735661,-0.0010136450758964268,
0.008379052369077307,0.02107542562720791,
0.008428927680798006,-0.00138648394471322,
0.008478802992518703,0.02665143840282766,
0.0085286783042394,-0.00578577831815124,
0.0085785536159601,0.01831038955381333,
0.008628428927680797,0.01080772415392993,
0.008678304239401496,0.04233257085443092,
0.008728179551122194,0.015163343750419923,
0.008778054862842893,0.03509124181170138,
0.00882793017456359,0.025014379384863422,
0.00887780548628429,0.020942669431272355,
0.008927680798004987,-0.011300931480214261,
0.008977556109725686,0.008715614186278739,
0.009027431421446384,0.013591839394854225,
0.009077306733167083,0.024833150126589997,
0.00912718204488778,0.006433954743792626,
0.00917705735660848,0.03482254778302815,
0.009226932668329177,0.011537893174239592,
0.009276807980049876,0.035941265146338615,
0.009326683291770574,0.026315563837203848,
0.009376558603491271,0.04562754525881766,
0.00942643391521197,-0.007669669551103039,
0.009476309226932668,-0.0034605276217043388,
0.009526184538653367,0.009357526418801684,
0.009576059850374064,0.00778053456026488,
0.009625935162094763,0.026525751147832767,
0.00967581047381546,0.02714034511464997,
0.00972568578553616,0.0013065127525884318,
0.009775561097256857,0.010841485819452174,
0.009825436408977557,0.049494116368798004,
0.009875311720698254,0.047091430883923535,
0.009925187032418953,0.014162314268648722,
0.00997506234413965,0.024197534020367662,
0.01002493765586035,0.02168260586021313,
0.010074812967581047,0.03156215880474198,
0.010124688279301746,0.004510328790881667,
0.010174563591022444,0.029385073546877565,
0.010224438902743141,0.012003513277699156,
0.01027431421446384,0.025905145609530993,
0.010324189526184538,0.04387858913634275,
0.010374064837905237,0.03444649604642762,
0.010423940149625935,0.0194514540277533,
0.010473815461346634,0.02615660616392305,
0.010523690773067331,0.03847604992517113,
0.01057356608478803,-0.0006346073919313473,
0.010623441396508728,-0.005742972957609366,
0.010673316708229427,0.03948932315867648,
0.010723192019950124,0.012345514235360202,
0.010773067331670824,0.021122346280410653,
0.010822942643391521,0.03487389457008579,
0.01087281795511222,0.014858632716513664,
0.010922693266832918,0.023738880807774143,
0.010972568578553617,-0.007078072171107046,
0.011022443890274314,-0.0009387264919978253,
0.011072319201995013,0.008846780644255673,
0.01112219451371571,-0.0015580196974165593,
0.011172069825436408,0.018541784418305177,
0.011221945137157107,0.013624999047507327,
0.011271820448877805,0.005803482571170939,
0.011321695760598504,0.03535151990155189,
0.011371571072319201,0.025027823163485896,
0.0114214463840399,0.04142845456432432,
0.011471321695760598,0.006602855236958999,
0.011521197007481297,0.004462930277083554,
0.011571072319201995,0.04637208945571357,
0.011620947630922694,0.0210881917339923,
0.011670822942643391,0.022556651811261912,
0.01172069825436409,0.007724251295619796,
0.011770573566084788,0.0086682276259997,
0.011820448877805487,0.04026791127624721,
0.011870324189526184,0.011652795978827579,
0.011920199501246884,0.030429690687992603,
0.011970074812967581,0.010592124021558357,
0.012019950124688279,0.01601525948093593,
0.012069825436408978,0.006651830203811654,
0.012119700748129675,0.022679422640516846,
0.012169576059850374,0.002089116899474299,
0.012219451371571072,0.04218663488740349,
0.012269326683291771,0.0009470701976547063,
0.012319201995012468,-0.007413956971092591,
0.012369077306733168,0.019926216267829835,
0.012418952618453865,0.05084475325432445,
0.012468827930174564,0.02237402719595028,
0.012518703241895262,-0.00760996755100149,
0.01256857855361596,0.007661865203115207,
0.012618453865336658,0.022649923393366564,
0.012668329177057357,-0.00028379044267849707,
0.012718204488778055,0.021790404306466934,
0.012768079800498754,0.012473122277097267,
0.012817955112219451,0.028946966142647017,
0.012867830423940149,0.024241528545707706,
0.012917705735660848,0.020553469021870132,
0.012967581047381545,0.02483830657624434,
0.013017456359102245,0.05131404469439946,
0.013067331670822942,0.027377975119035534,
0.013117206982543641,-0.001682209808440839,
0.013167082294264339,0.003623205690806,
0.013216957605985038,-0.001969306720211516,
0.013266832917705735,0.011877647067746688,
0.013316708229426434,0.0010727737031822684,
0.013366583541147132,0.023908004067133323,
0.013416458852867831,0.006514298816336269,
0.013466334164588529,0.04235351838928084,
0.013516209476309228,0.027154824498795516,
0.013566084788029925,0.0018204075699528484,
0.013615960099750624,0.008159744387299293,
0.013665835411471322,0.01922788259800467,
0.01371571072319202,-0.0036616445617152424,
0.013765586034912718,0.018543876924073017,
0.013815461346633416,-0.002257722497904395,
0.013865336658354115,0.005547460228017637,
0.013915211970074812,0.01689707151329774,
0.013965087281795512,0.01678334454622215,
0.014014962593516209,0.004160608364734468,
0.014064837905236908,-0.016067337668838423,
0.014114713216957606,0.020864989353070015,
0.014164588528678305,0.024580980483030118,
0.014214463840399002,0.017324132073170177,
0.014264339152119701,0.02611688434688467,
0.014314214463840399,0.03604322014465833,
0.014364089775561098,0.04693088829135485,
0.014413965087281795,0.02676258076224555,
0.014463840399002495,0.01377513867075109,
0.014513715710723192,0.030278908165529098,
0.01456359102244389,0.02217507561724744,
0.014613466334164589,-0.0012914206624893235,
0.014663341645885286,0.023839009511163627,
0.014713216957605985,0.006657724260039086,
0.014763092269326683,0.006715001634364354,
0.014812967581047382,0.010021529798812519,
0.01486284289276808,0.014426660751229987,
0.014912718204488778,0.03947764643638973,
0.014962593516209476,0.024169773346379125,
0.015012468827930175,0.024014695082865658,
0.015062344139650873,0.002953566080175921,
0.015112219451371572,-0.006036869917799156,
0.01516209476309227,0.00783108681449365,
0.015211970074812968,0.00939888918203978,
0.015261845386533666,0.011833563892661157,
0.015311720698254365,0.007790178594706076,
0.015361596009975062,-0.00781200842106599,
0.01541147132169576,-0.01472075367333535,
0.015461346633416459,0.028573986061042875,
0.015511221945137156,0.01609214160571778,
0.015561097256857856,0.0291429051186858,
0.015610972568578553,-0.002128876498234884,
0.015660847880299252,0.007882534442833935,
0.01571072319201995,0.008568187181542359,
0.015760598503740647,0.006873653308659954,
0.015810473815461346,0.01964535260410159,
0.015860349127182045,-0.011844723166883422,
0.015910224438902745,0.024602217129355595,
0.01596009975062344,0.018835496712886986,
0.01600997506234414,0.0003645195419834362,
0.01605985037406484,-0.00526488909031513,
0.016109725685785538,-0.005593815357037868,
0.016159600997506234,-0.014147396730137847,
0.016209476309226933,0.03750566317723833,
0.016259351620947632,0.038216485267995155,
0.016309226932668328,-0.009516455790493154,
0.016359102244389027,0.00016875786316316102,
0.016408977556109726,0.010408549043938911,
0.016458852867830425,-0.004187088884413993,
0.01650872817955112,-0.013264625575969247,
0.01655860349127182,0.01807241737925724,
0.01660847880299252,-0.006017735805202268,
0.01665835411471322,-0.029563047296562856,
0.016708229426433914,-0.014596891095579542,
0.016758104738154613,-0.005523944759293921,
0.016807980049875312,-0.02207308513181138,
0.01685785536159601,0.010909487160678903,
0.016907730673316707,-0.012017772992346068,
0.016957605985037406,0.008615391626801435,
0.017007481296758106,-0.01598046051856015,
0.0170573566084788,-0.015891519554035425,
0.0171072319201995,-0.022071783652922315,
0.0171571072319202,0.01637797049146265,
0.0172069825436409,-0.026206812865310666,
0.017256857855361595,-0.027185919741683745,
0.017306733167082294,0.008535781250808847,
0.017356608478802993,-0.017904516546946008,
0.017406483790523692,-0.0016696701916736776,
0.017456359102244388,-0.00023657215586434183,
0.017506234413965087,0.00015569469932268272,
0.017556109725685786,-0.023122035794904138,
0.017605985037406485,0.005436893278260349,
0.01765586034912718,0.021018394608841813,
0.01770573566084788,-0.009780879010057933,
0.01775561097256858,0.011418403432678088,
0.01780548628428928,0.0024342272419627066,
0.017855361596009974,-0.016302125834623656,
0.017905236907730673,-0.018020472092583558,
0.017955112219451373,-0.003764582408173801,
0.018004987531172068,-0.01630720170479262,
0.018054862842892767,-0.0038002831865745954,
0.018104738154613467,-0.021991144775191422,
0.018154613466334166,-0.00022338827098393205,
0.01820448877805486,0.011655890084450154,
0.01825436408977556,1.1961901551831022e-05,
0.01830423940149626,-0.03132466953854852,
0.01835411471321696,-0.022152599945029626,
0.018403990024937655,0.00927672661005467,
0.018453865336658354,0.005175153924504653,
0.018503740648379053,-0.02825199351542685,
0.018553615960099752,-0.0026519456382723267,
0.018603491271820448,-0.01634118937221149,
0.018653366583541147,-0.017065216580931908,
0.018703241895261846,-0.010525344454451822,
0.018753117206982542,0.010670697310324273,
0.01880299251870324,-0.013863312002254005,
0.01885286783042394,-0.00914466997610479,
0.01890274314214464,-0.011564173989433414,
0.018952618453865335,-0.026380428893508952,
0.019002493765586034,-0.006839780866172904,
0.019052369077306733,-0.00443661138133463,
0.019102244389027433,-0.009650030147078988,
0.01915211970074813,0.0022269191235479973,
0.019201995012468828,-0.006415540426410991,
0.019251870324189527,-0.02703226368387807,
0.019301745635910226,0.0012869037576714835,
0.01935162094763092,-0.026865410040316562,
0.01940149625935162,-0.0052438071584957665,
0.01945137157107232,0.02385830311664592,
0.01950124688279302,-0.011860396787443725,
0.019551122194513715,-0.06017550523192729,
0.019600997506234414,-0.030203836847134326,
0.019650872817955113,6.656269612834338e-05,
0.01970074812967581,-0.014643235999740104,
0.019750623441396508,-0.0060002936098571685,
0.019800498753117207,-0.0022997600246165272,
0.019850374064837906,-0.03613759785976982,
0.019900249376558602,-0.03323832400736633,
0.0199501246882793,-0.02439106369623239,
0.02,-0.0015729142690550334,
0.0200498753117207,-0.009810905806854696,
0.020099750623441395,0.004519673259520258,
0.020149625935162094,-0.013803815365094731,
0.020199501246882794,-0.03877652692160541,
0.020249376558603493,-0.033990850139313564,
0.02029925187032419,-0.02342376454868796,
0.020349127182044888,-0.00992093550176774,
0.020399002493765587,-0.00925414418593298,
0.020448877805486283,-0.019906041933747152,
0.02049875311720698,-0.042138102215202866,
0.02054862842892768,-0.03258924588608089,
0.02059850374064838,-0.03513522422817305,
0.020648379052369076,-0.03577677220312334,
0.020698254364089775,-0.01162202145644782,
0.020748129675810474,-0.019143491970939112,
0.020798004987531173,-0.05800632936039493,
0.02084788029925187,-0.03051451018170689,
0.020897755610972568,-0.005649325290373371,
0.020947630922693267,-0.033379878121820354,
0.020997506234413967,-0.011275316596686355,
0.021047381546134662,-0.0075744207980894,
0.02109725685785536,-0.018364457042899022,
0.02114713216957606,-0.008056847346640708,
0.02119700748129676,-0.0019093830146718616,
0.021246882793017455,-0.012278527341758903,
0.021296758104738155,-0.0024979854237736354,
0.021346633416458854,-0.0162084587809789,
0.02139650872817955,-0.018382965549443075,
0.02144638403990025,-0.016648410166081335,
0.021496259351620948,-0.024785121664248757,
0.021546134663341647,-0.013704576607420797,
0.021596009975062343,0.017223886326889166,
0.021645885286783042,-0.027579673495544306,
0.02169576059850374,0.0044538387237169665,
0.02174563591022444,-0.006200986247312704,
0.021795511221945136,-0.013896429822639646,
0.021845386533665835,-0.036429299633942286,
0.021895261845386534,-0.015525380046633916,
0.021945137157107233,-0.017100869790493564,
0.02199501246882793,-0.001746248751575162,
0.02204488778054863,-0.0026680557149793265,
0.022094763092269327,-0.0044768260678369805,
0.022144638403990027,0.0001295828934258121,
0.022194513715710722,-0.020752966127053067,
0.02224438902743142,-0.021514736536841345,
0.02229426433915212,-0.0066396792900317095,
0.022344139650872816,0.007658328297811483,
0.022394014962593516,-0.011684422757351971,
0.022443890274314215,-0.03764510001868601,
0.022493765586034914,-0.017863750759123047,
0.02254364089775561,-0.013303507916127711,
0.02259351620947631,-0.016564266798972067,
0.022643391521197008,-0.022043221866661175,
0.022693266832917707,-0.014423618803105057,
0.022743142144638403,-0.004697504104218441,
0.022793017456359102,-0.022136511333165732,
0.0228428927680798,-0.007434631022386871,
0.0228927680798005,-0.0019023057993420283,
0.022942643391521196,-0.04283476025823428,
0.022992518703241895,-0.009171696392573384,
0.023042394014962594,-0.04354698945837293,
0.02309226932668329,-0.022850518378125684,
0.02314214463840399,0.006920109002839049,
0.02319201995012469,-0.02501912367635773,
0.023241895261845388,-0.04107007088089001,
0.023291770573566083,0.007623168106432838,
0.023341645885286783,-0.030277042279374902,
0.02339152119700748,0.0035571508327148504,
0.02344139650872818,-0.005015154260664019,
0.023491271820448877,-0.01547795373713087,
0.023541147132169576,-0.002390068431137293,
0.023591022443890275,-0.014237721266142719,
0.023640897755610974,-0.038486746136416006,
0.02369077306733167,-0.00017969646659800158,
0.02374064837905237,-0.027171760500433538,
0.023790523690773068,-0.030766206794910662,
0.023840399002493767,-0.021017758258908274,
0.023890274314214463,0.0028686800823623237,
0.023940149625935162,-0.00459299017847545,
0.02399002493765586,-0.0218830387554825,
0.024039900249376557,-0.013732453085952941,
0.024089775561097256,0.003858295886418242,
0.024139650872817955,-0.034999926293122346,
0.024189526184538655,-0.012194680443153793,
0.02423940149625935,-0.008909471477103081,
0.02428927680798005,0.00989593362478888,
0.02433915211970075,-0.014983205747549083,
0.024389027431421448,-0.0021740499398907355,
0.024438902743142144,-0.00986449561770646,
0.024488778054862843,-0.019368878990945478,
0.024538653366583542,-0.024412035530274354,
0.02458852867830424,-0.03030648890649483,
0.024638403990024937,-0.026188180573239808,
0.024688279301745636,-0.020652771792131604,
0.024738154613466335,0.003014510920805114,
0.02478802992518703,-0.0074069702608082,
0.02483790523690773,0.00768152767859075,
0.02488778054862843,-0.014726967600021406,
0.02493765586034913,0.009965183244529306,
0.024987531172069824,0.0057291963720739695,
0.025037406483790523,0.010533835103427158,
0.025087281795511222,0.015820697998015398,
0.02513715710723192,-0.013484305456617166,
0.025187032418952617,-0.012229899859592715,
0.025236907730673316,-0.003765247193788992,
0.025286783042394016,-0.031231384661706444,
0.025336658354114715,-0.019655692451397665,
0.02538653366583541,0.0017318071352559715,
0.02543640897755611,-0.0035850911467167476,
0.02548628428927681,-0.026888060935247232,
0.025536159600997508,0.005082834423077445,
0.025586034912718204,-0.025023005872649606,
0.025635910224438903,-0.0037606558877495834,
0.025685785536159602,0.009301720104428231,
0.025735660847880298,0.00018262027845098328,
0.025785536159600997,0.008142345572556782,
0.025835411471321696,0.030803106165312656,
0.025885286783042395,-0.022725875999261957,
0.02593516209476309,-0.023532992189600387,
0.02598503740648379,0.019952485000626553,
0.02603491271820449,-0.012254367745475668,
0.02608478802992519,0.00666225811730501,
0.026134663341645884,-0.034007462830385596,
0.026184538653366583,0.005884493403579758,
0.026234413965087282,0.019748232825117992,
0.02628428927680798,-0.011885123801621043,
0.026334164588528677,-0.0008681936983388423,
0.026384039900249377,0.004139474774672575,
0.026433915211970076,-0.03610873256987063,
0.02648379052369077,-0.001677576937538188,
0.02653366583541147,-0.001964728086085084,
0.02658354114713217,0.014393688808543845,
0.02663341645885287,-0.008687074595025976,
0.026683291770573565,-0.024564275539163495,
0.026733167082294264,0.004807057710788788,
0.026783042394014963,0.01902055993024441,
0.026832917705735662,0.01771257749550191,
0.026882793017456358,-0.0007287088713310535,
0.026932668329177057,0.00902211233598681,
0.026982543640897756,-0.010246647675417676,
0.027032418952618455,-0.010603731434119535,
0.02708229426433915,0.0035435473750457863,
0.02713216957605985,-0.002909659811535556,
0.02718204488778055,0.0066459249154621055,
0.02723192019950125,0.02312097101291062,
0.027281795511221944,0.03262741346723928,
0.027331670822942643,0.02777560057908911,
0.027381546134663343,0.0246182391368271,
0.02743142144638404,0.0017768457438849094,
0.027481296758104738,0.025934289523135225,
0.027531172069825437,0.00018794239976083465,
0.027581047381546136,0.025854154277681007,
0.02763092269326683,0.018320707810184463,
0.02768079800498753,0.03003262636104189,
0.02773067331670823,0.02388026895765332,
0.02778054862842893,0.0002758436584749651,
0.027830423940149625,0.003014817421745638,
0.027880299251870324,0.029580802043580257,
0.027930174563591023,-0.01994609325113223,
0.027980049875311722,0.007651758669999663,
0.028029925187032418,0.007546013561248016,
0.028079800498753117,0.004023145917227134,
0.028129675810473816,0.013161847725671982,
0.028179551122194512,0.007604956602893788,
0.02822942643391521,0.0062618805058365775,
0.02827930174563591,0.025682942616200237,
0.02832917705735661,-0.013608755610453589,
0.028379052369077305,0.01938459483086358,
0.028428927680798004,0.0037919203264057347,
0.028478802992518704,0.009989513946009457,
0.028528678304239403,0.027831070036203647,
0.0285785536159601,-0.010652505074542623,
0.028628428927680798,0.023527874911852723,
0.028678304239401497,0.030606292383364216,
0.028728179551122196,0.01992650789478404,
0.02877805486284289,0.0406349250870671,
0.02882793017456359,0.03202391187378317,
0.02887780548628429,0.01110362069429445,
0.02892768079800499,0.02035675304768293,
0.028977556109725685,-0.0023459037817326472,
0.029027431421446384,0.004554324869528727,
0.029077306733167083,0.018363880373559537,
0.02912718204488778,0.002708670614763802,
0.029177057356608478,0.0027811924108265603,
0.029226932668329177,0.00972367455162261,
0.029276807980049877,0.029845096037471087,
0.029326683291770572,0.041393528880150694,
0.02937655860349127,0.01608339109875795,
0.02942643391521197,0.012197546273459207,
0.02947630922693267,0.011735976913180846,
0.029526184538653365,0.004907156791067083,
0.029576059850374065,0.041975913761880757,
0.029625935162094764,-0.008378771496277877,
0.029675810473815463,0.0003270868814130058,
0.02972568578553616,0.018995078484790828,
0.029775561097256858,0.006529244317018472,
0.029825436408977557,0.02809195692557678,
0.029875311720698253,0.028780216390818472,
0.029925187032418952,0.012813435244989603,
0.02997506234413965,-0.00791379735005393,
0.03002493765586035,-0.005422974000021997,
0.030074812967581046,0.035262441872905934,
0.030124688279301745,0.02702768774970543,
0.030174563591022444,0.04400743625685907,
0.030224438902743143,0.021402111042806315,
0.03027431421446384,0.023895890174537505,
0.03032418952618454,0.0024419861037073692,
0.030374064837905237,0.04338196907967146,
0.030423940149625937,0.03177751807362829,
0.030473815461346632,0.022528241443507093,
0.03052369077306733,0.02639430165786445,
0.03057356608478803,0.03222429802637501,
0.03062344139650873,0.0574642594586731,
0.030673316708229426,0.04709994512883227,
0.030723192019950125,0.021960177077266985,
0.030773067331670824,0.0045509334225452835,
0.03082294264339152,0.0273853499479534,
0.03087281795511222,-0.0041710587521769475,
0.030922693266832918,0.01850606698313197,
0.030972568578553617,0.020564669332470337,
0.031022443890274313,0.035811546954905196,
0.031072319201995012,0.006406166755524596,
0.03112219451371571,0.024466375165752764,
0.03117206982543641,0.01727149231391753,
0.031221945137157106,0.025895405657028435,
0.03127182044887781,0.022270185755531482,
0.031321695760598504,0.018432324477729512,
0.0313715710723192,0.03548317241297799,
0.0314214463840399,0.012705104400171089,
0.0314713216957606,0.02511885991649758,
0.031521197007481294,0.03653769124461491,
0.031571072319202,0.016072182974386125,
0.03162094763092269,0.049439678627298075,
0.03167082294264339,0.0329273082842888,
0.03172069825436409,0.01725211458646258,
0.03177057356608479,0.03659446946525497,
0.03182044887780549,0.031515591189371764,
0.031870324189526185,0.035785131484656334,
0.03192019950124688,-0.0002127195989677401,
0.03197007481296758,0.018037539573827574,
0.03201995012468828,0.022614998379939244,
0.032069825436408975,0.023239738514713296,
0.03211970074812968,0.03462877338884867,
0.03216957605985037,0.02266019202145365,
0.032219451371571076,0.035664958383954615,
0.03226932668329177,0.00781843286393143,
0.03231920199501247,0.02029639303481702,
0.03236907730673317,0.03844776374322627,
0.032418952618453865,0.05168568102365545,
0.03246882793017456,0.01445084097615623,
0.032518703241895264,0.02224116887800058,
0.03256857855361596,0.016638969762263776,
0.032618453865336655,0.0249125154491308,
0.03266832917705736,0.04736429724719672,
0.032718204488778053,0.01852543723288942,
0.032768079800498756,-0.013286476606347186,
0.03281795511221945,0.022400945911668746,
0.03286783042394015,0.00104227785290072,
0.03291770573566085,0.019847673187792677,
0.032967581047381546,0.03728947585555463,
0.03301745635910224,0.014650742189293258,
0.033067331670822944,0.002943151604380967,
0.03311720698254364,0.04477852126906045,
0.03316708229426434,0.00020767408836736,
0.03321695760598504,0.02139132818916799,
0.033266832917705734,0.025669887783151376,
0.03331670822942644,0.03616625689449817,
0.03336658354114713,0.03588914893329359,
0.03341645885286783,0.03997083527939682,
0.03346633416458853,0.056332916196489585,
0.033516209476309226,0.011869561069619654,
0.03356608478802992,0.0334587424334952,
0.033615960099750625,0.033450629394931305,
0.03366583541147132,0.012248256580079275,
0.03371571072319202,0.036926339100474416,
0.03376558603491272,-0.009587511498461213,
0.033815461346633414,0.012591751518806916,
0.03386533665835412,0.009807950184909797,
0.03391521197007481,0.002173688908364897,
0.03396508728179551,0.01605053975077923,
0.03401496259351621,-0.0055421192935091665,
0.03406483790523691,0.0038863345817055656,
0.0341147132169576,0.00486907075368663,
0.034164588528678305,0.015961548298152252,
0.034214463840399,0.01983239072608303,
0.034264339152119704,0.030575165235044905,
0.0343142144638404,0.0388773859611007,
0.034364089775561095,0.005124856091269597,
0.0344139650872818,0.03454222664557136,
0.03446384039900249,0.012644171025976926,
0.03451371571072319,0.0002914403567593066,
0.03456359102244389,0.028362985719950613,
0.03461346633416459,-0.0010304414124445403,
0.03466334164588529,0.0028839971382962556,
0.034713216957605986,0.027740104424163546,
0.03476309226932668,0.03720782768173767,
0.034812967581047384,0.023664579467076285,
0.03486284289276808,-0.00031442587583189324,
0.034912718204488775,0.02128395398198756,
0.03496259351620948,0.00558003491797421,
0.035012468827930174,-0.006807512151651256,
0.03506234413965087,0.012828305166946979,
0.03511221945137157,-0.026528897073272925,
0.03516209476309227,0.040093937205894256,
0.03521197007481297,0.023074507638574382,
0.035261845386533666,-0.008211982629005158,
0.03531172069825436,-0.007233606897746936,
0.035361596009975065,-0.007032237222347297,
0.03541147132169576,-0.004739071766067629,
0.035461346633416456,0.008469240928894766,
0.03551122194513716,0.007977417661966506,
0.035561097256857854,0.020565357821729052,
0.03561097256857856,0.0166245987319531,
0.03566084788029925,0.0076564764335669,
0.03571072319201995,0.02503574337649191,
0.03576059850374065,-0.0067732497889821785,
0.03581047381546135,0.013433648578585039,
0.03586034912718204,0.011338037533690233,
0.035910224438902745,-0.0199195100691145,
0.03596009975062344,-0.007872646788082627,
0.036009975062344136,0.005915883593044605,
0.03605985037406484,-0.004703392847976341,
0.036109725685785535,0.020866062765193177,
0.03615960099750624,0.008136574763239063,
0.03620947630922693,0.011569007493625653,
0.03625935162094763,-0.0007000366793671392,
0.03630922693266833,-0.00046624976936422355,
0.03635910224438903,0.016370515359724197,
0.03640897755610972,-0.016685177748724578,
0.036458852867830426,0.024292510056422717,
0.03650872817955112,0.0028892548193516047,
0.036558603491271824,-0.020901934943016565,
0.03660847880299252,-0.0027022350066237557,
0.036658354114713215,0.014620654210776959,
0.03670822942643392,0.00614506355004822,
0.036758104738154614,0.01842531403866844,
0.03680798004987531,0.01397037258317965,
0.03685785536159601,0.006488400552307668,
0.03690773067331671,-0.009752703197785572,
0.0369576059850374,0.015183729236325001,
0.037007481296758106,-0.004000400884022167,
0.0370573566084788,0.0021261845321889506,
0.037107231920199504,0.005463343923378244,
0.0371571072319202,-0.00900755206886749,
0.037206982543640896,0.0006273045988335682,
0.0372568578553616,-0.007506936984846436,
0.037306733167082294,-0.005698574174069732,
0.03735660847880299,-0.009532140785550819,
0.03740648379052369,0.020747270933201074,
0.03745635910224439,-0.014448730117630586,
0.037506234413965084,0.0012961815892491308,
0.037556109725685786,0.018737016297154945,
0.03760598503740648,-0.009580212723781428,
0.037655860349127185,0.00778750146621545,
0.03770573566084788,-0.01682175922804316,
0.037755610972568576,0.0028827382410301053,
0.03780548628428928,0.005746224474267758,
0.037855361596009975,-0.013436762451145905,
0.03790523690773067,0.012855723522967008,
0.03795511221945137,-0.00018335110127182773,
0.03800498753117207,0.01274390517483975,
0.03805486284289277,-0.0018515728911210508,
0.03810473815461347,-0.013216480349050362,
0.03815461346633416,-0.0017770011918250873,
0.038204488778054865,-0.015094540275027097,
0.03825436408977556,-0.03146970181562398,
0.03830423940149626,-0.011726127933075238,
0.03835411471321696,0.006182978294161254,
0.038403990024937655,-0.015362452477244075,
0.03845386533665835,-0.0030002917746016645,
0.03850374064837905,-0.029724055874777205,
0.03855361596009975,-0.002939518048818616,
0.03860349127182045,-0.024398268132500435,
0.03865336658354115,-0.0001828447807367059,
0.03870324189526184,-0.016521280689108242,
0.038753117206982546,-0.02151147748957264,
0.03880299251870324,-0.012820074916863915,
0.03885286783042394,0.017080510807866947,
0.03890274314214464,-0.014964907755832313,
0.038952618453865336,-0.021319682856847183,
0.03900249376558604,-0.005272761493851204,
0.039052369077306734,-0.016220149385512302,
0.03910224438902743,-0.017170522277929565,
0.03915211970074813,-0.01814641751134731,
0.03920199501246883,-0.012221506113875964,
0.039251870324189524,-0.017445530365223564,
0.039301745635910226,-0.005435254008817379,
0.03935162094763092,-0.015455822408341454,
0.03940149625935162,0.00407999161514289,
0.03945137157107232,-0.019251792231920847,
0.039501246882793016,-0.027346229413080687,
0.03955112219451372,-0.015938561657929184,
0.039600997506234414,-0.021221621883656103,
0.03965087281795511,-0.008715799439014153,
0.03970074812967581,0.0007870845616574362,
0.03975062344139651,-0.028407285812034104,
0.039800498753117204,-0.04238382758071938,
0.03985037406483791,-0.012100186285372006,
0.0399002493765586,0.010593087030917693,
0.039950124688279305,-0.014042618251619041,
0.04,-0.011690487449868742,
0.0400498753117207,-0.033548600737964035,
0.0400997506234414,-0.0018205901842268668,
0.040149625935162095,-0.003963205033651961,
0.04019950124688279,0.00718465669700361,
0.04024937655860349,-0.01594204263154106,
0.04029925187032419,-0.03645607354509586,
0.040349127182044885,-0.023770801221398442,
0.04039900249376559,-0.02157701793711399,
0.04044887780548628,-0.023846900954032454,
0.040498753117206986,-0.013810296849046375,
0.04054862842892768,-0.031657041446787396,
0.04059850374064838,-0.022921710519520546,
0.04064837905236908,-0.028927195132679096,
0.040698254364089775,-0.000569983983545715,
0.04074812967581047,-0.0006966815691080101,
0.040798004987531174,-0.013352182853929697,
0.04084788029925187,-0.003209585648061607,
0.040897755610972565,-0.02852161269505952,
0.04094763092269327,-0.012916747187229198,
0.04099750623441396,-0.021188912333859826,
0.041047381546134666,-0.01542362568442407,
0.04109725685785536,0.03393651542821367,
0.04114713216957606,-0.017958009820232237,
0.04119700748129676,-0.0072882283405528315,
0.041246882793017456,-0.015274567931814236,
0.04129675810473815,-0.012784677454331901,
0.041346633416458854,-0.03331225508527186,
0.04139650872817955,-0.024262480450431806,
0.04144638403990025,-0.05619895892762421,
0.04149625935162095,-0.003664534488071948,
0.041546134663341644,-0.00890321722452351,
0.04159600997506235,-0.018904113144658046,
0.04164588528678304,0.001528865176304503,
0.04169576059850374,-0.028525660208909957,
0.04174563591022444,-0.012164672717307805,
0.041795511221945136,-0.0036738277134030616,
0.04184538653366583,-0.020366642140375125,
0.041895261845386535,-0.02006343636917772,
0.04194513715710723,-0.035773903320334616,
0.04199501246882793,-0.005386008296327077,
0.04204488778054863,-0.05180370761644892,
0.042094763092269324,-0.009137235311239045,
0.04214463840399003,-0.01530088354226155,
0.04219451371571072,-0.04545105618486878,
0.04224438902743142,-0.00019089788130864996,
0.04229426433915212,-0.03447471161350449,
0.04234413965087282,-0.010744242031410597,
0.04239401496259352,-0.007664739463682985,
0.042443890274314215,-0.002482233846998968,
0.04249376558603491,-0.011076340838526669,
0.042543640897755614,-0.03768337793227838,
0.04259351620947631,-0.02098585944771936,
0.042643391521197005,-0.030192714106632657,
0.04269326683291771,-0.010479508140763323,
0.0427431421446384,-0.01657476700480981,
0.0427930174563591,-0.03274116156391557,
0.0428428927680798,-0.035939387718263355,
0.0428927680798005,-0.009330445277757712,
0.0429426433915212,-0.005898416203900782,
0.042992518703241896,-0.015705492513483903,
0.04304239401496259,-0.028682411287739292,
0.043092269326683294,-0.015329694238874206,
0.04314214463840399,-0.01839143659361978,
0.043192019950124685,0.017501035302482558,
0.04324189526184539,-0.008000904835548049,
0.043291770573566084,-0.013258448770514124,
0.043341645885286786,0.006338846040515624,
0.04339152119700748,0.017497926318535043,
0.04344139650872818,-0.007078167893127874,
0.04349127182044888,-0.031315034066907686,
0.043541147132169576,-0.031730037209537,
0.04359102244389027,-0.01990720026185669,
0.043640897755610975,-0.01362230442531443,
0.04369077306733167,-0.013081659209933582,
0.043740648379052366,-0.02094966980944841,
0.04379052369077307,-0.003600386656660095,
0.043840399002493764,-0.018116595201267162,
0.04389027431421447,-0.004558155382672515,
0.04394014962593516,-0.017957535710036002,
0.04399002493765586,0.0012133098041450623,
0.04403990024937656,0.009276825815666438,
0.04408977556109726,-0.028950729816687008,
0.04413965087281795,0.005620365523597926,
0.044189526184538655,-0.004892646343220038,
0.04423940149625935,0.0017359713979427354,
0.04428927680798005,-0.024544831185048216,
0.04433915211970075,-0.007112509261315675,
0.044389027431421445,0.019400835886783846,
0.04443890274314215,-0.009873532871150009,
0.04448877805486284,-0.01029262753795177,
0.04453865336658354,-0.02645163023758797,
0.04458852867830424,-0.009277311367233938,
0.04463840399002494,0.002678476239320441,
0.04468827930174563,-0.014545142605253775,
0.044738154613466335,-0.014424404741051593,
0.04478802992518703,-0.05197480977409333,
0.044837905236907734,-0.002652936651971525,
0.04488778054862843,-0.03019469956484618,
0.044937655860349125,-0.026168834273777142,
0.04498753117206983,-0.018459838160825814,
0.045037406483790524,0.00025865286493662216,
0.04508728179551122,0.002544601737827277,
0.04513715710723192,-0.015661841930665922,
0.04518703241895262,-0.008632338649562515,
0.04523690773067331,-0.03710232066169067,
0.045286783042394016,-0.02570842662023,
0.04533665835411471,0.007355341477166034,
0.045386533665835414,0.00022238274082247728,
0.04543640897755611,-0.034146930046849905,
0.045486284289276806,-0.005780382206851707,
0.04553615960099751,0.03557447161538874,
0.045586034912718204,-0.01939610474461508,
0.0456359102244389,-0.012039582277627664,
0.0456857855361596,-0.013566283510760028,
0.0457356608478803,0.0025267879877378325,
0.045785536159601,-0.010181838386470694,
0.045835411471321696,0.006326722818230544,
0.04588528678304239,0.011530386870146481,
0.045935162094763095,-0.013277629796617025,
0.04598503740648379,0.005115116830542485,
0.046034912718204486,-0.004412340677775279,
0.04608478802992519,0.016325693949555922,
0.046134663341645885,0.005046631666871552,
0.04618453865336658,-0.002911263291879503,
0.04623441396508728,-0.003737958080226782,
0.04628428927680798,0.003049962896844836,
0.04633416458852868,0.018480556434238484,
0.04638403990024938,0.002865413868210868,
0.04643391521197007,-0.004636378100859486,
0.046483790523690775,0.006351262876847133,
0.04653366583541147,-0.00609557612931192,
0.04658354114713217,0.008399679946788394,
0.04663341645885287,-0.0084542837027826,
0.046683291770573565,-0.010465105073347351,
0.04673316708229427,-0.025989522474007445,
0.04678304239401496,0.005518449854329248,
0.04683291770573566,-0.004653582924139369,
0.04688279301745636,-0.005611920946040575,
0.04693266832917706,-0.0021233280858264855,
0.04698254364089775,0.009198601894009367,
0.047032418952618456,0.013029956826944827,
0.04708229426433915,-0.008186053907669385,
0.04713216957605985,0.0008356720692569396,
0.04718204488778055,0.0003711672008086409,
0.047231920199501246,-0.007791652085271468,
0.04728179551122195,0.014326901094981203,
0.047331670822942644,0.016820718686318764,
0.04738154613466334,-0.021597494272032006,
0.04743142144638404,0.025006147784486163,
0.04748129675810474,0.008753378156752504,
0.047531172069825434,0.01777601978706404,
0.047581047381546136,-0.018511141543441703,
0.04763092269326683,-0.0015364786785236825,
0.047680798004987535,0.0011482628998685674,
0.04773067331670823,0.030479304072735934,
0.047780548628428926,0.003738731555904839,
0.04783042394014963,0.033557474747784345,
0.047880299251870324,0.02489644112278208,
0.04793017456359102,-0.007610450850884689,
0.04798004987531172,0.032095062993223275,
0.04802992518703242,0.027490170363430707,
0.048079800498753114,0.005280785056989273,
0.04812967581047382,0.02069144940207132,
0.04817955112219451,0.021209356715387775,
0.048229426433915215,0.02841884026805705,
0.04827930174563591,0.0018613378611421465,
0.048329177057356607,0.00763704372106452,
0.04837905236907731,-0.0013767207119423763,
0.048428927680798005,-0.0008224105099133433,
0.0484788029925187,0.004892867763663556,
0.0485286783042394,0.0043971223170919255,
0.0485785536159601,0.029888643166899896,
0.048628428927680795,0.038359346410775194,
0.0486783042394015,0.007819623947843253,
0.04872817955112219,-0.006422439026096093,
0.048778054862842896,0.0008586243328766105,
0.04882793017456359,0.03040291607899823,
0.04887780548628429,0.03068309619225198,
0.04892768079800499,0.002239679893562087,
0.048977556109725685,0.0077365962936241876,
0.04902743142144638,0.012840015012254912,
0.049077306733167084,0.01999018016838836,
0.04912718204488778,-0.0056695883756120655,
0.04917705735660848,0.0031281484804854976,
0.04922693266832918,0.007429643683586845,
0.04927680798004987,0.02903809343548141,
0.049326683291770576,0.024674286515592975,
0.04937655860349127,0.047512287709709486,
0.04942643391521197,-0.004764721602271267,
0.04947630922693267,0.03863220061837712,
0.049526184538653366,0.013570344037790817,
0.04957605985037406,0.02432645786725416,
0.049625935162094764,0.02702280311778973,
0.04967581047381546,0.028817906887759665,
0.04972568578553616,0.02588393779769703,
0.04977556109725686,0.038955098450899575,
0.049825436408977554,0.02370258832881169,
0.04987531172069826,0.023661967978021645,
0.04992518703241895,-0.00439741656518668,
0.04997506234413965,0.03435269657179085,
0.05002493765586035,0.020415351867599855,
0.050074812967581046,0.026678767155987687,
0.05012468827930175,0.007187109424864554,
0.050174563591022445,0.023466591659438325,
0.05022443890274314,-0.007609715183085723,
0.05027431421446384,0.016312230446012967,
0.05032418952618454,0.010968225267117397,
0.050374064837905234,0.010346040968687702,
0.05042394014962594,0.004215299804727575,
0.05047381546134663,0.030338346977430847,
0.05052369077306733,0.017771146732035437,
0.05057356608478803,0.014452626191583684,
0.05062344139650873,0.013110369834079165,
0.05067331670822943,0.0322076672064215,
0.050723192019950125,0.026258457690783717,
0.05077306733167082,0.013016170690883998,
0.050822942643391524,0.02493024205095237,
0.05087281795511222,0.01822136848831672,
0.050922693266832915,0.016357930483085942,
0.05097256857855362,0.030805496183800525,
0.05102244389027431,0.014436033063055121,
0.051072319201995016,0.03485372394494431,
0.05112219451371571,0.03704487055260578,
0.05117206982543641,-0.0016466718443967354,
0.05122194513715711,0.0341755385223132,
0.051271820448877806,0.0020572449365195353,
0.0513216957605985,0.037117000471035305,
0.051371571072319204,0.023804295002795756,
0.0514214463840399,0.014211296573354246,
0.051471321695760595,0.006501380551768979,
0.0515211970074813,0.012412155716272908,
0.051571072319201994,0.038702412003685134,
0.051620947630922696,0.04557370104129706,
0.05167082294264339,0.012763710475274142,
0.05172069825436409,0.02608118904587549,
0.05177057356608479,0.02512977919015806,
0.051820448877805486,0.020287157452820836,
0.05187032418952618,0.020908318048454316,
0.051920199501246884,0.026755449460544367,
0.05197007481296758,0.005545006622745742,
0.052019950124688276,0.010448468838618013,
0.05206982543640898,0.044740227222907394,
0.052119700748129674,0.014022829540451807,
0.05216957605985038,0.02892513576177453,
0.05221945137157107,0.029247035185965265,
0.05226932668329177,0.01927431388947631,
0.05231920199501247,0.0014815575257878522,
0.05236907730673317,0.04191324272582288,
0.05241895261845386,0.02180484661277236,
0.052468827930174565,0.05008218362248094,
0.05251870324189526,0.025481817900257157,
0.05256857855361596,0.031167763214228025,
0.05261845386533666,0.04755272354193316,
0.052668329177057355,0.035483172532239426,
0.05271820448877806,0.023183223095522277,
0.05276807980049875,0.003633416969207749,
0.05281795511221945,0.014407770655329187,
0.05286783042394015,0.030144807032734883,
0.05291770573566085,0.04491377572374118,
0.05296758104738154,0.019013175057777505,
0.053017456359102245,-0.0072212740195860825,
0.05306733167082294,0.024165520785644462,
0.053117206982543644,0.031077901600597688,
0.05316708229426434,0.031178885644564586,
0.053216957605985035,0.040011759907892956,
0.05326683291770574,0.014639690090773068,
0.053316708229426434,0.024663436009380806,
0.05336658354114713,0.008385396521536324,
0.05341645885286783,0.00706195413805639,
0.05346633416458853,0.019714071847052782,
0.05351620947630923,0.026918495149533574,
0.053566084788029926,0.00730339493596247,
0.05361596009975062,0.021138592434633827,
0.053665835411471324,0.015205158934741194,
0.05371571072319202,0.02315004639119434,
0.053765586034912716,0.021943289634637618,
0.05381546134663342,0.021621209720442083,
0.053865336658354114,0.034925301236336075,
0.05391521197007481,0.018689454641386095,
0.05396508728179551,0.0032301611289285888,
0.05401496259351621,0.010118959144505927,
0.05406483790523691,0.0027217495571152626,
0.054114713216957606,-0.0019882995686802928,
0.0541645885286783,0.015504857114522706,
0.054214463840399005,0.004561548496481851,
0.0542643391521197,0.032296421662287425,
0.054314214463840396,0.0014465829728646726,
0.0543640897755611,0.015922928058876778,
0.054413965087281795,0.03321995067061562,
0.0544638403990025,0.029771981976729686,
0.05451371571072319,0.024230236184962867,
0.05456359102244389,0.016883695005632103,
0.05461346633416459,0.004181418100201881,
0.05466334164588529,-0.0004989948973753502,
0.05471321695760598,0.0013668363058564285,
0.054763092269326685,-0.01880627253014216,
0.05481296758104738,0.004620473223437151,
0.05486284289276808,0.03266104891202263,
0.05491271820448878,-0.005212326454094017,
0.054962593516209475,0.0017354953372411951,
0.05501246882793018,-0.0020377498759046563,
0.05506234413965087,-0.0012100016581046164,
0.05511221945137157,0.03309057884683715,
0.05516209476309227,0.014430336097576909,
0.05521197007481297,0.006308459598794442,
0.05526184538653366,0.005291465592120971,
0.055311720698254366,-0.008860430519377413,
0.05536159600997506,0.005531364750643836,
0.05541147132169576,0.02109672548865359,
0.05546134663341646,-0.007614590852851193,
0.055511221945137156,0.012545113271026883,
0.05556109725685786,0.016817946227802957,
0.055610972568578554,0.022556379854816164,
0.05566084788029925,0.023373173747738486,
0.05571072319201995,0.03089233649991,
0.05576059850374065,0.02393591049798067,
0.055810473815461344,0.01023902491974625,
0.055860349127182046,-0.002722323924230878,
0.05591022443890274,-0.01269397469753083,
0.055960099750623445,0.023757391899573925,
0.05600997506234414,0.007411710639761173,
0.056059850374064836,0.003067494748788667,
0.05610972568578554,0.016776122756242164,
0.056159600997506234,0.01039098698795599,
0.05620947630922693,-0.0037847675815369484,
0.05625935162094763,0.01061655191832758,
0.05630922693266833,0.0031272985676406503,
0.056359102244389024,-0.011861460398803042,
0.05640897755610973,0.013678211095012802,
0.05645885286783042,0.01086804562121772,
0.056508728179551125,0.03409484721170243,
0.05655860349127182,-0.01523654998065531,
0.056608478802992516,0.039889180643184904,
0.05665835411471322,0.02446397045082434,
0.056708229426433915,0.026320208622756275,
0.05675810473815461,-0.005548510726756992,
0.05680798004987531,-0.009929875439280738,
0.05685785536159601,0.0187002068896793,
0.05690773067331671,-0.015474767542316133,
0.05695760598503741,0.018367206421153727,
0.0570074812967581,0.0020943632960314642,
0.057057356608478806,-0.01592490400247216,
0.0571072319201995,-0.012638184449416008,
0.0571571072319202,-0.005061807030615952,
0.0572069825436409,0.014244615375629453,
0.057256857855361595,0.013739960322135255,
0.05730673316708229,0.007340987289360667,
0.057356608478802994,0.022732266426939304,
0.05740648379052369,0.023120621078325257,
0.05745635910224439,-0.014878248078715281,
0.05750623441396509,0.021881522145447647,
0.05755610972568578,0.016531783239438845,
0.057605985037406486,-0.024552318585295104,
0.05765586034912718,0.005131379676477498,
0.05770573566084788,0.007562760015004914,
0.05775561097256858,-0.022536403102896993,
0.057805486284289276,0.01987912268364635,
0.05785536159600998,-0.0027730501034715334,
0.057905236907730674,0.012353741929449758,
0.05795511221945137,0.01453535339657042,
0.05800498753117207,-0.0026682989512681176,
0.05805486284289277,-0.005484281617837396,
0.058104738154613464,0.0017694362143648888,
0.05815461346633417,-0.0017887111763006773,
0.05820448877805486,0.007054177801224719,
0.05825436408977556,0.02084969173685351,
0.05830423940149626,-0.03075798021428307,
0.058354114713216956,-0.004395087148748185,
0.05840399002493766,-0.023204881616808906,
0.058453865336658355,-0.02968894065032895,
0.05850374064837905,0.006198012663408974,
0.05855361596009975,-0.01147563624412745,
0.05860349127182045,-0.027579877115228215,
0.058653366583541144,-0.0011860194722993359,
0.05870324189526185,0.0054543281024664525,
0.05875311720698254,0.011365719517663197,
0.05880299251870324,-0.020548910139431584,
0.05885286783042394,0.0020146791074819436,
0.05890274314214464,-0.0031894604049882667,
0.05895261845386534,-0.005379661728493995,
0.059002493765586035,-0.015521251168024223,
0.05905236907730673,0.014441940731247006,
0.059102244389027433,-0.0005051290272708141,
0.05915211970074813,-0.005018861838447845,
0.059201995012468825,0.006838149500773737,
0.05925187032418953,0.008917037360351654,
0.05930174563591022,0.007230724851123197,
0.059351620947630926,0.020831747736838647,
0.05940149625935162,-0.023282708996925264,
0.05945137157107232,-0.012114031785276957,
0.05950124688279302,-0.008490195471328892,
0.059551122194513716,-0.03165392604177715,
0.05960099750623441,-0.05951854319947795,
0.059650872817955114,-0.025299894839759474,
0.05970074812967581,0.008069779911688203,
0.059750623441396505,-0.006304451126415605,
0.05980049875311721,-0.015396301797054823,
0.059850374064837904,-0.03402143077729124,
0.059900249376558606,-0.0021558338018889626,
0.0599501246882793,-0.03312923603747376,
0.06,-0.017917361104271858,
0.0600498753117207,0.0030892868328472513,
0.060099750623441396,-0.02380773829202152,
0.06014962593516209,-0.01992260183775874,
0.060199501246882794,-0.016943781361300616,
0.06024937655860349,-0.01179059775158385,
0.06029925187032419,-0.017631565670755925,
0.06034912718204489,-0.025033969568809888,
0.060399002493765584,0.010533734329016498,
0.06044887780548629,-0.02284585878811474,
0.06049875311720698,-0.007347579734456713,
0.06054862842892768,-0.009898033553040668,
0.06059850374064838,-0.006794254303927418,
0.06064837905236908,-0.021815859750707902,
0.06069825436408977,-0.006713411793714737,
0.060748129675810475,-0.009979292903914246,
0.06079800498753117,-0.01771828865413773,
0.06084788029925187,-0.00826163664356984,
0.06089775561097257,-0.011351090503252148,
0.060947630922693265,-0.0053120967868474575,
0.06099750623441397,-0.005009383944401102,
0.06104738154613466,0.01667215170578165,
0.06109725685785536,-0.007713472980251341,
0.06114713216957606,-0.00030660629202029777,
0.06119700748129676,-0.003463477121904663,
0.06124688279301746,-0.0071260453839089855,
0.061296758104738155,-0.04774522719178993,
0.06134663341645885,-0.037587242763764406,
0.061396508728179554,-0.03766756978258488,
0.06144638403990025,-0.046337017423719117,
0.061496259351620945,-0.03629534383191703,
0.06154613466334165,-0.018066620991519688,
0.061596009975062344,-0.010969498418971723,
0.06164588528678304,0.01774515404302121,
0.06169576059850374,0.002899336151351982,
0.06174563591022444,-0.015480323920500104,
0.06179551122194514,0.003928030197757641,
0.061845386533665836,-0.021886985152777403,
0.06189526184538653,-0.033069525884538396,
0.061945137157107234,-0.01506890462472415,
0.06199501246882793,-0.022373925201525733,
0.062044887780548626,-0.01992503645962701,
0.06209476309226933,-0.006522617108560558,
0.062144638403990024,-0.02056707534575793,
0.06219451371571072,-0.014320132185608828,
0.06224438902743142,-0.004199337995713105,
0.06229426433915212,-0.0065091496107545985,
0.06234413965087282,-0.003360198000144282,
0.062394014962593516,-0.011756642643267708,
0.06244389027431421,-0.0055061186583481615,
0.062493765586034915,0.013794102703337884,
0.06254364089775562,-0.013951573640051448,
0.06259351620947631,0.002956881024558924,
0.06264339152119701,-0.012851550112430282,
0.0626932668329177,-0.0008593926017350425,
0.0627431421446384,-0.04195547114021855,
0.0627930174563591,-0.013126157013917707,
0.0628428927680798,-0.007583115246014496,
0.0628927680798005,-0.01040800750136893,
0.0629426433915212,-0.025069405834176512,
0.06299251870324189,-2.4337632590054267e-05,
0.06304239401496259,-0.016269186199123348,
0.0630922693266833,-0.03036579271747961,
0.063142144638404,0.009917165148768278,
0.06319201995012469,0.001284852195759115,
0.06324189526184539,-0.033990969110774594,
0.06329177057356608,-0.01231430372890762,
0.06334164588528678,-0.029918974863767815,
0.06339152119700749,0.0004309886061979653,
0.06344139650872818,-0.018487926434609656,
0.06349127182044888,-0.011654404696877984,
0.06354114713216957,-0.01459188759026283,
0.06359102244389027,-0.018441703174226193,
0.06364089775561098,0.015329707676338969,
0.06369077306733167,0.01770720499671414,
0.06374064837905237,-0.03062571159196912,
0.06379052369077307,-0.009625412701278025,
0.06384039900249376,-0.02649683899244925,
0.06389027431421446,-0.0048122973365882435,
0.06394014962593517,-0.007924696670337943,
0.06399002493765586,-0.013152239283365057,
0.06403990024937656,-0.029019034430896366,
0.06408977556109725,-0.01738757698289836,
0.06413965087281795,-0.014821488809412852,
0.06418952618453866,-0.012995228509525844,
0.06423940149625935,-0.029223906309177525,
0.06428927680798005,-0.04706934067837063,
0.06433915211970075,0.009597761445154687,
0.06438902743142144,0.006076669880519806,
0.06443890274314215,-0.0178622268887767,
0.06448877805486285,-0.012743116133471372,
0.06453865336658354,-0.021517012124699808,
0.06458852867830424,0.003623359206613339,
0.06463840399002493,-0.03010063209902423,
0.06468827930174563,-0.0016043734207464716,
0.06473815461346634,0.0028629364732054513,
0.06478802992518704,-0.017324266523676895,
0.06483790523690773,-0.0005307855810462907,
0.06488778054862843,-0.009559816831622867,
0.06493765586034912,0.00800053105054689,
0.06498753117206983,0.0044154143215508704,
0.06503740648379053,-0.03267676742775695,
0.06508728179551122,-0.010825777992130416,
0.06513715710723192,-0.0010436268497391122,
0.06518703241895261,-0.0023610978969859663,
0.06523690773067331,0.006675717886265768,
0.06528678304239402,0.020412129932731154,
0.06533665835411472,0.004727359101454788,
0.06538653366583541,0.013892931952367772,
0.06543640897755611,0.005037637383674407,
0.0654862842892768,0.0312489262150651,
0.06553615960099751,-0.0044679022140716555,
0.06558603491271821,0.0017852646169297885,
0.0656359102244389,0.015203102511118553,
0.0656857855361596,0.00032893254526436414,
0.0657356608478803,0.016104928799933395,
0.06578553615960099,-0.008486422599815994,
0.0658354114713217,-0.0012236228399507012,
0.0658852867830424,-0.031047642222355218,
0.06593516209476309,0.007539434600995676,
0.06598503740648379,-0.009561005654876586,
0.06603491271820448,0.009609827177251264,
0.06608478802992519,0.010044283980818157,
0.06613466334164589,0.010288731851982973,
0.06618453865336658,0.01439878090493803,
0.06623441396508728,0.024393431554115417,
0.06628428927680798,-0.009136868293460975,
0.06633416458852869,-0.02369861253772578,
0.06638403990024938,-0.024182702099073458,
0.06643391521197008,-0.006912907826236353,
0.06648379052369077,-0.0032592866816988854,
0.06653366583541147,0.013079971418840698,
0.06658354114713216,0.007776527934374193,
0.06663341645885287,0.016056816721522236,
0.06668329177057357,0.007373439908638884,
0.06673316708229426,0.007994039929034122,
0.06678304239401496,0.020982780144357262,
0.06683291770573566,0.004715031438667234,
0.06688279301745637,0.018073482530594882,
0.06693266832917706,0.013440355296518564,
0.06698254364089776,0.04031577788938778,
0.06703241895261845,0.013535992113474985,
0.06708229426433915,0.005015744100224323,
0.06713216957605984,0.01628305632973405,
0.06718204488778055,0.019456700452354123,
0.06723192019950125,-0.02954075942606687,
0.06728179551122195,0.021557917338746534,
0.06733167082294264,0.016526473499786025,
0.06738154613466334,0.030996510545238422,
0.06743142144638405,-0.017027937895968563,
0.06748129675810474,0.0074485711158581,
0.06753117206982544,0.002876762381689205,
0.06758104738154613,0.018471952057990806,
0.06763092269326683,0.013238289224074065,
0.06768079800498752,-0.0077499065416848575,
0.06773067331670823,0.01552699380301388,
0.06778054862842893,0.005660823719362518,
0.06783042394014963,0.01071046291684751,
0.06788029925187032,0.022147902655810896,
0.06793017456359102,0.004332795504215406,
0.06798004987531173,0.015531211368998902,
0.06802992518703242,0.012047592503830978,
0.06807980049875312,0.007331485822555956,
0.06812967581047381,0.02387859985114854,
0.06817955112219451,0.04005895107643252,
0.0682294264339152,0.03205758392821878,
0.06827930174563591,0.010397216849465728,
0.06832917705735661,0.005314665786524248,
0.0683790523690773,-0.004136550034745966,
0.068428927680798,0.005034219883419639,
0.0684788029925187,0.025391356070783,
0.06852867830423941,0.03596861188024944,
0.0685785536159601,0.01921823922994298,
0.0686284289276808,-0.006707091521113366,
0.0686783042394015,0.013225853661042425,
0.06872817955112219,0.04147975201610837,
0.0687780548628429,0.020785358935123725,
0.0688279301745636,0.02097327433344523,
0.06887780548628429,0.021736174243601768,
0.06892768079800499,0.014670036609852796,
0.06897755610972568,0.03934923636921497,
0.06902743142144638,0.007523501031419789,
0.06907730673316709,-0.007973201154656225,
0.06912718204488778,-0.009551839009988582,
0.06917705735660848,0.023955690312609017,
0.06922693266832917,0.009219396661188872,
0.06927680798004987,0.015542051335782002,
0.06932668329177058,0.01255872770837576,
0.06937655860349128,0.010566012377015467,
0.06942643391521197,-0.0002874418317877145,
0.06947630922693267,0.0107035435752885,
0.06952618453865336,0.005564129505826496,
0.06957605985037406,0.013207651043204191,
0.06962593516209477,0.0011224845495752152,
0.06967581047381546,-0.002978630797663563,
0.06972568578553616,0.028034715812959896,
0.06977556109725686,0.009298173407344852,
0.06982543640897755,0.032914892893397794,
0.06987531172069826,0.010730589262993608,
0.06992518703241896,0.02305504610516765,
0.06997506234413965,0.02480871068118221,
0.07002493765586035,-0.008898377583208598,
0.07007481296758104,0.019119034632164342,
0.07012468827930174,0.0347295659192603,
0.07017456359102245,0.022808808416623794,
0.07022443890274314,0.021683231748312975,
0.07027431421446384,0.014206433462016194,
0.07032418952618454,0.03418435755792992,
0.07037406483790523,0.02227792931272678,
0.07042394014962594,0.028790281730959207,
0.07047381546134664,0.009061425377308432,
0.07052369077306733,0.02775031482209954,
0.07057356608478803,-0.0049785693813033695,
0.07062344139650872,0.02299257086780323,
0.07067331670822943,0.014437552558174698,
0.07072319201995013,0.0076813942992356166,
0.07077306733167082,0.03772729572447497,
0.07082294264339152,0.029484948293974664,
0.07087281795511222,0.0384340680694475,
0.07092269326683291,0.01794123687477227,
0.07097256857855362,-0.0033457332119644703,
0.07102244389027432,0.04361351765239248,
0.07107231920199501,0.008565895970034734,
0.07112219451371571,0.016170472444138356,
0.0711720698254364,0.054806557103893164,
0.07122194513715711,0.02530397147478958,
0.07127182044887781,0.006551156023869787,
0.0713216957605985,0.03823250028343519,
0.0713715710723192,0.029395059019087386,
0.0714214463840399,0.011800272009692964,
0.07147132169576059,0.018223636836633236,
0.0715211970074813,0.030276350955272674,
0.071571072319202,0.02432438491702505,
0.0716209476309227,0.03365525625902358,
0.07167082294264339,0.03216961130760925,
0.07172069825436408,0.014979293989931721,
0.0717705735660848,0.03454454607765205,
0.07182044887780549,0.018052283488028974,
0.07187032418952619,0.018157514043968936,
0.07192019950124688,0.04660964142427256,
0.07197007481296758,0.03068701588120905,
0.07201995012468827,0.02041570411129359,
0.07206982543640898,0.04824418053406361,
0.07211970074812968,0.044704733251307555,
0.07216957605985037,0.012790317605954523,
0.07221945137157107,0.02539984145834253,
0.07226932668329177,0.03367014112922852,
0.07231920199501247,0.011573332007350131,
0.07236907730673317,0.021275258816407558,
0.07241895261845387,0.030455279941601677,
0.07246882793017456,0.03731888649174876,
0.07251870324189526,0.041081044693337246,
0.07256857855361595,0.012155546960152289,
0.07261845386533666,0.009595704669735416,
0.07266832917705736,0.013355242076182867,
0.07271820448877805,0.0008483213480498276,
0.07276807980049875,0.016316543996289554,
0.07281795511221945,0.013868792643070633,
0.07286783042394016,0.024729676534131027,
0.07291770573566085,0.005863766669164553,
0.07296758104738155,0.03239579526654294,
0.07301745635910224,0.009947975871000037,
0.07306733167082294,-0.0024163725511187548,
0.07311720698254365,0.0298427963759076,
0.07316708229426434,0.02064713548582694,
0.07321695760598504,0.027916080261106122,
0.07326683291770573,0.008365787078512174,
0.07331670822942643,0.026897453197358485,
0.07336658354114713,0.013155691992771364,
0.07341645885286784,0.06424809560975303,
0.07346633416458853,0.03981082996146203,
0.07351620947630923,0.0412198468290851,
0.07356608478802992,0.016344929178748944,
0.07361596009975062,0.011281238945916138,
0.07366583541147133,0.037545901780686654,
0.07371571072319202,0.03625006806446608,
0.07376558603491272,0.018052732247608824,
0.07381546134663342,0.02999610564409981,
0.07386533665835411,0.015416611112591428,
0.0739152119700748,0.006923160636897109,
0.07396508728179552,0.02952987746305506,
0.07401496259351621,0.02897967616967105,
0.07406483790523691,0.011152565776800141,
0.0741147132169576,0.05284746778036818,
0.0741645885286783,0.02333153665260825,
0.07421446384039901,0.029681254696656213,
0.0742643391521197,0.005893292167051279,
0.0743142144638404,0.02777305319914622,
0.0743640897755611,0.009522839734995786,
0.07441396508728179,0.03915816572814908,
0.07446384039900249,0.027507894206003372,
0.0745137157107232,0.030026855492572224,
0.07456359102244389,0.05574665376216623,
0.07461346633416459,0.018007192851284753,
0.07466334164588528,0.02545664665350408,
0.07471321695760598,0.009103702190211005,
0.07476309226932669,-0.011345363260646349,
0.07481296758104738,0.020230381838158697,
0.07486284289276808,0.046561911813027726,
0.07491271820448878,0.02140737060053714,
0.07496259351620947,0.01556154879027348,
0.07501246882793017,0.03358460272294077,
0.07506234413965088,0.0011009421803475812,
0.07511221945137157,0.0035030408021093484,
0.07516209476309227,0.02549334193276514,
0.07521197007481296,-0.00955222705364056,
0.07526184538653366,0.026854189012969334,
0.07531172069825437,-0.006591296244477232,
0.07536159600997507,0.019722483704694545,
0.07541147132169576,0.002444079992616926,
0.07546134663341646,0.012573315973694797,
0.07551122194513715,0.01258022223184203,
0.07556109725685786,0.010275935932570956,
0.07561097256857856,0.014480965333766499,
0.07566084788029925,0.008518047683525948,
0.07571072319201995,-0.0014891010814812328,
0.07576059850374064,-0.0003261037052853036,
0.07581047381546134,0.0138117832420217,
0.07586034912718205,-0.0017188701235426353,
0.07591022443890275,0.006662457191459794,
0.07596009975062344,0.02717592572951531,
0.07600997506234414,-0.010430625694243512,
0.07605985037406483,0.011469235092036303,
0.07610972568578554,0.030235587475622057,
0.07615960099750624,-0.001300821918204461,
0.07620947630922693,0.04005550590399002,
0.07625935162094763,0.019607355500401366,
0.07630922693266833,-0.007639261375990388,
0.07635910224438902,0.0013773052658119025,
0.07640897755610973,-0.007353321518588149,
0.07645885286783043,0.01574819389327319,
0.07650872817955112,-0.002156241530846227,
0.07655860349127182,-0.0005996730478545912,
0.07660847880299251,0.03361171203137693,
0.07665835411471322,0.020393467172158775,
0.07670822942643392,-0.0010550063908649245,
0.07675810473815461,0.002532072469862208,
0.07680798004987531,0.0036127408713598195,
0.076857855361596,0.023257757019876653,
0.0769077306733167,0.010150921540306671,
0.07695760598503741,0.015613999834712552,
0.0770074812967581,0.008989513258666537,
0.0770573566084788,-0.0006555347758335911,
0.0771072319201995,0.015923657421686468,
0.0771571072319202,0.00439511164289245,
0.0772069825436409,0.009959977713743977,
0.0772568578553616,0.01281483263497989,
0.0773067331670823,0.016450017523840236,
0.07735660847880299,-0.002408716885399091,
0.07740648379052369,0.0007604698372477023,
0.0774563591022444,-0.026476893585076627,
0.07750623441396509,0.0026537131574781306,
0.07755610972568579,-0.03767273101174244,
0.07760598503740648,0.002507682560541055,
0.07765586034912718,-0.012566808178868853,
0.07770573566084787,-0.0009591408002266528,
0.07775561097256858,0.01201113801295646,
0.07780548628428928,0.018334993733757993,
0.07785536159600998,0.030710312535981624,
0.07790523690773067,0.011053890177305025,
0.07795511221945137,-0.018054098734615838,
0.07800498753117208,0.014588113473391444,
0.07805486284289277,-0.014431704804587438,
0.07810473815461347,-0.01836863873236706,
0.07815461346633416,-0.001725633075624228,
0.07820448877805486,-0.020718248254364042,
0.07825436408977555,-0.007587100190939422,
0.07830423940149626,-0.015353283541997238,
0.07835411471321696,0.00377132039707181,
0.07840399002493766,-0.00382373931762714,
0.07845386533665835,0.027091887462154733,
0.07850374064837905,-0.010751751601721538,
0.07855361596009976,0.01780015355469001,
0.07860349127182045,-0.011375519046163272,
0.07865336658354115,0.009289737557972064,
0.07870324189526184,-0.004671406419877488,
0.07875311720698254,-0.02772727646369138,
0.07880299251870324,-0.021200864200359257,
0.07885286783042394,0.00998262760215634,
0.07890274314214464,-0.012577028564384043,
0.07895261845386534,-0.013598470751872383,
0.07900249376558603,-0.0031169965396106933,
0.07905236907730673,-0.007823894648426779,
0.07910224438902744,-0.03703917827591154,
0.07915211970074813,-0.040506800021886516,
0.07920199501246883,-0.012446027315305544,
0.07925187032418952,-0.0058998332606876504,
0.07930174563591022,-0.0013727049612406172,
0.07935162094763092,-0.0016217131978663356,
0.07940149625935163,-0.02402516357863598,
0.07945137157107232,-0.018682607670822707,
0.07950124688279302,-0.006800169754046268,
0.07955112219451371,0.013401101901872832,
0.07960099750623441,-0.00451264924074728,
0.07965087281795512,-0.008945126292930967,
0.07970074812967581,-0.011906732926808147,
0.07975062344139651,-0.0037944585513911867,
0.0798004987531172,0.0028447831886249803,
0.0798503740648379,-0.02907002921589465,
0.07990024937655861,-0.016949078051566355,
0.0799501246882793,0.020631036108260097,
0.08,-0.015867944554078323,
0.0800498753117207,0.004294264814813421,
0.0800997506234414,0.0037949974196191203,
0.08014962593516209,-0.0076084832014189935,
0.0801995012468828,0.0024321613282679306,
0.0802493765586035,-0.028403363583384925,
0.08029925187032419,0.01064027784512541,
0.08034912718204489,-0.009753477409306228,
0.08039900249376558,-0.030735256422053065,
0.08044887780548629,0.000840621062411312,
0.08049875311720699,0.01526010356572534,
0.08054862842892768,5.260662456512723e-05,
0.08059850374064838,-0.019843749277176068,
0.08064837905236907,-0.018882202909793203,
0.08069825436408977,0.007462656794706795,
0.08074812967581048,-0.026943443273113904,
0.08079800498753117,-0.026481551718441923,
0.08084788029925187,-0.02211913200341556,
0.08089775561097257,-0.022232537290646278,
0.08094763092269326,-0.0027130841559447477,
0.08099750623441397,-0.02008486672391112,
0.08104738154613467,-0.022934310609385535,
0.08109725685785536,-0.02155955084400852,
0.08114713216957606,0.00200512476786183,
0.08119700748129675,-0.009610853723268274,
0.08124688279301745,0.006790202640709817,
0.08129675810473816,-0.01777007007964765,
0.08134663341645886,-0.027983430491137377,
0.08139650872817955,-0.01908727288819352,
0.08144638403990025,0.012913485523366398,
0.08149625935162094,-0.023230709130513963,
0.08154613466334165,-0.0021465424510097707,
0.08159600997506235,-0.0012431762150522923,
0.08164588528678304,-0.021441231579965046,
0.08169576059850374,-0.03458460126337973,
0.08174563591022443,0.000215122454916011,
0.08179551122194513,-0.015678534456587203,
0.08184538653366584,-0.0009779142330282632,
0.08189526184538654,-0.033584692196922034,
0.08194513715710723,-0.039782654845133054,
0.08199501246882793,-0.048331748117572515,
0.08204488778054862,-0.01007473988594135,
0.08209476309226933,-0.0179247974009419,
0.08214463840399003,-0.00833650082444801,
0.08219451371571072,-0.018549073434717494,
0.08224438902743142,0.004344085852228511,
0.08229426433915212,-0.0317112363173852,
0.08234413965087282,0.00326581808024496,
0.08239401496259352,-0.026404146558968597,
0.08244389027431422,-0.0041404362712045405,
0.08249376558603491,-0.02237594811412602,
0.08254364089775561,0.01869919332865471,
0.0825935162094763,-0.035698032904316696,
0.08264339152119701,-0.023262974566692445,
0.08269326683291771,-0.0027551202824021674,
0.0827431421446384,-0.03287327551052867,
0.0827930174563591,-0.02172984053420131,
0.0828428927680798,-0.016261945355405972,
0.0828927680798005,-0.034644103017880824,
0.0829426433915212,-0.018537055421152044,
0.0829925187032419,-0.004186109226170666,
0.08304239401496259,-0.026843374493689585,
0.08309226932668329,0.00414277473851782,
0.08314214463840398,-0.0038059038788971055,
0.0831920199501247,-0.024366076579228492,
0.08324189526184539,-0.0201804420246679,
0.08329177057356608,-0.03174232114924695,
0.08334164588528678,-0.022394877597761827,
0.08339152119700748,-0.03381081961303039,
0.08344139650872819,0.0041524383827351765,
0.08349127182044888,-0.05441372400194745,
0.08354114713216958,-0.000163888198835822,
0.08359102244389027,-0.0005502336888538184,
0.08364089775561097,-0.02331790456208073,
0.08369077306733166,-0.015642887216121736,
0.08374064837905237,-0.010217427005107424,
0.08379052369077307,-0.01733403993597971,
0.08384039900249377,-0.009835106145589988,
0.08389027431421446,-0.00048123975640071946,
0.08394014962593516,-0.02075655915236673,
0.08399002493765587,0.0002440048032849359,
0.08403990024937656,0.021910583730580923,
0.08408977556109726,-0.01886863341640278,
0.08413965087281795,-0.02264907995853912,
0.08418952618453865,0.0036548410032382576,
0.08423940149625936,-0.02575044052017278,
0.08428927680798005,-0.02343653911160995,
0.08433915211970075,-0.022614142338071755,
0.08438902743142145,0.0048727185417603795,
0.08443890274314214,-0.015999980181581518,
0.08448877805486284,-0.01591887527697381,
0.08453865336658355,0.002704131329488265,
0.08458852867830424,-0.0073262163580335065,
0.08463840399002494,0.0068875613357116715,
0.08468827930174563,-0.02041003273449076,
0.08473815461346633,-0.014305799388076312,
0.08478802992518704,-0.024346626039064026,
0.08483790523690773,0.008012329391316467,
0.08488778054862843,-0.012023576399325121,
0.08493765586034913,-0.008946914628561856,
0.08498753117206982,-0.005324324116672507,
0.08503740648379052,-0.018792602100076942,
0.08508728179551123,0.00014791956308654207,
0.08513715710723192,0.017891132116301157,
0.08518703241895262,0.0036667472149696624,
0.08523690773067331,0.018209400606496323,
0.08528678304239401,-0.012976121009271764,
0.08533665835411472,0.01283041555812298,
0.08538653366583542,-0.013683124759860221,
0.08543640897755611,-0.005666802569203595,
0.0854862842892768,0.018843898213660115,
0.0855361596009975,0.005870866864675452,
0.0855860349127182,-0.00964483102250173,
0.08563591022443891,-0.01563915652006577,
0.0856857855361596,-0.006461043892659496,
0.0857356608478803,-0.01999545780785393,
0.085785536159601,-0.003486064080101931,
0.08583541147132169,0.020950039371047325,
0.0858852867830424,0.00819916013432629,
0.0859351620947631,-0.014052045585380585,
0.08598503740648379,-0.011535189858059652,
0.08603491271820449,-0.02494329278629701,
0.08608478802992518,0.023382353855246868,
0.08613466334164588,-0.00013229261957326032,
0.08618453865336659,0.007604038024219927,
0.08623441396508728,0.007053373961899747,
0.08628428927680798,-0.02603454422604258,
0.08633416458852868,0.012306329465497725,
0.08638403990024937,0.03392926457131742,
0.08643391521197008,-0.0014297573220683401,
0.08648379052369078,-0.005417114973340485,
0.08653366583541147,-0.01726116885872153,
0.08658354114713217,-0.0019398738487741976,
0.08663341645885286,0.023291249644076306,
0.08668329177057357,-0.023360022368337844,
0.08673316708229427,-0.0019220784155345085,
0.08678304239401496,-0.008090179573712913,
0.08683291770573566,0.03684543480323356,
0.08688279301745636,-0.004589378167449299,
0.08693266832917705,0.009375929769405508,
0.08698254364089776,0.008659265736597395,
0.08703241895261846,-0.020012346563438012,
0.08708229426433915,0.02392329065957894,
0.08713216957605985,-0.0070601900968080954,
0.08718204488778054,-0.0024487982213174525,
0.08723192019950125,0.044506550875023115,
0.08728179551122195,0.022013210390471466,
0.08733167082294264,-0.02310182552226398,
0.08738154613466334,0.030623097828918117,
0.08743142144638404,0.0018215733134062054,
0.08748129675810473,0.00878406289486601,
0.08753117206982544,0.00688781692980928,
0.08758104738154614,0.0018795103661037645,
0.08763092269326683,-0.009875208039036982,
0.08768079800498753,0.023008658283112132,
0.08773067331670822,0.021039111252739225,
0.08778054862842893,0.03250430791143906,
0.08783042394014963,0.018893440211219976,
0.08788029925187033,0.008282506627187753,
0.08793017456359102,0.0009654672408892558,
0.08798004987531172,0.005808829709973892,
0.08802992518703241,-0.003985570786228848,
0.08807980049875312,0.01605147888848748,
0.08812967581047382,0.02958003308759615,
0.08817955112219451,-0.007422294342037804,
0.08822942643391521,0.019039961563112613,
0.0882793017456359,0.011005052974766808,
0.08832917705735661,0.02354825241098023,
0.08837905236907731,0.023110700550732284,
0.088428927680798,0.005833439260521064,
0.0884788029925187,-0.011975223961727843,
0.0885286783042394,-0.0015930287068122821,
0.0885785536159601,0.02233648468807951,
0.0886284289276808,0.026240377881397426,
0.0886783042394015,0.026918860647744465,
0.0887281795511222,0.025613033809767247,
0.08877805486284289,0.027169653283072623,
0.08882793017456359,0.027987362616849962,
0.0888778054862843,0.03521584064961471,
0.08892768079800499,0.04398184622673779,
0.08897755610972569,0.030472052547651625,
0.08902743142144638,0.037861312062606636,
0.08907730673316708,0.019054959600029647,
0.08912718204488779,0.01660834340206179,
0.08917705735660848,0.018820846742023084,
0.08922693266832918,0.01989382030360717,
0.08927680798004987,0.033945428425749935,
0.08932668329177057,0.0447609124385442,
0.08937655860349127,0.0026068214313614037,
0.08942643391521198,0.008283111582289834,
0.08947630922693267,0.010089621867582685,
0.08952618453865337,0.021689768098030207,
0.08957605985037406,0.026225377802180323,
0.08962593516209476,0.012718941541150844,
0.08967581047381547,0.030049519459530608,
0.08972568578553616,0.0019817923947867723,
0.08977556109725686,0.018754317503831736,
0.08982543640897755,0.04377277195740187,
0.08987531172069825,0.021053036492982014,
0.08992518703241895,0.014785133085652729,
0.08997506234413966,0.0464627883504559,
0.09002493765586035,0.042947489170445156,
0.09007481296758105,0.0114309691890486,
0.09012468827930174,0.02687054566022382,
0.09017456359102244,0.024117857169682656,
0.09022443890274315,0.029229387429750703,
0.09027431421446384,0.0034606084127777464,
0.09032418952618454,0.051078825014410856,
0.09037406483790524,0.04441695995995353,
0.09042394014962593,0.03005104450601355,
0.09047381546134663,0.01832215017487069,
0.09052369077306734,0.041546016461161905,
0.09057356608478803,0.028953512745013222,
0.09062344139650873,0.02105732571687175,
0.09067331670822942,0.03539616927113959,
0.09072319201995012,0.019304481807953484,
0.09077306733167083,0.03892458939673973,
0.09082294264339152,0.01679103661178188,
0.09087281795511222,0.0331230019223507,
0.09092269326683292,-0.0023622397897276118,
0.09097256857855361,0.016157202144328628,
0.09102244389027432,0.019473886003744785,
0.09107231920199502,0.03318918400255235,
0.09112219451371571,0.04210934747616238,
0.09117206982543641,0.028347025017134344,
0.0912219451371571,0.020287368355484923,
0.0912718204488778,0.027743092691660053,
0.09132169576059851,0.023436504912258564,
0.0913715710723192,0.059098674510060185,
0.0914214463840399,0.04795288594518506,
0.0914713216957606,0.01685770590332762,
0.09152119700748129,0.03060910955465873,
0.091571072319202,0.04775082821656189,
0.0916209476309227,0.010926851176355994,
0.09167082294264339,0.051135887287727846,
0.09172069825436409,0.015637420189186086,
0.09177057356608478,0.052478932132868125,
0.09182044887780548,0.018118680552870997,
0.09187032418952619,0.04598149300804655,
0.09192019950124689,0.02550236184821551,
0.09197007481296758,0.03047038642004312,
0.09201995012468828,0.034710769887678745,
0.09206982543640897,0.045763273164208626,
0.09211970074812968,0.03099056480562174,
0.09216957605985038,0.045624861440431534,
0.09221945137157107,-0.004153172767834574,
0.09226932668329177,0.030113270957710086,
0.09231920199501246,-0.01411307307494052,
0.09236907730673316,0.05699705356549517,
0.09241895261845387,0.03119137843142026,
0.09246882793017457,0.022624503312632403,
0.09251870324189526,0.04296511785889125,
0.09256857855361596,0.01799601701647907,
0.09261845386533665,0.054291592578282415,
0.09266832917705736,0.05693821077021479,
0.09271820448877806,0.001492153473460909,
0.09276807980049875,0.026702959052242764,
0.09281795511221945,0.003755748993889977,
0.09286783042394015,0.033379653607291754,
0.09291770573566084,0.011651663811972777,
0.09296758104738155,0.029211318346598573,
0.09301745635910225,0.03522937943563846,
0.09306733167082294,-0.001496227815611706,
0.09311720698254364,0.023992401143725202,
0.09316708229426433,0.049850831511630465,
0.09321695760598504,0.031049886216302374,
0.09326683291770574,0.036752808836092735,
0.09331670822942643,0.03591892443446789,
0.09336658354114713,0.023655189957103303,
0.09341645885286783,0.024056330469518005,
0.09346633416458854,0.016813485665269547,
0.09351620947630923,0.039968052939075724,
0.09356608478802993,0.01663233317208915,
0.09361596009975062,0.027866961876893595,
0.09366583541147132,0.012516789542250018,
0.09371571072319201,0.013336170969666236,
0.09376558603491272,0.046558503527448884,
0.09381546134663342,0.04027356860397384,
0.09386533665835411,0.025186745098119398,
0.09391521197007481,0.008548010345319566,
0.0939650872817955,0.05501017846979405,
0.09401496259351622,0.014062340564795764,
0.09406483790523691,0.019701828731993005,
0.09411471321695761,0.03741556235726302,
0.0941645885286783,0.021775624832486563,
0.094214463840399,0.02898986529826781,
0.0942643391521197,0.01460554143960459,
0.0943142144638404,0.028318065346206026,
0.0943640897755611,0.04809276944442829,
0.0944139650872818,0.002319926436882426,
0.09446384039900249,-0.0033588487399888074,
0.09451371571072319,0.03377387684679669,
0.0945635910224439,-0.005483258282044896,
0.09461346633416459,0.009815694273802284,
0.09466334164588529,-0.00031200131491911434,
0.09471321695760598,0.003088394114344497,
0.09476309226932668,0.006804744606425923,
0.09481296758104737,0.01578043719484182,
0.09486284289276808,0.0027455643882655766,
0.09491271820448878,0.03730873972852655,
0.09496259351620948,0.01703620664546989,
0.09501246882793017,0.012944735343758956,
0.09506234413965087,0.009854075728873268,
0.09511221945137158,0.0333482983248471,
0.09516209476309227,0.03440000431322873,
0.09521197007481297,0.0010841777836571448,
0.09526184538653366,0.01251429083239864,
0.09531172069825436,0.005282582019701918,
0.09536159600997507,0.028750830642658924,
0.09541147132169576,0.028080431538953985,
0.09546134663341646,0.023833034262060338,
0.09551122194513716,0.006304071557472746,
0.09556109725685785,0.036065117749964515,
0.09561097256857855,0.014165638369734716,
0.09566084788029926,0.008287361510893005,
0.09571072319201995,-0.01083841919707531,
0.09576059850374065,0.026591828660404087,
0.09581047381546134,0.012629836968710006,
0.09586034912718204,-0.011819910610532787,
0.09591022443890275,0.0055871718230563056,
0.09596009975062345,-0.008640134762076621,
0.09600997506234414,-0.005900459200191686,
0.09605985037406484,0.0016866282750168833,
0.09610972568578553,0.0023033941405520824,
0.09615960099750623,0.0052799976221136365,
0.09620947630922694,0.0331801020517876,
0.09625935162094763,0.004953450050514533,
0.09630922693266833,0.022428409516512645,
0.09635910224438902,0.021497699734681526,
0.09640897755610972,-0.0003720037515062332,
0.09645885286783043,0.0031095742374942807,
0.09650872817955113,-0.00047678767372008254,
0.09655860349127182,0.03461569787028722,
0.09660847880299252,-0.016288005567585664,
0.09665835411471321,-0.008651607542644235,
0.09670822942643391,0.02184866020813065,
0.09675810473815462,-0.0038979720545262104,
0.09680798004987531,0.011263066600757564,
0.09685785536159601,-0.023001912942737162,
0.0969077306733167,-0.005908141356390855,
0.0969576059850374,0.03307174817087975,
0.09700748129675811,0.04421795228770005,
0.0970573566084788,0.01931637992402406,
0.0971072319201995,-0.007647050901229292,
0.0971571072319202,-0.0023536506668386066,
0.0972069825436409,0.014583157509441776,
0.09725685785536159,-0.01454515639476631,
0.0973067331670823,0.008022676448451659,
0.097356608478803,0.014491207071567095,
0.09740648379052369,0.01975534462983654,
0.09745635910224439,0.0027222896176874404,
0.09750623441396508,-0.015034078396862948,
0.09755610972568579,-0.01711379466960107,
0.09760598503740649,-0.023157009448537776,
0.09765586034912718,0.013966921572030446,
0.09770573566084788,0.004910398102405591,
0.09775561097256857,0.01005827942042235,
0.09780548628428928,-0.018102683369666354,
0.09785536159600998,-0.010381160118795116,
0.09790523690773068,0.023829477800846533,
0.09795511221945137,-0.01687450574507727,
0.09800498753117207,-0.00869738420423358,
0.09805486284289276,0.027921954020812267,
0.09810473815461347,0.021192547617301702,
0.09815461346633417,0.003408460221859278,
0.09820448877805486,-0.021098270639589824,
0.09825436408977556,-0.022144813101660818,
0.09830423940149625,-0.013259104632310847,
0.09835411471321696,0.0024116075434932657,
0.09840399002493766,0.016026658201308518,
0.09845386533665836,-8.702984414114953e-05,
0.09850374064837905,0.010816000068723654,
0.09855361596009975,0.0019168723694034046,
0.09860349127182044,-0.008594015168136654,
0.09865336658354115,-0.008855341836992763,
0.09870324189526185,-0.006907313933245824,
0.09875311720698254,0.005931831577086624,
0.09880299251870324,-0.01126017576810586,
0.09885286783042393,-0.011688347431993429,
0.09890274314214464,0.0013093288786967259,
0.09895261845386534,0.020785896212909827,
0.09900249376558604,0.009228140718062217,
0.09905236907730673,0.0032817232694862114,
0.09910224438902743,-0.029154897438309447,
0.09915211970074812,0.008479465021635421,
0.09920199501246883,-0.002250275565131325,
0.09925187032418953,0.00906722587610716,
0.09930174563591022,-0.028320380484759614,
0.09935162094763092,-0.012330432683515236,
0.09940149625935162,-0.020192744178023688,
0.09945137157107233,-0.0019538389148320524,
0.09950124688279302,-0.021546741342322533,
0.09955112219451372,0.014110286044841183,
0.09960099750623441,0.0001537762851657673,
0.09965087281795511,0.004610048409492801,
0.0997007481296758,-0.01147449984559357,
0.09975062344139651,-0.002267587209171526,
0.09980049875311721,0.012205159142311227,
0.0998503740648379,-0.011388595359750188,
0.0999002493765586,-0.023875356876401868,
0.0999501246882793,-0.026163338932540095,
0.1,-0.04186542202202713,
0.1000498753117207,-0.02148184917452809,
0.1000997506234414,-0.041965739195535826,
0.10014962593516209,-0.0016709086660612136,
0.10019950124688279,-0.01929389251239419,
0.1002493765586035,-0.014568673747170822,
0.1002992518703242,-0.0034154986576071626,
0.10034912718204489,-0.004374812414735686,
0.10039900249376559,-0.014037466868562687,
0.10044887780548628,0.010759646758234404,
0.10049875311720698,-0.02062691342947628,
0.10054862842892769,-0.0015027564310845822,
0.10059850374064838,-0.013366473629580534,
0.10064837905236908,-0.01670549958290056,
0.10069825436408977,-0.0017603798746991944,
0.10074812967581047,0.010978916511604122,
0.10079800498753118,-0.023470897049747273,
0.10084788029925187,-0.01641491533312071,
0.10089775561097257,-0.03222311337288797,
0.10094763092269327,-0.003683866610444682,
0.10099750623441396,-0.0038921521206607013,
0.10104738154613466,-0.004370769050525346,
0.10109725685785537,-0.01788169233055532,
0.10114713216957606,-0.014044952135092438,
0.10119700748129676,-0.020048966226528613,
0.10124688279301745,-0.007769077382494084,
0.10129675810473815,-0.004079334345571971,
0.10134663341645886,-0.0022311781406043514,
0.10139650872817955,-0.014508569533357212,
0.10144638403990025,-0.028280081871811844,
0.10149625935162095,-0.021773700531646997,
0.10154613466334164,-0.019988311299473017,
0.10159600997506234,0.014180092027745651,
0.10164588528678305,-0.009625934006932721,
0.10169576059850374,-0.01798046776372158,
0.10174563591022444,0.0029551153380820427,
0.10179551122194513,0.006048791330158058,
0.10184538653366583,-0.035995755504334356,
0.10189526184538654,-0.018449969987642745,
0.10194513715710724,-0.0033624886884328544,
0.10199501246882793,-4.3729186995664776e-05,
0.10204488778054863,0.019323783934408326,
0.10209476309226932,-0.010767421392008815,
0.10214463840399003,-0.031227833900045767,
0.10219451371571073,0.010995377549508932,
0.10224438902743142,-0.014247690472936779,
0.10229426433915212,-0.029511918184528613,
0.10234413965087281,-0.012461340598948894,
0.10239401496259351,-0.0052693406992790305,
0.10244389027431422,-0.0021761077154134768,
0.10249376558603492,-0.0025399841673155767,
0.10254364089775561,-0.013011667085289972,
0.10259351620947631,-0.011965115078553336,
0.102643391521197,-0.013056268918048657,
0.10269326683291771,-0.011693539241356491,
0.10274314214463841,-0.024149426326396883,
0.1027930174563591,-0.010740946857768654,
0.1028428927680798,-0.042805016432085743,
0.1028927680798005,-0.022951452847734283,
0.10294264339152119,-0.03427085449904514,
0.1029925187032419,0.008795696487097604,
0.1030423940149626,0.008412580178236269,
0.10309226932668329,0.007938478879984867,
0.10314214463840399,-0.004475601423698021,
0.10319201995012468,-0.016864175327506684,
0.10324189526184539,-0.021976822970736352,
0.10329177057356609,0.001825556914806339,
0.10334164588528678,-0.018505558121511223,
0.10339152119700748,-0.015647361527921688,
0.10344139650872818,-0.015168645424829777,
0.10349127182044887,-0.01507238306196162,
0.10354114713216958,-0.023512328932341016,
0.10359102244389028,-0.015585581974075058,
0.10364089775561097,-0.016980841656188274,
0.10369077306733167,-0.009102030488274576,
0.10374064837905236,0.003883907200617806,
0.10379052369077307,-0.012947122457049758,
0.10384039900249377,-0.004936211806011549,
0.10389027431421446,-0.013123640770530146,
0.10394014962593516,-0.009107581559256518,
0.10399002493765586,-0.0011449363023303934,
0.10403990024937655,-0.042332144680614,
0.10408977556109726,-0.029527593008908108,
0.10413965087281796,-0.024686345713182876,
0.10418952618453865,-0.007437377316169831,
0.10423940149625935,-0.009269453986911686,
0.10428927680798004,-0.01285762022267286,
0.10433915211970075,-0.002403574730069947,
0.10438902743142145,-0.003936057656331128,
0.10443890274314215,-0.025908664272954823,
0.10448877805486284,-0.0313048764793272,
0.10453865336658354,-0.014019911255267558,
0.10458852867830425,0.016498958055426102,
0.10463840399002494,-0.019838665671849078,
0.10468827930174564,0.005919142320999635,
0.10473815461346633,0.009457909849035082,
0.10478802992518703,-0.006325661318785748,
0.10483790523690772,0.01824897345064383,
0.10488778054862843,-0.009526629710020256,
0.10493765586034913,-0.005124715364105352,
0.10498753117206983,-0.03946058762937212,
0.10503740648379052,-0.004656216393119013,
0.10508728179551122,-0.015615586688684834,
0.10513715710723193,-0.005672035106801563,
0.10518703241895262,-0.0010184145114305256,
0.10523690773067332,-0.003415670688379389,
0.10528678304239401,-0.006739845000135108,
0.10533665835411471,0.0016400323736145287,
0.1053865336658354,-0.004432312369287871,
0.10543640897755611,-0.014457703339080002,
0.10548628428927681,-0.0020697876298830004,
0.1055361596009975,-0.002942597819901019,
0.1055860349127182,0.03030616936712419,
0.1056359102244389,0.03657240926561242,
0.10568578553615961,0.01479789386731958,
0.1057356608478803,-0.02867355929091855,
0.105785536159601,-0.040625140524948374,
0.1058354114713217,0.007020431338681561,
0.10588528678304239,-0.008176512732000853,
0.10593516209476309,0.004984732207581919,
0.1059850374064838,0.015940682751758722,
0.10603491271820449,0.0001735611042924098,
0.10608478802992519,-0.004652679127687005,
0.10613466334164588,0.021960310646292138,
0.10618453865336658,0.010528373679869103,
0.10623441396508729,0.012822983918270765,
0.10628428927680798,0.006524998177713008,
0.10633416458852868,-0.0002953221495971617,
0.10638403990024937,0.01565039236528205,
0.10643391521197007,0.012688592701157216,
0.10648379052369077,0.016406018754834176,
0.10653366583541148,-0.0010465923224570487,
0.10658354114713217,-0.0070001276598750765,
0.10663341645885287,0.03201921725130462,
0.10668329177057356,-0.00040894525787819186,
0.10673316708229426,-0.02783053034937698,
0.10678304239401497,0.013098028304488344,
0.10683291770573566,0.02932845333399451,
0.10688279301745636,0.02549140810335885,
0.10693266832917706,0.0038447692363123296,
0.10698254364089775,0.022275170151136225,
0.10703241895261846,0.04415249455638451,
0.10708229426433916,0.024733208383914455,
0.10713216957605985,0.004660162264629193,
0.10718204488778055,0.0066346482526153175,
0.10723192019950124,0.019082283753664733,
0.10728179551122194,0.013668587585948935,
0.10733167082294265,0.004901823520698555,
0.10738154613466334,0.008750598608061308,
0.10743142144638404,0.008752926629973299,
0.10748129675810474,0.005518025063833915,
0.10753117206982543,0.030317272231934384,
0.10758104738154614,0.02510217372005911,
0.10763092269326684,0.018522830922214645,
0.10768079800498753,0.01758129026383246,
0.10773067331670823,0.009108342274905576,
0.10778054862842892,0.023690341953067448,
0.10783042394014962,0.029500491012989384,
0.10788029925187033,0.029840033979154197,
0.10793017456359102,-0.012507066174907037,
0.10798004987531172,-0.00028128891716096803,
0.10802992518703242,0.019099426490015906,
0.10807980049875311,0.019298071776268952,
0.10812967581047382,0.02482717681988033,
0.10817955112219452,0.01402485950413045,
0.10822942643391521,-0.002223021173902835,
0.10827930174563591,-0.006856758408017489,
0.1083291770573566,0.014956059320593403,
0.1083790523690773,0.005768967521421087,
0.10842892768079801,0.015398365692910245,
0.1084788029925187,0.007399356415801249,
0.1085286783042394,0.008196101720379104,
0.1085785536159601,0.03592005124912357,
0.10862842892768079,0.0034096804919254084,
0.1086783042394015,0.033049358028895914,
0.1087281795511222,0.05013391669486873,
0.1087780548628429,0.0017527801603482232,
0.10882793017456359,0.019483503630762,
0.10887780548628428,0.0024754394118091314,
0.108927680798005,0.018830184353077123,
0.10897755610972569,0.027079795512471493,
0.10902743142144639,0.021213003568319618,
0.10907730673316708,0.027737896188073465,
0.10912718204488778,0.01532983990136285,
0.10917705735660847,0.00823002280804811,
0.10922693266832918,0.04761038101683031,
0.10927680798004988,0.012742298099015212,
0.10932668329177057,0.02528444650517942,
0.10937655860349127,0.0393637343957821,
0.10942643391521197,0.01913252461829318,
0.10947630922693267,0.0372581558141262,
0.10952618453865337,0.018713060588759847,
0.10957605985037407,0.03234389167993515,
0.10962593516209476,0.025889162055639812,
0.10967581047381546,-0.005096229956682338,
0.10972568578553615,0.027019793326916636,
0.10977556109725686,0.02143081228387165,
0.10982543640897756,0.01862392760807273,
0.10987531172069825,0.014099033614031154,
0.10992518703241895,-0.007507433234741963,
0.10997506234413965,0.0450689400062959,
0.11002493765586036,0.049094565771037726,
0.11007481296758105,0.029635523671464176,
0.11012468827930175,-0.008124380020066376,
0.11017456359102244,0.028241215328283803,
0.11022443890274314,0.02885517107948704,
0.11027431421446383,0.028198115757751344,
0.11032418952618454,0.03629401333909985,
0.11037406483790524,0.015709215568661807,
0.11042394014962593,-0.0011952488615446753,
0.11047381546134663,0.03144856917276793,
0.11052369077306733,0.0335541711821693,
0.11057356608478804,0.023818777208649843,
0.11062344139650873,0.02958323134948226,
0.11067331670822943,0.044688140999398385,
0.11072319201995012,0.021486996339367778,
0.11077306733167082,0.032066063814126924,
0.11082294264339151,0.022554333660190704,
0.11087281795511222,0.013731886131784414,
0.11092269326683292,0.04104899861861254,
0.11097256857855362,0.03725849059744612,
0.11102244389027431,0.03320670851007145,
0.111072319201995,0.018937710733979613,
0.11112219451371572,0.02136002236339639,
0.11117206982543641,0.05754233846717228,
0.11122194513715711,0.012398400193318997,
0.1112718204488778,0.035980049029949515,
0.1113216957605985,0.021018201052515475,
0.11137157107231921,0.05613117701491388,
0.1114214463840399,0.035632833582015466,
0.1114713216957606,0.024168060523434225,
0.1115211970074813,0.004750924114723453,
0.11157107231920199,0.05802380724608058,
0.11162094763092269,0.033340702075058036,
0.1116708229426434,0.05082171441967011,
0.11172069825436409,0.03111942095292312,
0.11177057356608479,-0.003635365552070925,
0.11182044887780548,0.02958389970230332,
0.11187032418952618,0.028240340137039837,
0.11192019950124689,0.018386460205159008,
0.11197007481296758,0.022084247790778895,
0.11201995012468828,0.021157338884403975,
0.11206982543640898,0.037727908618708096,
0.11211970074812967,0.02465845488907906,
0.11216957605985037,0.029772261174855878,
0.11221945137157108,0.020117433978608306,
0.11226932668329177,0.01701280743180636,
0.11231920199501247,0.03327595904364546,
0.11236907730673316,0.021356872749351767,
0.11241895261845386,0.016331848321614443,
0.11246882793017457,0.03330512957781027,
0.11251870324189527,0.041126365915158496,
0.11256857855361596,0.022065588526184107,
0.11261845386533666,0.047688776999396054,
0.11266832917705735,0.018735313976565433,
0.11271820448877805,0.01944883267194673,
0.11276807980049876,0.03646809405437497,
0.11281795511221945,0.020038261547149154,
0.11286783042394015,0.0018775346065376362,
0.11291770573566084,0.029107015639529474,
0.11296758104738154,0.019019759482207816,
0.11301745635910225,0.03206566309332846,
0.11306733167082295,0.018018487755887203,
0.11311720698254364,0.019075661657482035,
0.11316708229426434,0.023886082253436067,
0.11321695760598503,0.002204549062140203,
0.11326683291770574,0.05721027131595247,
0.11331670822942644,0.012528098669317683,
0.11336658354114713,-0.005689845890542819,
0.11341645885286783,0.020421730466303946,
0.11346633416458853,0.05636516387196341,
0.11351620947630922,0.001320358703384903,
0.11356608478802993,0.026628711674400538,
0.11361596009975063,0.05600000019999367,
0.11366583541147132,0.03473914912951632,
0.11371571072319202,0.06183320725252336,
0.11376558603491271,0.011920829800442227,
0.11381546134663342,0.033618094237853884,
0.11386533665835412,0.02168380572812295,
0.11391521197007481,0.02816382552081861,
0.11396508728179551,0.01583460181706115,
0.1140149625935162,0.018768134373504622,
0.1140648379052369,0.023371370319366373,
0.11411471321695761,0.0379565882796976,
0.1141645885286783,0.01598472366542273,
0.114214463840399,0.038948812141050025,
0.1142643391521197,0.042187588978809726,
0.1143142144638404,0.04083418545848377,
0.1143640897755611,0.00950904659693981,
0.1144139650872818,0.02182201679722983,
0.1144638403990025,0.03458574450825897,
0.11451371571072319,0.023296942743748297,
0.11456359102244389,0.013887318730220515,
0.11461346633416458,0.009539685831593902,
0.11466334164588529,0.002803823762729994,
0.11471321695760599,0.01812709219407691,
0.11476309226932668,0.02152826918954232,
0.11481296758104738,0.03459726050139587,
0.11486284289276807,0.006783532674937068,
0.11491271820448878,0.039606833741619454,
0.11496259351620948,0.014555648301212643,
0.11501246882793018,0.04177969818639536,
0.11506234413965087,0.024234615957109556,
0.11511221945137157,0.02233704382683213,
0.11516209476309226,0.006647164970833997,
0.11521197007481297,0.03061197031854339,
0.11526184538653367,0.05291289328766681,
0.11531172069825436,0.021208997071860476,
0.11536159600997506,0.024147999238126255,
0.11541147132169575,-0.0034643356235563166,
0.11546134663341646,0.02754340514270257,
0.11551122194513716,0.009549557501728676,
0.11556109725685786,0.02258211645819561,
0.11561097256857855,0.03845763248539858,
0.11566084788029925,0.0074540503367893085,
0.11571072319201996,0.019986715942920386,
0.11576059850374065,0.020821669470668037,
0.11581047381546135,0.039351134202416066,
0.11586034912718204,0.03684286500772072,
0.11591022443890274,0.03080895827131629,
0.11596009975062344,-0.00802158619238745,
0.11600997506234415,0.01849016359714522,
0.11605985037406484,0.004674382832493088,
0.11610972568578554,0.010207230092321279,
0.11615960099750623,-0.00981180395453942,
0.11620947630922693,0.02309490472298711,
0.11625935162094764,0.03390478514479215,
0.11630922693266833,0.009281890226784937,
0.11635910224438903,0.014982060691166213,
0.11640897755610972,0.027430961358223954,
0.11645885286783042,0.00762044116025238,
0.11650872817955112,0.007257927203774973,
0.11655860349127183,0.015057904987492737,
0.11660847880299252,0.0015970245209505681,
0.11665835411471322,0.008949800867418376,
0.11670822942643391,0.016301948805132038,
0.11675810473815461,0.014040206801773982,
0.11680798004987532,-0.0009580003261858271,
0.11685785536159601,0.0099629390689452,
0.11690773067331671,0.026478979438093644,
0.1169576059850374,0.01126141860042531,
0.1170074812967581,0.0045345820146530606,
0.1170573566084788,0.03389963132581417,
0.1171072319201995,0.00407645616298121,
0.1171571072319202,0.004816103090878902,
0.1172069825436409,0.0029577963640991505,
0.1172568578553616,0.0005174366184413238,
0.11730673316708229,-0.004052720150228052,
0.117356608478803,0.014755331103180476,
0.1174064837905237,-0.008706856391977666,
0.11745635910224439,0.007634660677018682,
0.11750623441396509,-0.006178236170962721,
0.11755610972568578,-0.030173738236613963,
0.11760598503740648,0.029500333158396123,
0.11765586034912719,-0.0008634163279213547,
0.11770573566084788,-0.016321758433093383,
0.11775561097256858,-0.0012354695722612227,
0.11780548628428927,-0.008739324857407986,
0.11785536159600997,-0.004842047849780554,
0.11790523690773068,-0.021390060761469994,
0.11795511221945137,0.0018577540608746095,
0.11800498753117207,0.02750962902844536,
0.11805486284289277,-0.022547758445103205,
0.11810473815461346,-0.006684670537964376,
0.11815461346633417,-0.012165838654358042,
0.11820448877805487,-0.010995527606216011,
0.11825436408977556,-0.009508006422820571,
0.11830423940149626,0.02266544933404097,
0.11835411471321695,-0.005000143537159814,
0.11840399002493765,0.005646129516909675,
0.11845386533665836,-0.0038428728275887,
0.11850374064837906,-0.004575628638934342,
0.11855361596009975,0.0033830309520489245,
0.11860349127182045,0.008577754454805398,
0.11865336658354114,-0.004121444494128722,
0.11870324189526185,0.0257210394373399,
0.11875311720698255,-0.005500728409545071,
0.11880299251870324,-0.015530604533656966,
0.11885286783042394,-0.014772489295923187,
0.11890274314214463,-0.003760612549785211,
0.11895261845386533,0.00511398437396161,
0.11900249376558604,-0.020755094746264732,
0.11905236907730674,-0.013629899360595882,
0.11910224438902743,0.006621730096475301,
0.11915211970074813,-0.04153514906716739,
0.11920199501246882,-0.004268398456513695,
0.11925187032418953,0.025436030186112298,
0.11930174563591023,-0.005690058294983554,
0.11935162094763092,-0.007328665779537052,
0.11940149625935162,-0.001233788730608241,
0.11945137157107232,-0.013968995608844875,
0.11950124688279301,-0.03608805670255552,
0.11955112219451372,0.00430051474747381,
0.11960099750623442,0.0021172006099323213,
0.11965087281795511,-0.021692357198982534,
0.11970074812967581,-0.013294055447104009,
0.1197506234413965,0.022774420456130477,
0.11980049875311721,0.02095692698825157,
0.11985037406483791,-0.008564570072398118,
0.1199002493765586,-0.028197492352002702,
0.1199501246882793,0.016506538226756823,
0.12,-0.01758793394469684,
0.1200498753117207,-0.009814453662147856,
0.1200997506234414,-0.013044607187131147,
0.1201496259351621,-0.008332121514687896,
0.12019950124688279,-0.007102795331340075,
0.12024937655860349,-0.010908935229934214,
0.12029925187032418,-0.004447836498988004,
0.1203491271820449,-0.02262726452366203,
0.12039900249376559,-5.6400496320106394e-05,
0.12044887780548628,0.010335398091344955,
0.12049875311720698,-0.016151445001375258,
0.12054862842892768,-0.009990213035520253,
0.12059850374064839,0.005811964912037655,
0.12064837905236908,0.007781789118987999,
0.12069825436408978,-0.03218049479781727,
0.12074812967581047,-0.019716882290514437,
0.12079800498753117,0.0060618188334503,
0.12084788029925186,-0.01571207610515999,
0.12089775561097257,-0.019102059198477263,
0.12094763092269327,-0.0016410585196529413,
0.12099750623441397,-0.010517347455439004,
0.12104738154613466,-0.03577327461041446,
0.12109725685785536,-0.0032456278251722917,
0.12114713216957607,-0.025231498260425644,
0.12119700748129676,-0.0016868521646355022,
0.12124688279301746,0.005838712296497595,
0.12129675810473815,0.013596457489878337,
0.12134663341645885,-0.030164577638911824,
0.12139650872817954,-0.008087157004796033,
0.12144638403990025,-0.010749383635814718,
0.12149625935162095,-0.005613000308084852,
0.12154613466334165,-0.010643368440966784,
0.12159600997506234,0.0017768595576075283,
0.12164588528678304,-0.016882702217769035,
0.12169576059850375,-0.019266088068404123,
0.12174563591022444,-0.0028447230722894734,
0.12179551122194514,-0.011270216312865039,
0.12184538653366583,-0.013520067063118878,
0.12189526184538653,-0.011336272834965928,
0.12194513715710723,-0.019978613231755996,
0.12199501246882793,-0.020094246687958815,
0.12204488778054863,0.0006808085648645594,
0.12209476309226933,-0.024652356981795593,
0.12214463840399002,-0.020144030395009598,
0.12219451371571072,-0.026728098594873836,
0.12224438902743143,0.0009613116198317895,
0.12229426433915212,-0.004770397937717921,
0.12234413965087282,-0.020697611986242887,
0.12239401496259351,-0.0033496085894124733,
0.12244389027431421,0.011103391110807766,
0.12249376558603492,-0.00495688201924006,
0.12254364089775562,-0.013097059182805487,
0.12259351620947631,-0.011430225875798478,
0.122643391521197,0.005437595030154334,
0.1226932668329177,-0.020546820193834577,
0.1227431421446384,-0.026724060556493928,
0.12279301745635911,0.008239564019349277,
0.1228428927680798,-0.004433180092591305,
0.1228927680798005,-0.021386124087201364,
0.1229426433915212,0.024393051893330745,
0.12299251870324189,-0.020481881355923503,
0.1230423940149626,-0.009293014005792312,
0.1230922693266833,-1.676458815096267e-05,
0.12314214463840399,-0.008905678634592155,
0.12319201995012469,-0.0259965051938967,
0.12324189526184538,-0.0034609510702513493,
0.12329177057356608,-0.01487900634778115,
0.12334164588528679,-0.018781609365522575,
0.12339152119700748,0.00038418204376166123,
0.12344139650872818,-0.014028061218785288,
0.12349127182044888,-0.047840445510489486,
0.12354114713216957,-0.018097095207376318,
0.12359102244389028,0.004505868109790477,
0.12364089775561098,-0.02730876850699178,
0.12369077306733167,-0.044302567996034325,
0.12374064837905237,-0.011390365620722865,
0.12379052369077306,-0.0024485837816126616,
0.12384039900249376,0.0073474316831896765,
0.12389027431421447,0.0077733419850008235,
0.12394014962593516,-0.0009117365016913593,
0.12399002493765586,0.031621869466085,
0.12403990024937656,0.019875561078971524,
0.12408977556109725,-0.025131852619735266,
0.12413965087281796,-0.0012384430959271608,
0.12418952618453866,0.016956926869592544,
0.12423940149625935,0.0034602871622533473,
0.12428927680798005,-0.009175265364735414,
0.12433915211970074,-0.002639075364412569,
0.12438902743142144,-0.008016026809235258,
0.12443890274314215,-0.012207279804122484,
0.12448877805486284,0.00105465756110991,
0.12453865336658354,-0.029247767458365964,
0.12458852867830424,-0.03797491743566191,
0.12463840399002493,-0.004565786852634205,
0.12468827930174564,-0.006321334399317085,
0.12473815461346634,-0.015295224509064351,
0.12478802992518703,-0.009135028181869564,
0.12483790523690773,-0.006261732400110907,
0.12488778054862842,0.012788105010607348,
0.12493765586034913,-0.000639886048206868,
0.12498753117206983,0.002429480348547961,
0.12503740648379053,-0.0009021381899964279,
0.12508728179551123,-0.01981235424870667,
0.12513715710723192,0.02734278595993793,
0.12518703241895263,0.020278522369734032,
0.1252369077306733,0.004123894036212867,
0.12528678304239402,-0.01151910327095692,
0.1253366583541147,0.0028964237170080076,
0.1253865336658354,0.010550999667855348,
0.12543640897755612,-0.011863560278876238,
0.1254862842892768,0.00901333336482528,
0.1255361596009975,-0.019066513810695955,
0.1255860349127182,-0.012461113232194999,
0.1256359102244389,3.823649826465228e-05,
0.1256857855361596,0.00091726312945117,
0.1257356608478803,0.0070380964166180116,
0.125785536159601,0.003477098405110374,
0.12583541147132168,0.01752501983561852,
0.1258852867830424,0.0024426354699372717,
0.1259351620947631,0.019580138248809983,
0.12598503740648379,0.01361761413293299,
0.1260349127182045,0.01759738950654598,
0.12608478802992518,0.009216979042942117,
0.1261346633416459,-0.027512434568916576,
0.1261845386533666,0.030281534321098966,
0.12623441396508728,0.02093143680367062,
0.126284289276808,0.017233121221816052,
0.12633416458852867,0.0015989590039484983,
0.12638403990024938,0.024874948429399912,
0.1264339152119701,-0.002714694005887506,
0.12648379052369077,-0.0043531580380803195,
0.12653366583541148,0.006623120643700582,
0.12658354114713216,0.008594545380696008,
0.12663341645885287,0.0238703983746553,
0.12668329177057355,0.001268447972609144,
0.12673316708229426,0.0003744870873035964,
0.12678304239401497,0.025713086851347114,
0.12683291770573565,0.0020434492032027404,
0.12688279301745636,0.0044573263514718475,
0.12693266832917705,0.0392795339474783,
0.12698254364089775,0.021122379131887806,
0.12703241895261846,0.024977044016280335,
0.12708229426433915,0.027823756802367695,
0.12713216957605986,0.006500448636124658,
0.12718204488778054,0.04273677129871086,
0.12723192019950125,0.00998593749468741,
0.12728179551122196,0.026199103695744706,
0.12733167082294264,0.0029392999013252118,
0.12738154613466335,0.004938296939386027,
0.12743142144638403,0.0192016065554014,
0.12748129675810474,0.015656871428716246,
0.12753117206982545,0.01593101747267085,
0.12758104738154613,0.0006455962700601166,
0.12763092269326684,0.008077034189416774,
0.12768079800498752,-0.006539067301809923,
0.12773067331670823,0.00032810394158650814,
0.1277805486284289,0.012095072744697986,
0.12783042394014962,0.029808482427150906,
0.12788029925187033,0.0021796901559538572,
0.12793017456359101,0.04655296701945421,
0.12798004987531172,0.024099351180300536,
0.1280299251870324,0.02177464782523877,
0.12807980049875312,0.030605638547622636,
0.12812967581047383,0.009260064278711056,
0.1281795511221945,-0.005675578315595727,
0.12822942643391522,0.023921423289241735,
0.1282793017456359,0.015937234851506665,
0.1283291770573566,0.009283511013953643,
0.12837905236907732,0.014636197755581618,
0.128428927680798,0.029109756870153908,
0.1284788029925187,0.01271923079205942,
0.1285286783042394,0.014550628637628585,
0.1285785536159601,0.023361769785424386,
0.1286284289276808,0.049550198434947804,
0.1286783042394015,0.020928671145191154,
0.1287281795511222,0.01348744184076055,
0.12877805486284288,-0.010112588168971197,
0.1288279301745636,0.01913460454240721,
0.1288778054862843,0.003997076618394234,
0.12892768079800498,0.032057969383128264,
0.1289775561097257,0.03464204729379096,
0.12902743142144638,0.02947034477939198,
0.12907730673316709,0.030440064016963746,
0.12912718204488777,0.014013345702316497,
0.12917705735660848,0.020801586233026033,
0.1292269326683292,0.029950904751971232,
0.12927680798004987,0.045046477636393786,
0.12932668329177058,0.012901474356257268,
0.12937655860349126,0.02421002476938276,
0.12942643391521197,0.004975470756189152,
0.12947630922693268,0.024491424101908812,
0.12952618453865336,0.03833923229681936,
0.12957605985037407,0.0018681886352002047,
0.12962593516209475,0.03750991365004637,
0.12967581047381546,0.0232746735016423,
0.12972568578553617,0.034760335416219854,
0.12977556109725685,0.020638677737069986,
0.12982543640897756,-0.0038818694535549918,
0.12987531172069824,0.05130502770959465,
0.12992518703241895,0.056867646889688594,
0.12997506234413966,0.02257098800060809,
0.13002493765586035,0.030102395289522542,
0.13007481296758105,0.04998430859451818,
0.13012468827930174,0.0424181270867798,
0.13017456359102245,0.060725365485886806,
0.13022443890274316,0.03851217550938384,
0.13027431421446384,0.0396948443466405,
0.13032418952618455,0.02368484711438737,
0.13037406483790523,0.020148570476180495,
0.13042394014962594,0.01691948098970941,
0.13047381546134662,0.02243816469542522,
0.13052369077306733,0.006559366374436666,
0.13057356608478804,0.04413008870935666,
0.13062344139650872,0.03883711571469359,
0.13067331670822943,0.01586022383889712,
0.1307231920199501,0.009125413237535022,
0.13077306733167082,0.0025571815927052516,
0.13082294264339153,0.027092055091054095,
0.13087281795511221,0.03340605509644324,
0.13092269326683292,0.041840724411775054,
0.1309725685785536,0.024339163906734452,
0.13102244389027431,0.011117584904184998,
0.13107231920199502,0.038239240839053924,
0.1311221945137157,0.012146940179744048,
0.13117206982543642,0.03306083937900456,
0.1312219451371571,0.023876274269610774,
0.1312718204488778,0.04149359554207073,
0.13132169576059852,0.0349961476490136,
0.1313715710723192,0.043319791029134774,
0.1314214463840399,0.029805905475635167,
0.1314713216957606,0.014422372404358277,
0.1315211970074813,0.05936145771782347,
0.13157107231920198,0.04894499093451509,
0.1316209476309227,0.018289164414309826,
0.1316708229426434,0.06561683841131435,
0.13172069825436408,0.025455857650546684,
0.1317705735660848,0.05046459442289783,
0.13182044887780547,0.023014129160987922,
0.13187032418952618,0.044343542629187195,
0.1319201995012469,0.06197285979451369,
0.13197007481296757,0.025416389628112983,
0.13201995012468828,0.020664709236918245,
0.13206982543640897,0.047000135320706724,
0.13211970074812968,0.047623251735710734,
0.13216957605985039,0.03328144428473012,
0.13221945137157107,0.016695565066975684,
0.13226932668329178,0.02056085531057117,
0.13231920199501246,0.05568283738223869,
0.13236907730673317,0.05496832890169315,
0.13241895261845388,0.0649243223752678,
0.13246882793017456,0.012228093031033647,
0.13251870324189527,0.016869578925656104,
0.13256857855361595,0.02464449629974896,
0.13261845386533666,0.008666161626007172,
0.13266832917705737,0.028789471695990228,
0.13271820448877805,0.04276246230992478,
0.13276807980049876,0.02408113742528583,
0.13281795511221944,0.025845566505494168,
0.13286783042394015,0.03859281230329048,
0.13291770573566083,0.023797879308760025,
0.13296758104738154,-0.011928538118008591,
0.13301745635910225,0.03849238769597561,
0.13306733167082294,0.05033778166198297,
0.13311720698254365,0.01524829149983396,
0.13316708229426433,0.027474591381222577,
0.13321695760598504,0.03273524502890268,
0.13326683291770575,0.011824742221394974,
0.13331670822942643,0.0438242902717195,
0.13336658354114714,0.0414938938418122,
0.13341645885286782,0.03856534027798086,
0.13346633416458853,0.021491215362934156,
0.13351620947630924,0.03876542652592893,
0.13356608478802992,0.032431089787421034,
0.13361596009975063,0.026826219935898666,
0.1336658354114713,0.021840883856505122,
0.13371571072319202,0.042922220332576394,
0.13376558603491273,0.02098254941521721,
0.1338154613466334,0.029190707829144194,
0.13386533665835412,0.018197446369534406,
0.1339152119700748,0.054678856471104445,
0.13396508728179551,0.024420771455297217,
0.1340149625935162,0.020579487759371115,
0.1340648379052369,0.01586156981113586,
0.13411471321695762,0.019214997423616795,
0.1341645885286783,-0.0018459895354396363,
0.134214463840399,0.05432386436426263,
0.1342643391521197,0.03402679518812584,
0.1343142144638404,0.028012580581259328,
0.1343640897755611,0.016292978655300414,
0.1344139650872818,0.01921664429921546,
0.1344638403990025,0.024185991299580007,
0.13451371571072318,0.04415359243320919,
0.1345635910224439,0.01938705050639821,
0.1346134663341646,-0.0033988735243803726,
0.13466334164588528,0.012584136172776816,
0.134713216957606,0.02978296822825295,
0.13476309226932667,0.01779977255177604,
0.13481296758104738,0.00993245587247633,
0.1348628428927681,0.04888213335712435,
0.13491271820448877,0.02576053103750591,
0.13496259351620948,0.03836912382314042,
0.13501246882793017,0.01718740464661927,
0.13506234413965088,0.012768781615153622,
0.13511221945137158,0.024109847301331328,
0.13516209476309227,0.003437779900818963,
0.13521197007481298,0.0368124437558489,
0.13526184538653366,-0.0042735683845717826,
0.13531172069825437,0.02147299180854875,
0.13536159600997505,0.006670164574701973,
0.13541147132169576,0.014049321233603461,
0.13546134663341647,0.03076141229616617,
0.13551122194513715,0.006317341101726817,
0.13556109725685786,0.04159544612814796,
0.13561097256857854,-0.002053212228610924,
0.13566084788029925,0.015093946005060173,
0.13571072319201996,0.03569154711398402,
0.13576059850374064,-0.0028737489766569486,
0.13581047381546135,-0.004469154161850574,
0.13586034912718203,0.028256552613556855,
0.13591022443890274,0.02973236852995842,
0.13596009975062345,0.0020489524007791735,
0.13600997506234414,0.03607711432945514,
0.13605985037406484,0.02086655434029054,
0.13610972568578553,0.008272865891316795,
0.13615960099750624,0.03412139808436196,
0.13620947630922695,0.014024397568431496,
0.13625935162094763,0.003646818744217826,
0.13630922693266834,0.0032594474217309682,
0.13635910224438902,0.007609501188724358,
0.13640897755610973,0.0150582884434971,
0.1364588528678304,0.0025232590681262303,
0.13650872817955112,0.014767666044008521,
0.13655860349127183,0.025795266077692107,
0.1366084788029925,-0.005026357556957508,
0.13665835411471322,0.015171415845242375,
0.1367082294264339,0.004162684242403684,
0.1367581047381546,-0.016340942991229575,
0.13680798004987532,0.010705928200560403,
0.136857855361596,0.00494273954140374,
0.1369077306733167,-0.006192321356163636,
0.1369576059850374,-0.008542155837419935,
0.1370074812967581,0.023381389153117535,
0.13705735660847881,-0.0054800801864131644,
0.1371072319201995,-0.0027676841453957,
0.1371571072319202,0.020566079003465958,
0.1372069825436409,-0.002853685286614097,
0.1372568578553616,0.0198666135841161,
0.1373067331670823,0.009208376959574886,
0.137356608478803,-0.008743703403862907,
0.1374064837905237,0.0063046473267915236,
0.13745635910224438,-0.006254484748675902,
0.1375062344139651,0.04520536403776062,
0.1375561097256858,0.011284908134089505,
0.13760598503740648,-0.007272432661649656,
0.1376558603491272,-0.020946669584418865,
0.13770573566084787,0.02638960901554926,
0.13775561097256858,-0.00412612096626444,
0.13780548628428926,-0.0020032724815840152,
0.13785536159600997,0.011103738752955793,
0.13790523690773068,0.024321008344654494,
0.13795511221945136,0.000990134515298936,
0.13800498753117207,-0.0016813316516752714,
0.13805486284289276,0.019552903154723134,
0.13810473815461347,0.014167121752203181,
0.13815461346633418,0.008416451819924817,
0.13820448877805486,-0.01246402605581773,
0.13825436408977557,-0.03358817427397103,
0.13830423940149625,-0.008851787317562679,
0.13835411471321696,-0.00848122728207343,
0.13840399002493767,-0.012467609379196753,
0.13845386533665835,-0.0057259223930030715,
0.13850374064837906,-0.013582468745745913,
0.13855361596009974,0.0014448082116160703,
0.13860349127182045,0.007831573644201579,
0.13865336658354116,-0.009763570190502757,
0.13870324189526184,0.0012369024364940642,
0.13875311720698255,0.019352468682700654,
0.13880299251870323,0.007619328090446801,
0.13885286783042394,0.009720690143384324,
0.13890274314214462,-0.02500991597775881,
0.13895261845386533,-0.02835664890944932,
0.13900249376558604,-0.0006057768559327163,
0.13905236907730673,-0.0003282293187248796,
0.13910224438902744,-0.006121724374471384,
0.13915211970074812,-0.0023080327192534834,
0.13920199501246883,-0.00223880049019484,
0.13925187032418954,0.020891760414009204,
0.13930174563591022,-0.0072337478498233215,
0.13935162094763093,0.019297641570343773,
0.1394014962593516,-0.011051614439300018,
0.13945137157107232,-0.01564138483403577,
0.13950124688279303,-0.03469171485579612,
0.1395511221945137,-0.025577498215822024,
0.13960099750623442,-0.04237103168664222,
0.1396508728179551,-0.0005731303904193998,
0.1397007481296758,0.007153061062645655,
0.13975062344139652,-0.009493990394268289,
0.1398004987531172,0.0002043621172211985,
0.1398503740648379,0.002156335596584992,
0.1399002493765586,-0.00846966944976295,
0.1399501246882793,0.016845845465478973,
0.14,-0.020959788219113634,
0.1400498753117207,-0.04508059884793055,
0.1400997506234414,-9.01040961741751e-06,
0.1401496259351621,0.007341219889493936,
0.1401995012468828,0.010111600431516482,
0.14024937655860348,-0.03245975859897826,
0.1402992518703242,-0.0021093599740788557,
0.1403491271820449,-0.01121494853127255,
0.14039900249376558,-0.024038053048086722,
0.1404488778054863,-0.0076207543582298,
0.14049875311720697,-0.02204613036282893,
0.14054862842892768,-0.00860952674831765,
0.1405985037406484,-0.012136067378565098,
0.14064837905236907,0.007529392717601032,
0.14069825436408978,-0.03428357626615339,
0.14074812967581046,-0.0071428407365179535,
0.14079800498753117,-0.012553959922181373,
0.14084788029925188,-0.0030524979090449387,
0.14089775561097256,-0.004191624414147733,
0.14094763092269327,-0.00384257851465646,
0.14099750623441396,0.016715488061622864,
0.14104738154613466,-0.0051070216419861585,
0.14109725685785537,-0.02397780691878333,
0.14114713216957606,0.021021143489803183,
0.14119700748129677,0.022687046891998217,
0.14124688279301745,0.00038100396586872136,
