time,amplitude,label
0.0,0.02264042631654821,
4.987531172069826e-05,0.0007208684421281721,
9.975062344139652e-05,-0.008672833555641527,
0.00014962593516209475,0.03638422277993844,
0.00019950124688279303,0.029441192522862595,
0.00024937655860349125,0.003822936593932149,
0.0002992518703241895,-0.013257900891791258,
0.00034912718204488776,0.039397267176034104,
0.00039900249376558606,0.01152565711057879,
0.0004488778054862843,0.005265999761117548,
0.0004987531172069825,0.003255288442345239,
0.0005486284289276808,0.026993534232452213,
0.000598503740648379,0.03997073416780613,
0.0006483790523690773,0.009281044525675994,
0.0006982543640897755,0.01340760526183605,
0.0007481296758104738,-0.015354079357207546,
0.0007980049875311721,-0.010517501152174133,
0.0008478802992518703,0.005733043831399254,
0.0008977556109725686,0.02641205272328755,
0.0009476309226932668,-0.002971617749354113,
0.000997506234413965,0.034014224790094444,
0.0010473815461346633,0.01620965428330046,
0.0010972568578553616,0.0009830813524736772,
0.00114713216957606,0.007681803360495086,
0.001197007481296758,0.020351807515755452,
0.0012468827930174563,0.028467790340468452,
0.0012967581047381546,-0.015650186228574822,
0.001346633416458853,0.021923124537879975,
0.001396508728179551,-0.012540060635381458,
0.0014463840399002493,0.01809968803239622,
0.0014962593516209476,0.007118100618913905,
0.001546134663341646,-0.014085557105527632,
0.0015960099750623442,0.035430441854276865,
0.0016458852867830423,0.014452278665120409,
0.0016957605985037406,-8.432053175998211e-05,
0.001745635910224439,-0.016626022705786538,
0.0017955112219451373,0.008018655152109462,
0.0018453865336658353,0.01181545306546555,
0.0018952618453865336,-0.016622212074808206,
0.001945137157107232,0.008335001909091077,
0.00199501246882793,0.0051003302946107994,
0.0020448877805486283,-0.020589745702361044,
0.0020947630922693266,0.0186294535043919,
0.002144638403990025,0.003859171275531154,
0.0021945137157107233,0.020746192424258396,
0.0022443890274314216,0.02951711161483811,
0.00229426433915212,-0.01100118584902843,
0.0023441396508728177,0.009624419414524146,
0.002394014962593516,0.030974038503190672,
0.0024438902743142144,0.01007964858894309,
0.0024937655860349127,0.005190073470118656,
0.002543640897755611,0.011232410363027027,
0.0025935162094763093,0.007277050977475739,
0.0026433915211970076,-0.027058260070247135,
0.002693266832917706,0.011068481493267236,
0.002743142144638404,0.009332461880905439,
0.002793017456359102,0.007722677966142814,
0.0028428927680798004,-0.007948684462629356,
0.0028927680798004987,-0.013146241251423389,
0.002942643391521197,-0.00354993844287468,
0.0029925187032418953,-0.00675604428166723,
0.0030423940149625936,-0.02814257237256415,
0.003092269326683292,0.021502297837786084,
0.00314214463840399,0.018905396190560093,
0.0031920199501246885,-0.0045044918955865635,
0.0032418952618453864,-0.015282645262932272,
0.0032917705735660847,0.017594887010656743,
0.003341645885286783,-0.003824384322939898,
0.0033915211970074813,0.009762048270828525,
0.0034413965087281796,-0.0037141909486696125,
0.003491271820448878,0.005267157052809741,
0.003541147132169576,-0.024288394538889715,
0.0035910224438902745,0.0005980356774949805,
0.0036408977556109724,-0.01208518098992497,
0.0036907730673316707,-0.015536121652674168,
0.003740648379052369,0.004388126467125471,
0.0037905236907730673,-0.009446295242960073,
0.0038403990024937656,0.004288628098496053,
0.003890274314214464,0.001037995911299044,
0.003940149625935162,0.019716685137659777,
0.00399002493765586,-0.02373724103979153,
0.004039900249376558,-0.015928955978742283,
0.004089775561097257,-0.014958304187440217,
0.004139650872817955,-0.025330555169838776,
0.004189526184538653,0.0030410014831626433,
0.004239401496259352,0.007797942640662599,
0.00428927680798005,0.012326331467522357,
0.004339152119700748,-0.01675971883414616,
0.0043890274314214465,-0.02854690886781209,
0.004438902743142145,0.007912079826918132,
0.004488778054862843,-0.027638454169919738,
0.004538653366583541,0.002970861626177492,
0.00458852867830424,-0.004341299589869721,
0.004638403990024938,-0.02995985995217173,
0.0046882793017456355,-0.020402867454617068,
0.004738154613466334,-0.0005672693461556272,
0.004788029925187032,-0.029825693257639785,
0.00483790523690773,-0.03321573646091582,
0.004887780548628429,-0.004740145592446023,
0.004937655860349127,-0.01376314764383281,
0.004987531172069825,-0.056667495470719656,
0.005037406483790524,0.03390893836526776,
0.005087281795511222,-0.011888744925356005,
0.00513715710723192,-0.02719479251002855,
0.0051870324189526185,-0.028132979670039342,
0.005236907730673317,-0.009890818359835421,
0.005286783042394015,-0.00402652097734566,
0.0053366583541147134,-0.02409336415976801,
0.005386533665835412,-0.006650815615583451,
0.00543640897755611,-0.012799772308881607,
0.005486284289276808,-0.013009103180808754,
0.005536159600997507,-0.022485963953790038,
0.005586034912718204,-0.013537111580078786,
0.005635910224438902,-0.002960288929445526,
0.005685785536159601,-0.019860041304271256,
0.005735660847880299,-0.00864076109044035,
0.005785536159600997,-0.012638015231689977,
0.005835411471321696,-0.009954263851381904,
0.005885286783042394,-0.030990521767196307,
0.005935162094763092,-0.013936784442045727,
0.0059850374064837905,-0.03493863279606703,
0.006034912718204489,-0.012854574363825345,
0.006084788029925187,-0.04464385650134121,
0.0061346633416458855,0.017233195804825636,
0.006184538653366584,-0.035971319917199165,
0.006234413965087282,-0.006189456379113374,
0.00628428927680798,-0.028393352330805352,
0.006334164588528679,-0.01905590816804922,
0.006384039900249377,0.0005585644528461019,
0.006433915211970074,-0.004570272213353498,
0.006483790523690773,-0.05144314556232676,
0.006533665835411471,-0.027329671673051288,
0.006583541147132169,-0.01297878118188353,
0.006633416458852868,-0.01850233886832317,
0.006683291770573566,-0.001295564634794917,
0.006733167082294264,-0.023133412873924748,
0.0067830423940149626,-0.0283850822381181,
0.006832917705735661,-0.01030720375011997,
0.006882793017456359,-0.004139326959392361,
0.0069326683291770575,-0.026314419240658138,
0.006982543640897756,0.0087826447655667,
0.007032418952618454,-0.023983552644783725,
0.007082294264339152,0.0018056364141247824,
0.007132169576059851,-0.010587661621781326,
0.007182044887780549,-0.0009051625364733529,
0.007231920199501247,-0.0062513810496913555,
0.007281795511221945,-0.008575886011481388,
0.007331670822942643,-0.010109357122672658,
0.007381546134663341,-0.03435794608655427,
0.00743142144638404,-0.030230204733382157,
0.007481296758104738,-0.012802781887810557,
0.007531172069825436,-0.028599740590249,
0.007581047381546135,-0.010243156352559457,
0.007630922693266833,-0.0005829493082812713,
0.007680798004987531,-0.027981944377780555,
0.0077306733167082295,-0.022760841029472855,
0.007780548628428928,-0.01635123205359178,
0.007830423940149626,-0.017050306899478927,
0.007880299251870324,-0.009854983049361936,
0.007930174563591023,0.013868352718364944,
0.00798004987531172,-0.03443742674094221,
0.00802992518703242,-0.00793952809697942,
0.008079800498753117,0.012216592404313775,
0.008129675810473816,-0.022308763239922758,
0.008179551122194513,0.021111741125800793,
0.008229426433915213,-0.010145522968969384,
0.00827930174563591,-0.02293637832316698,
0.00832917705735661,0.00594237589019456,
0.008379052369077307,-0.04486882193389531,
0.008428927680798006,-0.013121040120473194,
0.008478802992518703,-0.028717145253056013,
0.0085286783042394,-0.028573121590646837,
0.0085785536159601,-0.009687668361189318,
0.008628428927680797,-0.0033907116059896467,
0.008678304239401496,-0.012820266472982856,
0.008728179551122194,-0.02590973343767591,
0.008778054862842893,-0.015982852673890675,
0.00882793017456359,-0.016375441966700814,
0.00887780548628429,-0.03296143703652509,
0.008927680798004987,-0.019506396962257488,
0.008977556109725686,-0.025370356579589474,
0.009027431421446384,-0.027331496460805363,
0.009077306733167083,-0.003294352346857439,
0.00912718204488778,-0.015681373352968334,
0.00917705735660848,-0.03319455811027655,
0.009226932668329177,-0.0460354226592047,
0.009276807980049876,-0.014491253437531663,
0.009326683291770574,-0.018190303186240098,
0.009376558603491271,-0.055844531544525906,
0.00942643391521197,-0.0008538734806474886,
0.009476309226932668,0.010324797285036453,
0.009526184538653367,-0.031974165683788684,
0.009576059850374064,-0.008095691766744132,
0.009625935162094763,-0.025380222766811303,
0.00967581047381546,-0.0032900676833199187,
0.00972568578553616,0.008538957257371832,
0.009775561097256857,-0.004132235135781259,
0.009825436408977557,-0.024398841194677848,
0.009875311720698254,-0.022599818776586476,
0.009925187032418953,-0.031555049523941114,
0.00997506234413965,-0.04920663669029561,
0.01002493765586035,-0.004732159219064022,
0.010074812967581047,0.005153671042770645,
0.010124688279301746,-0.002324977762161007,
0.010174563591022444,-0.01540704110929681,
0.010224438902743141,-0.03815981285181667,
0.01027431421446384,-0.0018617634798759747,
0.010324189526184538,-0.0373795498205889,
0.010374064837905237,0.026220680554292095,
0.010423940149625935,-0.017618903341298335,
0.010473815461346634,-0.025446743880677504,
0.010523690773067331,-0.014896415963747458,
0.01057356608478803,-0.024958095107776797,
0.010623441396508728,-0.027180739422505464,
0.010673316708229427,0.003299362557239352,
0.010723192019950124,-0.022939146710959667,
0.010773067331670824,-0.010470627334448321,
0.010822942643391521,-0.01457589053475666,
0.01087281795511222,-0.0003993259359160728,
0.010922693266832918,0.0006279353445044888,
0.010972568578553617,0.002230335483513632,
0.011022443890274314,0.003155612883014209,
0.011072319201995013,-0.020193826899953707,
0.01112219451371571,-0.00387424879098768,
0.011172069825436408,-0.01238240693316101,
0.011221945137157107,-0.022963220888546933,
0.011271820448877805,-0.013618489227085615,
0.011321695760598504,-0.012564889930354884,
0.011371571072319201,-0.018502616231790166,
0.0114214463840399,-0.021406916419407753,
0.011471321695760598,0.01354776470071368,
0.011521197007481297,-0.005776178915719673,
0.011571072319201995,-0.004948468671155719,
0.011620947630922694,0.0003504272737563964,
0.011670822942643391,0.011933261274753155,
0.01172069825436409,-0.007138236022956499,
0.011770573566084788,0.001113426995324543,
0.011820448877805487,-0.0164092547464872,
0.011870324189526184,0.007502977003573237,
0.011920199501246884,-0.016248469358079845,
0.011970074812967581,0.004451913933755242,
0.012019950124688279,0.020904236836087647,
0.012069825436408978,-0.008113084637312702,
0.012119700748129675,-0.018669196896532597,
0.012169576059850374,-0.005245466044374208,
0.012219451371571072,-6.242553601654589e-05,
0.012269326683291771,0.019351352663678118,
0.012319201995012468,-0.01630654887058719,
0.012369077306733168,0.00466485121462839,
0.012418952618453865,0.01960779216678494,
0.012468827930174564,-0.05147741422511698,
0.012518703241895262,0.0019002306720768006,
0.01256857855361596,-0.00260225460429486,
0.012618453865336658,-0.007187239688831141,
0.012668329177057357,-0.016749266897264577,
0.012718204488778055,-0.008741300456942375,
0.012768079800498754,0.01037945127854903,
0.012817955112219451,0.0021587945972355717,
0.012867830423940149,-0.009543158068430278,
0.012917705735660848,-0.003229333886980502,
0.012967581047381545,0.008683283293911898,
0.013017456359102245,-0.028468550356461345,
0.013067331670822942,-0.007352212226231182,
0.013117206982543641,-0.031044919539991785,
0.013167082294264339,-0.005672015633193779,
0.013216957605985038,0.01386167956810633,
0.013266832917705735,0.004316216742968386,
0.013316708229426434,-0.012067745390477393,
0.013366583541147132,-0.007502526074602222,
0.013416458852867831,0.01657784654081368,
0.013466334164588529,0.005853696545205348,
0.013516209476309228,-0.01808104934996572,
0.013566084788029925,0.008554616592931316,
0.013615960099750624,0.009401514420422639,
0.013665835411471322,-0.003908870664010388,
0.01371571072319202,0.016163506536392484,
0.013765586034912718,0.01716876410541002,
0.013815461346633416,-0.02345202014522004,
0.013865336658354115,0.024192409050820585,
0.013915211970074812,0.000991666302486328,
0.013965087281795512,0.0004520251981676403,
0.014014962593516209,0.00833756495485877,
0.014064837905236908,0.004147394058899695,
0.014114713216957606,0.006020051028836942,
0.014164588528678305,-0.006528983490894367,
0.014214463840399002,0.038765808864454916,
0.014264339152119701,0.0018172095015806262,
0.014314214463840399,-0.003138843793760034,
0.014364089775561098,0.01816625233577992,
0.014413965087281795,0.005669124240484791,
0.014463840399002495,-0.0057356898075374245,
0.014513715710723192,0.019751630660712054,
0.01456359102244389,0.011674310115712707,
0.014613466334164589,0.02151759405542482,
0.014663341645885286,-0.007942956323801613,
0.014713216957605985,0.005040954449045539,
0.014763092269326683,-0.008568129634254193,
0.014812967581047382,0.007451422681803945,
0.01486284289276808,0.027762608825749678,
0.014912718204488778,-0.008842637081319092,
0.014962593516209476,0.03236130406570097,
0.015012468827930175,0.02674729060158524,
0.015062344139650873,0.015078423745613679,
0.015112219451371572,0.010315323340551245,
0.01516209476309227,0.0021575325804672717,
0.015211970074812968,0.00036607744062263844,
0.015261845386533666,0.02036080173024954,
0.015311720698254365,-0.011052121032369694,
0.015361596009975062,-0.008439866412309004,
0.01541147132169576,0.04441077009792578,
0.015461346633416459,0.01575958283025997,
0.015511221945137156,0.015070109063941076,
0.015561097256857856,0.04567158245647514,
0.015610972568578553,-0.013121720275667402,
0.015660847880299252,0.007278332636465039,
0.01571072319201995,0.01668260985526654,
0.015760598503740647,0.023604600466229354,
0.015810473815461346,-0.0027856460045859836,
0.015860349127182045,0.04044835571661953,
0.015910224438902745,0.011212999057202085,
0.01596009975062344,0.03300189607576094,
0.01600997506234414,-0.003198894753201488,
0.01605985037406484,-0.0005163798657930388,
0.016109725685785538,0.05451916204126625,
0.016159600997506234,0.028986347009168856,
0.016209476309226933,0.032215662396622546,
0.016259351620947632,0.008322725635851283,
0.016309226932668328,0.02979876681314637,
0.016359102244389027,0.04384033180459896,
0.016408977556109726,0.012486163780042938,
0.016458852867830425,0.009246954974293127,
0.01650872817955112,0.026348446513382678,
0.01655860349127182,-0.00886709067920622,
0.01660847880299252,0.019859849896411486,
0.01665835411471322,0.01322334910142455,
0.016708229426433914,0.04147342823980822,
0.016758104738154613,0.029735830758519863,
0.016807980049875312,0.019857751094153546,
0.01685785536159601,0.01054498148195303,
0.016907730673316707,0.03678647707397008,
0.016957605985037406,0.011258294505187002,
0.017007481296758106,0.014336434642114038,
0.0170573566084788,0.031648773611932024,
0.0171072319201995,0.03729167374285268,
0.0171571072319202,0.02589037463294936,
0.0172069825436409,0.010660419475286627,
0.017256857855361595,0.02823370918478429,
0.017306733167082294,0.027351422779456246,
0.017356608478802993,0.0072703223433860185,
0.017406483790523692,0.008294833767147259,
0.017456359102244388,0.011749004660188602,
0.017506234413965087,-0.0027340920538520275,
0.017556109725685786,0.013386538097065505,
0.017605985037406485,0.02072147946521495,
0.01765586034912718,0.03159900893654083,
0.01770573566084788,0.05762889874806104,
0.01775561097256858,0.02671635946666194,
0.01780548628428928,0.005326072034998682,
0.017855361596009974,0.04467876577252411,
0.017905236907730673,0.006040397089999556,
0.017955112219451373,0.02343742224590415,
0.018004987531172068,0.018001100183186958,
0.018054862842892767,0.013898422486131545,
0.018104738154613467,0.041438994075316676,
0.018154613466334166,0.0070851004951544595,
0.01820448877805486,0.0038015742537442013,
0.01825436408977556,0.026647366612783205,
0.01830423940149626,0.021716424573175793,
0.01835411471321696,0.03613272856147724,
0.018403990024937655,0.0129196159085383,
0.018453865336658354,0.03853690990967949,
0.018503740648379053,0.03509221437135755,
0.018553615960099752,0.015854766664667213,
0.018603491271820448,-0.003172780724766365,
0.018653366583541147,0.011976207506989309,
0.018703241895261846,-0.0011386093221360631,
0.018753117206982542,-0.005198380076732668,
0.01880299251870324,0.01945859594189619,
0.01885286783042394,0.040761117654573326,
0.01890274314214464,0.022341328445299544,
0.018952618453865335,0.017749960413471225,
0.019002493765586034,0.00558245512009144,
0.019052369077306733,0.02896134704627325,
0.019102244389027433,0.02063642470596227,
0.01915211970074813,0.01731028564596926,
0.019201995012468828,0.023180117498213578,
0.019251870324189527,0.052759654227918715,
0.019301745635910226,0.062081809423422896,
0.01935162094763092,0.022834493338440846,
0.01940149625935162,0.03479125819788734,
0.01945137157107232,0.06272869485625313,
0.01950124688279302,0.01571662762342621,
0.019551122194513715,0.02558265203777703,
0.019600997506234414,0.020043983765246347,
0.019650872817955113,0.03516039941540667,
0.01970074812967581,0.03879219447239694,
0.019750623441396508,0.016629430068932513,
0.019800498753117207,0.01716424764322502,
0.019850374064837906,0.02985907540229968,
0.019900249376558602,0.02106856955587044,
0.0199501246882793,0.01495268739035523,
0.02,0.026584785177653867,
0.0200498753117207,0.0024900560621565447,
0.020099750623441395,0.022012163149983176,
0.020149625935162094,-0.004709810183762025,
0.020199501246882794,0.01812657023354627,
0.020249376558603493,0.012563007417442658,
0.02029925187032419,0.025265654234299308,
0.020349127182044888,0.01628923919526307,
0.020399002493765587,-0.002648696014566892,
0.020448877805486283,-0.006254311209252485,
0.02049875311720698,-0.012905779235371605,
0.02054862842892768,0.013824224183660597,
0.02059850374064838,0.022382007813249352,
0.020648379052369076,0.015762975010524174,
0.020698254364089775,0.006676606174687948,
0.020748129675810474,-0.0011933383814721338,
0.020798004987531173,0.009368173471412113,
0.02084788029925187,0.005932873567605372,
0.020897755610972568,0.015098406089504083,
0.020947630922693267,0.008595078504576366,
0.020997506234413967,0.0253219788495294,
0.021047381546134662,0.011483861535048172,
0.02109725685785536,0.02045360627619723,
0.02114713216957606,0.01844729274600794,
0.02119700748129676,0.003453069380996746,
0.021246882793017455,0.007230322697419107,
0.021296758104738155,0.013094591660257933,
0.021346633416458854,0.022522606249827576,
0.02139650872817955,0.020720150307007152,
0.02144638403990025,0.01119265469251205,
0.021496259351620948,-0.017603066473503036,
0.021546134663341647,0.00639579590066929,
0.021596009975062343,-0.003500667281359485,
0.021645885286783042,0.014370933213102545,
0.02169576059850374,0.025440442158090104,
0.02174563591022444,-0.005397444782147369,
0.021795511221945136,-0.003103649800692207,
0.021845386533665835,0.03072454329654975,
0.021895261845386534,0.04789883190166258,
0.021945137157107233,0.021875841800320407,
0.02199501246882793,0.005741228169928041,
0.02204488778054863,-0.0009147535281289719,
0.022094763092269327,-0.017943027263963778,
0.022144638403990027,0.00934574488230417,
0.022194513715710722,0.017013378971658104,
0.02224438902743142,0.015500121063336248,
0.02229426433915212,0.012608022936152537,
0.022344139650872816,0.0146604387440976,
0.022394014962593516,0.026056731249837276,
0.022443890274314215,0.024111043525195164,
0.022493765586034914,0.0036060857326805935,
0.02254364089775561,0.04074799324191715,
0.02259351620947631,0.016525312792714623,
0.022643391521197008,-0.010612640575516726,
0.022693266832917707,0.0034019300032317556,
0.022743142144638403,-0.008802271772281309,
0.022793017456359102,-0.026436032070287996,
0.0228428927680798,0.0012083318377881635,
0.0228927680798005,0.00952962652986191,
0.022942643391521196,0.0038916791357556544,
0.022992518703241895,-0.006045553855743327,
0.023042394014962594,0.010528860418491633,
0.02309226932668329,0.0031714618190036795,
0.02314214463840399,0.006458326611410549,
0.02319201995012469,0.023679065342891246,
0.023241895261845388,-0.009363797572365488,
0.023291770573566083,0.0016530168318659698,
0.023341645885286783,-0.015034948246500864,
0.02339152119700748,-0.003625143574846956,
0.02344139650872818,-0.029037533406744354,
0.023491271820448877,-0.016947019723221695,
0.023541147132169576,0.009365403856897483,
0.023591022443890275,0.023384634448816274,
0.023640897755610974,0.008197323169049898,
0.02369077306733167,-0.00380448227677576,
0.02374064837905237,-0.018796171823298395,
0.023790523690773068,0.0024608949662041062,
0.023840399002493767,0.014085398887011047,
0.023890274314214463,0.001821015075941487,
0.023940149625935162,-0.02190175038378,
0.02399002493765586,-0.018518004936217178,
0.024039900249376557,-0.029112461249590778,
0.024089775561097256,-0.031006644696057316,
0.024139650872817955,0.03283713256733156,
0.024189526184538655,-0.03404670414576678,
0.02423940149625935,-0.0009948431046306718,
0.02428927680798005,-0.01092900313189428,
0.02433915211970075,-0.009735579401094624,
0.024389027431421448,-0.012422747641543132,
0.024438902743142144,-0.006899027082178185,
0.024488778054862843,-0.017731810178992537,
0.024538653366583542,-0.017564043352209676,
0.02458852867830424,-0.007665042125767888,
0.024638403990024937,-0.007410716844930507,
0.024688279301745636,-0.014954237094060904,
0.024738154613466335,-0.04033401115162969,
0.02478802992518703,-0.02188124073284302,
0.02483790523690773,0.006161196172008814,
0.02488778054862843,-0.014307942874551286,
0.02493765586034913,-0.01022684793281927,
0.024987531172069824,-0.006374108341665118,
0.025037406483790523,0.0014369951227457423,
0.025087281795511222,-0.016543699738453183,
0.02513715710723192,-0.004361246013542413,
0.025187032418952617,-0.02601451119664221,
0.025236907730673316,-0.011905457966658097,
0.025286783042394016,-0.029064585809198774,
0.025336658354114715,0.013228018625469639,
0.02538653366583541,-0.03158713282020778,
0.02543640897755611,-0.01013009641399551,
0.02548628428927681,-0.0027447401551518227,
0.025536159600997508,0.010343381896245497,
0.025586034912718204,-0.02818657346188394,
0.025635910224438903,-0.03519498855082366,
0.025685785536159602,0.0021576239150895953,
0.025735660847880298,0.010443465267434032,
0.025785536159600997,-0.027575553179717743,
0.025835411471321696,-0.02405651361594249,
0.025885286783042395,-0.02346419797639463,
0.02593516209476309,-0.014573991819068554,
0.02598503740648379,-0.0274865338729502,
0.02603491271820449,-0.01945418512554281,
0.02608478802992519,-0.009063617223015151,
0.026134663341645884,-0.027098464240395626,
0.026184538653366583,-0.0024135294244109796,
0.026234413965087282,-0.010071617006583166,
0.02628428927680798,0.017975384644513818,
0.026334164588528677,-0.02283185456722156,
0.026384039900249377,-0.00481231990212006,
0.026433915211970076,-0.026238944000000774,
0.02648379052369077,-0.018066094157096126,
0.02653366583541147,-0.050074150041986676,
0.02658354114713217,0.010112964833354679,
0.02663341645885287,0.0019305179231078884,
0.026683291770573565,-0.044756636545998915,
0.026733167082294264,-0.008513394613919088,
0.026783042394014963,-0.04557148877597622,
0.026832917705735662,-0.011495421050334746,
0.026882793017456358,-0.01718283066793625,
0.026932668329177057,-0.03837552055983585,
0.026982543640897756,0.018590744034821874,
0.027032418952618455,-0.01993505092968644,
0.02708229426433915,0.010498655618898036,
0.02713216957605985,-0.002583299742511376,
0.02718204488778055,-0.012207509278774852,
0.02723192019950125,-0.010842799133847024,
0.027281795511221944,-0.043521276646512425,
0.027331670822942643,-0.025146197746554143,
0.027381546134663343,-0.03090572652095712,
0.02743142144638404,-0.0052479874834948596,
0.027481296758104738,0.00389193477895931,
0.027531172069825437,0.0029616527543996317,
0.027581047381546136,-0.03673147119491681,
0.02763092269326683,-0.027388290067534037,
0.02768079800498753,-0.01151010002126445,
0.02773067331670823,-0.027835643271227752,
0.02778054862842893,-0.03635765511730345,
0.027830423940149625,-0.012265434308067669,
0.027880299251870324,-0.023862112299024248,
0.027930174563591023,-0.00934595246172983,
0.027980049875311722,-0.005234355718212055,
0.028029925187032418,-0.0446159113757067,
0.028079800498753117,-0.02661361928260617,
0.028129675810473816,-0.02215858688805371,
0.028179551122194512,-0.009621491642939508,
0.02822942643391521,-0.03527085637855142,
0.02827930174563591,-0.008026670054629837,
0.02832917705735661,-0.0270416907013094,
0.028379052369077305,-0.03016684833263945,
0.028428927680798004,-0.013689459912593745,
0.028478802992518704,0.01732318202310844,
0.028528678304239403,0.010300954158038465,
0.0285785536159601,-0.014158280309361483,
0.028628428927680798,-0.014766923112312551,
0.028678304239401497,-0.032006705398147886,
0.028728179551122196,-0.016659431190738188,
0.02877805486284289,-0.014298733080634497,
0.02882793017456359,0.004761013047659121,
0.02887780548628429,-0.029868504759515087,
0.02892768079800499,-0.018762729461328016,
0.028977556109725685,-0.02642401316703943,
0.029027431421446384,-0.0036905978180151993,
0.029077306733167083,-0.014366513815725023,
0.02912718204488778,-0.020800197098300624,
0.029177057356608478,-0.031226132637971735,
0.029226932668329177,-0.0225361898341988,
0.029276807980049877,-0.014798547124080613,
0.029326683291770572,-0.006170294773558908,
0.02937655860349127,-0.010482831174253832,
0.02942643391521197,-0.025216718296820012,
0.02947630922693267,-0.00580819932237419,
0.029526184538653365,-0.02050795940848514,
0.029576059850374065,0.008883734261398947,
0.029625935162094764,-0.02029272220090377,
0.029675810473815463,-0.013571786396926308,
0.02972568578553616,0.00276837429693581,
0.029775561097256858,-0.010326347735136516,
0.029825436408977557,-0.018496213126008906,
0.029875311720698253,0.0071774984955611,
0.029925187032418952,-0.009563951862796715,
0.02997506234413965,0.02267525762891308,
0.03002493765586035,-0.02859343867032632,
0.030074812967581046,0.012508363058032813,
0.030124688279301745,-0.011483103581667207,
0.030174563591022444,0.010802858050188012,
0.030224438902743143,-0.010951022136057592,
0.03027431421446384,-0.01164843811532762,
0.03032418952618454,0.03601486401913577,
0.030374064837905237,-0.008723978956623732,
0.030423940149625937,0.014608003574140228,
0.030473815461346632,-0.038760278054288194,
0.03052369077306733,-0.027449525683873516,
0.03057356608478803,-0.014347791872413538,
0.03062344139650873,-0.005730873672397237,
0.030673316708229426,-0.00283825167297401,
0.030723192019950125,-0.010252722297379202,
0.030773067331670824,-0.01476033248152505,
0.03082294264339152,-0.022586041207931083,
0.03087281795511222,-0.00663770556308955,
0.030922693266832918,0.002386914754691374,
0.030972568578553617,-0.00435286353478116,
0.031022443890274313,-0.007687564843554966,
0.031072319201995012,-0.0375391222440496,
0.03112219451371571,-0.024315671713720677,
0.03117206982543641,-0.01637876716555801,
0.031221945137157106,-0.029378086366138145,
0.03127182044887781,0.03577667615910729,
0.031321695760598504,-0.010954537470058028,
0.0313715710723192,0.010671888214478597,
0.0314214463840399,0.004817475607349337,
0.0314713216957606,-0.023575471312846062,
0.031521197007481294,-0.007044599196605295,
0.031571072319202,-0.01647463220039398,
0.03162094763092269,-0.0027713011825357668,
0.03167082294264339,0.0023359041343154856,
0.03172069825436409,-0.0007498111439260234,
0.03177057356608479,0.004429631017846384,
0.03182044887780549,-0.00463695957589584,
0.031870324189526185,0.011996824051300408,
0.03192019950124688,-0.028653549519870116,
0.03197007481296758,0.014367936510096524,
0.03201995012468828,0.006963182136881897,
0.032069825436408975,0.00015796658474199815,
0.03211970074812968,-0.009913680221913813,
0.03216957605985037,0.0027765090601770755,
0.032219451371571076,0.005045458762456197,
0.03226932668329177,-0.01380786299606242,
0.03231920199501247,0.010901735687088498,
0.03236907730673317,-0.023095036460237243,
0.032418952618453865,-0.0044509770565778345,
0.03246882793017456,-0.024350447383737282,
0.032518703241895264,0.022969422709295736,
0.03256857855361596,-0.028088492947245858,
0.032618453865336655,-0.005009891002857902,
0.03266832917705736,0.008720695486987926,
0.032718204488778053,0.022930004920969357,
0.032768079800498756,-0.013647458759779471,
0.03281795511221945,0.023132539516725815,
0.03286783042394015,-0.0046731882489962975,
0.03291770573566085,0.015029320397736076,
0.032967581047381546,0.014429223856774406,
0.03301745635910224,-0.003912670147137261,
0.033067331670822944,0.00941291883792807,
0.03311720698254364,-0.0134321335486066,
0.03316708229426434,0.011542362302913419,
0.03321695760598504,0.01010133093237129,
0.033266832917705734,0.011112755270175308,
0.03331670822942644,0.0011251108597459861,
0.03336658354114713,0.010925644464692824,
0.03341645885286783,-0.021315589798672284,
0.03346633416458853,0.01583041351924977,
0.033516209476309226,0.010661530276637379,
0.03356608478802992,0.008237300549141029,
0.033615960099750625,0.013029172320612613,
0.03366583541147132,0.019593484733562407,
0.03371571072319202,0.011650748571524996,
0.03376558603491272,0.015004093358050186,
0.033815461346633414,-0.006700897229943713,
0.03386533665835412,0.0427094807735279,
0.03391521197007481,0.042882458410061164,
0.03396508728179551,0.03341160229848869,
0.03401496259351621,0.013739983276711096,
0.03406483790523691,0.010899526227356937,
0.0341147132169576,-0.01481191395165648,
0.034164588528678305,0.019543559514632693,
0.034214463840399,0.02081024517135951,
0.034264339152119704,0.01903521110881441,
0.0343142144638404,0.001781002563294453,
0.034364089775561095,0.007423575177653633,
0.0344139650872818,0.012671076847400065,
0.03446384039900249,0.011767941042926392,
0.03451371571072319,0.002305863457729467,
0.03456359102244389,0.019500038111739747,
0.03461346633416459,0.026270054068322623,
0.03466334164588529,-0.0012114039075583009,
0.034713216957605986,0.021748241620233786,
0.03476309226932668,0.012760547541883455,
0.034812967581047384,0.004055803675935912,
0.03486284289276808,-0.010021586510943491,
0.034912718204488775,-0.009171074402656035,
0.03496259351620948,0.021322505939360064,
0.035012468827930174,0.014778010656268784,
0.03506234413965087,0.020461494339842113,
0.03511221945137157,0.010526150820711965,
0.03516209476309227,0.008288006709329776,
0.03521197007481297,0.010113209505248988,
0.035261845386533666,0.0147375577683291,
0.03531172069825436,0.002278957275601288,
0.035361596009975065,0.001490876355653063,
0.03541147132169576,-0.00862965559215274,
0.035461346633416456,0.022747040196979238,
0.03551122194513716,0.040833559918494605,
0.035561097256857854,0.036013848226532405,
0.03561097256857856,0.035314299886211556,
0.03566084788029925,0.020095637920373374,
0.03571072319201995,0.035994086341940304,
0.03576059850374065,0.03226051388758913,
0.03581047381546135,0.012149395814950243,
0.03586034912718204,0.041479844882233025,
0.035910224438902745,0.010407989923539656,
0.03596009975062344,0.015890270009974127,
0.036009975062344136,0.009002755459926647,
0.03605985037406484,0.03514079953986876,
0.036109725685785535,0.018836158362344865,
0.03615960099750624,0.014574277329625346,
0.03620947630922693,0.02005306574635278,
0.03625935162094763,0.016271357644301883,
0.03630922693266833,0.020550838300195138,
0.03635910224438903,0.022358217182729713,
0.03640897755610972,0.021182898380296907,
0.036458852867830426,0.0352312747630722,
0.03650872817955112,-0.014920424312395951,
0.036558603491271824,0.027267483349091404,
0.03660847880299252,0.023712967168428044,
0.036658354114713215,0.029237736412868122,
0.03670822942643392,0.014388698308596359,
0.036758104738154614,0.010477773034737787,
0.03680798004987531,0.028422594241794292,
0.03685785536159601,0.055170593645684635,
0.03690773067331671,0.020060947663554155,
0.0369576059850374,0.04098848037809685,
0.037007481296758106,0.027191120749986405,
0.0370573566084788,0.020012041714312853,
0.037107231920199504,0.008285207457914818,
0.0371571072319202,0.035365418276854556,
0.037206982543640896,0.015057177238387603,
0.0372568578553616,0.030329237269240084,
0.037306733167082294,0.009730478496182735,
0.03735660847880299,0.0048176759101387565,
0.03740648379052369,-0.004117190407147454,
0.03745635910224439,0.029742902166997362,
0.037506234413965084,-0.0061637612187634,
0.037556109725685786,0.04125585855924399,
0.03760598503740648,-0.0026129503234689107,
0.037655860349127185,0.03797502387021939,
0.03770573566084788,0.03125431864291406,
0.037755610972568576,0.023565799493422288,
0.03780548628428928,0.01949292737921483,
0.037855361596009975,0.023262952823235084,
0.03790523690773067,0.021424187091068168,
0.03795511221945137,0.03409292028236047,
0.03800498753117207,0.03650297675534101,
0.03805486284289277,0.029427910167918157,
0.03810473815461347,0.015764818090183933,
0.03815461346633416,0.026778739152151836,
0.038204488778054865,0.0411359135217031,
0.03825436408977556,0.015453132719866945,
0.03830423940149626,-0.0010901742241578652,
0.03835411471321696,-0.017390922665982078,
0.038403990024937655,0.013573616922990833,
0.03845386533665835,0.005246730376119335,
0.03850374064837905,0.025200793880581066,
0.03855361596009975,0.012989246609352922,
0.03860349127182045,0.03974110063661086,
0.03865336658354115,0.0019009513715992458,
0.03870324189526184,0.02849299370993791,
0.038753117206982546,0.06652554887021102,
0.03880299251870324,0.024446418225133344,
0.03885286783042394,0.026137482650483775,
0.03890274314214464,0.0022924638822133282,
0.038952618453865336,0.021237640286562588,
0.03900249376558604,0.037147060376007734,
0.039052369077306734,0.021687884383465982,
0.03910224438902743,0.025367853606502188,
0.03915211970074813,0.027809716824419503,
0.03920199501246883,0.019704104081590672,
0.039251870324189524,0.020747252764865068,
0.039301745635910226,0.021049730554933296,
0.03935162094763092,0.02359887465745322,
0.03940149625935162,0.016517543168084257,
0.03945137157107232,0.014915786839337884,
0.039501246882793016,-0.002626227784051166,
0.03955112219451372,0.02100686054492748,
0.039600997506234414,0.00595818749800823,
0.03965087281795511,0.011715808428478554,
0.03970074812967581,0.028641389047002037,
0.03975062344139651,0.009858023004168347,
0.039800498753117204,0.011111165290602756,
0.03985037406483791,0.013863248592438641,
0.0399002493765586,0.02223336166402153,
0.039950124688279305,0.0075757481823268205,
0.04,-0.014639710407260142,
0.0400498753117207,0.00974020020155799,
0.0400997506234414,0.0016248664922698663,
0.040149625935162095,0.020304872183350798,
0.04019950124688279,0.016595014618230187,
0.04024937655860349,0.02672218569527471,
0.04029925187032419,0.013084477745334933,
0.040349127182044885,0.024705678305763486,
0.04039900249376559,0.007362131005576067,
0.04044887780548628,0.014213189100828694,
0.040498753117206986,0.030563721579144654,
0.04054862842892768,0.009452834829123642,
0.04059850374064838,0.02013196058977678,
0.04064837905236908,0.02090647379274586,
0.040698254364089775,0.00528857549252032,
0.04074812967581047,0.021723705721210948,
0.040798004987531174,0.02779714909451142,
0.04084788029925187,-0.0022769537321398105,
0.040897755610972565,0.018505505083385877,
0.04094763092269327,0.0102118290097498,
0.04099750623441396,-0.009657662751111124,
0.041047381546134666,0.013326992147477564,
0.04109725685785536,0.006990662167789154,
0.04114713216957606,0.02882469731267484,
0.04119700748129676,-0.0072106972262212,
0.041246882793017456,-0.0020969796979723645,
0.04129675810473815,0.011975389307788159,
0.041346633416458854,0.040555843975325495,
0.04139650872817955,-0.00738599464799076,
0.04144638403990025,0.04184012317472495,
0.04149625935162095,-0.009969154449308938,
0.041546134663341644,0.0227821570801736,
0.04159600997506235,0.007669121146723346,
0.04164588528678304,0.02222483573548917,
0.04169576059850374,-0.009100892699552866,
0.04174563591022444,0.021226064389218077,
0.041795511221945136,0.015383268578878903,
0.04184538653366583,-0.012602200889954882,
0.041895261845386535,0.0006724876960927904,
0.04194513715710723,0.01813337088717997,
0.04199501246882793,0.013289966505180401,
0.04204488778054863,0.02550062859871773,
0.042094763092269324,0.003379322066424513,
0.04214463840399003,0.01166656868082076,
0.04219451371571072,0.010921053547777301,
0.04224438902743142,0.008136890758534559,
0.04229426433915212,-0.00019920189366411795,
0.04234413965087282,0.026692565955734472,
0.04239401496259352,-0.010846598571436161,
0.042443890274314215,0.0072736134648187425,
0.04249376558603491,0.0014666619179602792,
0.042543640897755614,-0.01916324499500061,
0.04259351620947631,-0.0028167860219254527,
0.042643391521197005,0.004477069578645417,
0.04269326683291771,0.0025697289717361515,
0.0427431421446384,0.007667977713969806,
0.0427930174563591,0.003599856181270387,
0.0428428927680798,-0.00014359636311956064,
0.0428927680798005,0.012512409581483176,
0.0429426433915212,0.0014861968870709692,
0.042992518703241896,-0.025317613250590995,
0.04304239401496259,0.019072863177783707,
0.043092269326683294,0.004557430917542992,
0.04314214463840399,0.02749242287325046,
0.043192019950124685,0.0003840551517808634,
0.04324189526184539,0.0011301504395601874,
0.043291770573566084,0.01204150422073871,
0.043341645885286786,-0.006101822519028183,
0.04339152119700748,0.012181050577047721,
0.04344139650872818,0.019573677889200475,
0.04349127182044888,0.022822876762086736,
0.043541147132169576,-0.005220011514971914,
0.04359102244389027,0.01608953540963801,
0.043640897755610975,-0.011655921085592833,
0.04369077306733167,0.0024125723591934467,
0.043740648379052366,0.02860299465142579,
0.04379052369077307,-0.004055840049600273,
0.043840399002493764,0.017798883290776942,
0.04389027431421447,0.0038412505432149197,
0.04394014962593516,-0.02660308330428604,
0.04399002493765586,-0.025085926501331172,
0.04403990024937656,-0.00018486795612384635,
0.04408977556109726,-0.024471329879650897,
0.04413965087281795,0.014853126014730742,
0.044189526184538655,-0.0009756268929554026,
0.04423940149625935,-0.024012646620975357,
0.04428927680798005,0.005253605297405414,
0.04433915211970075,-0.013700062649883143,
0.044389027431421445,-0.01780891280555171,
0.04443890274314215,-0.011606192068426642,
0.04448877805486284,0.001673213708537612,
0.04453865336658354,-0.004408839782320462,
0.04458852867830424,0.01267199525638393,
0.04463840399002494,-0.02444465516123869,
0.04468827930174563,-0.002423995834007973,
0.044738154613466335,-0.012594148196391635,
0.04478802992518703,-0.03196569361658654,
0.044837905236907734,0.0071573622864846784,
0.04488778054862843,-0.006701266008856141,
0.044937655860349125,-0.0006268462279002398,
0.04498753117206983,-0.0016041374435118725,
0.045037406483790524,0.014280151645285781,
0.04508728179551122,-0.012861086496374472,
0.04513715710723192,-0.034264777865041576,
0.04518703241895262,-0.019299232630346937,
0.04523690773067331,-0.028041051667655248,
0.045286783042394016,-0.032900920186864316,
0.04533665835411471,-0.007146380690857096,
0.045386533665835414,-0.00954789720132993,
0.04543640897755611,-0.011953231669305463,
0.045486284289276806,-0.04289695548653009,
0.04553615960099751,-0.006285808395149559,
0.045586034912718204,0.0017538731158357173,
0.0456359102244389,0.018311209761401763,
0.0456857855361596,-0.018965256035367556,
0.0457356608478803,-0.02091122716869983,
0.045785536159601,0.005212482057985298,
0.045835411471321696,-0.014798172932888697,
0.04588528678304239,-0.021337748764978726,
0.045935162094763095,-0.018071281803242505,
0.04598503740648379,-0.009496819321744895,
0.046034912718204486,-0.024649470457233716,
0.04608478802992519,-0.0046171708854717535,
0.046134663341645885,-0.033492862762690756,
0.04618453865336658,-0.03177042045035286,
0.04623441396508728,-0.018061108902911117,
0.04628428927680798,-0.019945992486271154,
0.04633416458852868,-0.0066778961622836405,
0.04638403990024938,0.0027256389037344543,
0.04643391521197007,0.008251077092801665,
0.046483790523690775,-0.010857987992247558,
0.04653366583541147,-0.01893752710090109,
0.04658354114713217,-0.014462566176286041,
0.04663341645885287,-0.027770688096192445,
0.046683291770573565,-0.015996669107154405,
0.04673316708229427,-0.012853097698559796,
0.04678304239401496,-0.011834367828576012,
0.04683291770573566,-0.0088656020501897,
0.04688279301745636,-0.00940130825209362,
0.04693266832917706,0.00524081758142826,
0.04698254364089775,-0.035780387007078675,
0.047032418952618456,0.003978534991565424,
0.04708229426433915,-0.019113042469930674,
0.04713216957605985,-0.002661218939955825,
0.04718204488778055,0.037247879835016096,
0.047231920199501246,0.0151101832873244,
0.04728179551122195,-0.022285956251436357,
0.047331670822942644,-0.008192516486306175,
0.04738154613466334,-0.0285830981586505,
0.04743142144638404,-0.009576318077740193,
0.04748129675810474,-0.029190877094897566,
0.047531172069825434,0.007388529795325539,
0.047581047381546136,-0.01856388890502627,
0.04763092269326683,-0.0037693614636129386,
0.047680798004987535,-0.01654230067800859,
0.04773067331670823,-0.015793873070320874,
0.047780548628428926,-0.03612582460038724,
0.04783042394014963,-0.05753190273763655,
0.047880299251870324,-0.006169868813437699,
0.04793017456359102,-0.002022771081826309,
0.04798004987531172,-0.014010669958605606,
0.04802992518703242,-0.018274237625628523,
0.048079800498753114,-0.031025552215570032,
0.04812967581047382,-0.015500458968705867,
0.04817955112219451,-0.013245133174626042,
0.048229426433915215,-0.0013433800024951984,
0.04827930174563591,0.0011450269713169994,
0.048329177057356607,-0.002066683032253625,
0.04837905236907731,-0.004311064350966759,
0.048428927680798005,-0.02510476965649272,
0.0484788029925187,0.0027865116798794845,
0.0485286783042394,-0.017006434374034415,
0.0485785536159601,-0.042053667422304666,
0.048628428927680795,-0.022278715430413584,
0.0486783042394015,-0.008669182266548111,
0.04872817955112219,-0.019266291174231547,
0.048778054862842896,-0.016421082184757862,
0.04882793017456359,-0.00841832362715142,
0.04887780548628429,-0.012651352382264888,
0.04892768079800499,-0.008014672676825575,
0.048977556109725685,-0.023446333782669963,
0.04902743142144638,-0.013545857299582475,
0.049077306733167084,-0.03635282646006667,
0.04912718204488778,-0.002044682621687721,
0.04917705735660848,-0.012650796593536193,
0.04922693266832918,-0.015810543850641852,
0.04927680798004987,-0.016804430572277252,
0.049326683291770576,-0.008418272113672357,
0.04937655860349127,-0.02238052226112975,
0.04942643391521197,-0.021387972866429288,
0.04947630922693267,-0.009746487058439038,
0.049526184538653366,-0.001586454646593247,
0.04957605985037406,-0.015100384092015114,
0.049625935162094764,-0.021758188108438006,
0.04967581047381546,-0.010945838871790042,
0.04972568578553616,-0.01573792568262252,
0.04977556109725686,0.005398093103669966,
0.049825436408977554,0.006322745525559413,
0.04987531172069826,-0.031023545070658402,
0.04992518703241895,-0.02302213782276999,
0.04997506234413965,-0.028626108888030896,
0.05002493765586035,0.0006640322921506302,
0.050074812967581046,-0.03325878731316306,
0.05012468827930175,-0.030162923804764097,
0.050174563591022445,0.006705603228982294,
0.05022443890274314,-0.01680799480263785,
0.05027431421446384,0.0002616012418722568,
0.05032418952618454,0.01551325344395247,
0.050374064837905234,-0.018339282029896507,
0.05042394014962594,-0.0014561500489178453,
0.05047381546134663,-0.0037899019421583392,
0.05052369077306733,-0.04322713999352658,
0.05057356608478803,0.005400629098171725,
0.05062344139650873,-0.0021597997329052734,
0.05067331670822943,0.0017936908689976036,
0.050723192019950125,-0.012560547554967601,
0.05077306733167082,0.0010265229851127017,
0.050822942643391524,-0.027639494275063965,
0.05087281795511222,-0.025745898177288958,
0.050922693266832915,-0.00816271793640727,
0.05097256857855362,-0.0016657961285614104,
0.05102244389027431,-0.022266549281989467,
0.051072319201995016,-0.021085054471037683,
0.05112219451371571,-0.008478573523879537,
0.05117206982543641,-0.021352048097577313,
0.05122194513715711,0.003098229000358714,
0.051271820448877806,-0.017831948335589473,
0.0513216957605985,0.0028013462082520403,
0.051371571072319204,-0.01715600481648378,
0.0514214463840399,-0.001549590527912809,
0.051471321695760595,-0.03392357176920152,
0.0515211970074813,-0.0008398130752420175,
0.051571072319201994,-0.007166665075923362,
0.051620947630922696,-0.010010958919572183,
0.05167082294264339,0.009542429264128731,
0.05172069825436409,-0.022614721198457838,
0.05177057356608479,-0.009429718554380108,
0.051820448877805486,-0.005715681569372331,
0.05187032418952618,-0.000747070448568051,
0.051920199501246884,-0.002208204181839424,
0.05197007481296758,0.01105431256584832,
0.052019950124688276,-0.028300499337951174,
0.05206982543640898,-0.004062655730299153,
0.052119700748129674,0.0034469195901274067,
0.05216957605985038,-0.016327112461085452,
0.05221945137157107,-0.0035745413160290043,
0.05226932668329177,0.013910029676621229,
0.05231920199501247,0.007833287003919682,
0.05236907730673317,-0.028343061158428107,
0.05241895261845386,-0.01383536692198823,
0.052468827930174565,-0.027832815707988113,
0.05251870324189526,-0.01218592701810785,
0.05256857855361596,-0.013970347426290464,
0.05261845386533666,0.006174423722252368,
0.052668329177057355,0.0231360862676152,
0.05271820448877806,0.012582341344783362,
0.05276807980049875,0.030892165181793885,
0.05281795511221945,-0.00598754502409523,
0.05286783042394015,-0.0018528044387496443,
0.05291770573566085,0.021546845191736583,
0.05296758104738154,-0.0006487297350341432,
0.053017456359102245,0.013869011928842078,
0.05306733167082294,0.005670236878910958,
0.053117206982543644,0.0016740751947693895,
0.05316708229426434,-0.01809929190828509,
0.053216957605985035,0.009302298306931682,
0.05326683291770574,0.028881586860190305,
0.053316708229426434,-0.002952531568649483,
0.05336658354114713,0.002386759091018837,
0.05341645885286783,-0.006689103456001439,
0.05346633416458853,0.007693893728581848,
0.05351620947630923,-0.009133501526954973,
0.053566084788029926,0.026157768844896484,
0.05361596009975062,-0.0016370737196515234,
0.053665835411471324,0.03284938631595605,
0.05371571072319202,0.02549784505076475,
0.053765586034912716,0.039091784568398104,
0.05381546134663342,0.0034478207379035238,
0.053865336658354114,-0.007035489729792659,
0.05391521197007481,-0.01207048097130847,
0.05396508728179551,0.018202655710100702,
0.05401496259351621,-0.00722658521721355,
0.05406483790523691,0.034018158582624344,
0.054114713216957606,0.018083143896419115,
0.0541645885286783,0.011148153778594766,
0.054214463840399005,0.007920533583091346,
0.0542643391521197,-0.004110192073109172,
0.054314214463840396,0.007913666983776341,
0.0543640897755611,-0.0009782047811855762,
0.054413965087281795,0.023383326783822614,
0.0544638403990025,0.005267175997576664,
0.05451371571072319,0.005402380201015482,
0.05456359102244389,0.0224556628848157,
0.05461346633416459,0.02749008463043001,
0.05466334164588529,0.03165334895638643,
0.05471321695760598,0.005207837469436396,
0.054763092269326685,0.03231745207093981,
0.05481296758104738,0.0054223755487904715,
0.05486284289276808,0.01645367745605934,
0.05491271820448878,0.007356428738394613,
0.054962593516209475,0.03228991891809757,
0.05501246882793018,0.014368922866287138,
0.05506234413965087,-0.005500710778207837,
0.05511221945137157,0.005714751263625861,
0.05516209476309227,0.012020756891052607,
0.05521197007481297,0.02838021644733757,
0.05526184538653366,-0.001005606485965,
0.055311720698254366,0.0019463327395897439,
0.05536159600997506,0.010912558381565147,
0.05541147132169576,0.03277498382143312,
0.05546134663341646,0.010950400014084639,
0.055511221945137156,0.02768955522002313,
0.05556109725685786,-0.004217364610576771,
0.055610972568578554,0.0173558972422747,
0.05566084788029925,0.04988318581717642,
0.05571072319201995,0.020395138533602093,
0.05576059850374065,-0.002138370008871005,
0.055810473815461344,0.019973615035737795,
0.055860349127182046,0.035775057268280085,
0.05591022443890274,0.024569182304236836,
0.055960099750623445,0.011465373727188914,
0.05600997506234414,0.015867284081338782,
0.056059850374064836,0.019963678600192308,
0.05610972568578554,0.025636591178131045,
0.056159600997506234,0.01135060912973784,
0.05620947630922693,0.03493613472462022,
0.05625935162094763,0.004707279786265374,
0.05630922693266833,0.023289676699566424,
0.056359102244389024,0.011837880738485204,
0.05640897755610973,0.004777702994236948,
0.05645885286783042,0.03510825562383306,
0.056508728179551125,0.033621085591184374,
0.05655860349127182,0.008795520591678836,
0.056608478802992516,0.003960849338163035,
0.05665835411471322,0.01213551623594196,
0.056708229426433915,0.011036271560499624,
0.05675810473815461,0.04216853983775909,
0.05680798004987531,0.029252653323315198,
0.05685785536159601,0.030743347735103357,
0.05690773067331671,0.03893539011167226,
0.05695760598503741,-0.007632998897111529,
0.0570074812967581,0.017143360447928063,
0.057057356608478806,0.019075334789920455,
0.0571072319201995,0.016122732261866102,
0.0571571072319202,0.017688492435823266,
0.0572069825436409,0.027900290668547642,
0.057256857855361595,0.02431137495590542,
0.05730673316708229,0.038656063323415035,
0.057356608478802994,0.03333452299573157,
0.05740648379052369,0.010291910424747213,
0.05745635910224439,0.0105419962883392,
0.05750623441396509,0.027515698082508408,
0.05755610972568578,0.03317226048996362,
0.057605985037406486,0.014949351869130907,
0.05765586034912718,0.022723686262015916,
0.05770573566084788,0.01424966833868382,
0.05775561097256858,0.037861990868331884,
0.057805486284289276,0.024416732147204197,
0.05785536159600998,0.02891642816812351,
0.057905236907730674,0.03293076387770702,
0.05795511221945137,0.01246618818623617,
0.05800498753117207,0.03449224769119235,
0.05805486284289277,0.03834595128518399,
0.058104738154613464,0.039161576013449995,
0.05815461346633417,0.05354910046133489,
0.05820448877805486,0.04587888340435667,
0.05825436408977556,0.01863633379429922,
0.05830423940149626,0.03990573001795215,
0.058354114713216956,0.034519487791239846,
0.05840399002493766,0.018557233449819476,
0.058453865336658355,0.0424440683261496,
0.05850374064837905,0.03162745407328718,
0.05855361596009975,0.009255456104616096,
0.05860349127182045,0.007103742620265748,
0.058653366583541144,0.014035727217017176,
0.05870324189526185,0.03289475762063321,
0.05875311720698254,0.04007907859653632,
0.05880299251870324,0.022721082230543553,
0.05885286783042394,0.006826079404010501,
0.05890274314214464,0.03914416386999526,
0.05895261845386534,0.021389946716116277,
0.059002493765586035,0.0008419567087699087,
0.05905236907730673,0.00615147324680531,
0.059102244389027433,0.02666306127075822,
0.05915211970074813,0.035487130195736204,
0.059201995012468825,0.024647185887806008,
0.05925187032418953,0.0013552627741001202,
0.05930174563591022,0.032030441266146854,
0.059351620947630926,0.027546787335803215,
0.05940149625935162,0.04746108069646618,
0.05945137157107232,0.040509076805888916,
0.05950124688279302,0.0162366804853058,
0.059551122194513716,0.04114137672142609,
0.05960099750623441,0.033094201908123254,
0.059650872817955114,0.01868482197867804,
0.05970074812967581,0.019427934625903587,
0.059750623441396505,0.012896373144059827,
0.05980049875311721,0.021186995448967204,
0.059850374064837904,0.035580721548198184,
0.059900249376558606,0.0225141515664808,
0.0599501246882793,0.022205526122520785,
0.06,0.0489292926370415,
0.0600498753117207,0.0019774715321620243,
0.060099750623441396,0.010054204766928247,
0.06014962593516209,0.031057439029882082,
0.060199501246882794,0.02333670567805143,
0.06024937655860349,0.022263509907175034,
0.06029925187032419,0.03126571234124964,
0.06034912718204489,-9.687429509858472e-05,
0.060399002493765584,0.01867561955890629,
0.06044887780548629,0.02919087750498159,
0.06049875311720698,0.03709792285898007,
0.06054862842892768,0.019630430771631412,
0.06059850374064838,0.013749688233914283,
0.06064837905236908,0.02533964572666616,
0.06069825436408977,0.012750817395355872,
0.060748129675810475,0.01623801565419293,
0.06079800498753117,0.019081078934561162,
0.06084788029925187,0.004013526683546908,
0.06089775561097257,0.022570573044131938,
0.060947630922693265,-0.0023582615050173165,
0.06099750623441397,0.021639909333280437,
0.06104738154613466,0.046972249959835524,
0.06109725685785536,0.01309398949076352,
0.06114713216957606,0.03213768948368896,
0.06119700748129676,0.030628176387515874,
0.06124688279301746,0.010980512814533432,
0.061296758104738155,0.009810126229477963,
0.06134663341645885,0.024653299622530128,
0.061396508728179554,-0.01713872733274932,
0.06144638403990025,-0.008230229930888823,
0.061496259351620945,0.008850605092354937,
0.06154613466334165,0.006190705248484453,
0.061596009975062344,0.014449455580499903,
0.06164588528678304,-0.010537011499305561,
0.06169576059850374,-0.0005275712774221002,
0.06174563591022444,0.019972010598562403,
0.06179551122194514,-0.021514994882089557,
0.061845386533665836,0.01143994640983531,
0.06189526184538653,0.02668618968901208,
0.061945137157107234,0.022798469808663017,
0.06199501246882793,-0.012890568271705226,
0.062044887780548626,0.01847567601637494,
0.06209476309226933,-0.014065526102825519,
0.062144638403990024,0.047116068361926736,
0.06219451371571072,-0.010423859373515306,
0.06224438902743142,0.02212659322920391,
0.06229426433915212,-0.019798921649645,
0.06234413965087282,0.013622771071764078,
0.062394014962593516,0.006531655425236951,
0.06244389027431421,0.01687779201445356,
0.062493765586034915,-0.005907769589687384,
0.06254364089775562,0.017645682731159636,
0.06259351620947631,0.01733010345110388,
0.06264339152119701,-0.018884237386091525,
0.0626932668329177,0.014411968384776515,
0.0627431421446384,0.0044630768596085465,
0.0627930174563591,4.6203017891054826e-05,
0.0628428927680798,-0.0012713557329779033,
0.0628927680798005,-0.0061279149227201155,
0.0629426433915212,0.01788760909618238,
0.06299251870324189,0.018169390555581547,
0.06304239401496259,-0.007920917660454314,
0.0630922693266833,0.01802806055495916,
0.063142144638404,0.009215619421713318,
0.06319201995012469,-0.019645908273526642,
0.06324189526184539,0.005975048205197602,
0.06329177057356608,-0.022010572444184605,
0.06334164588528678,-0.0052734500168749995,
0.06339152119700749,0.0030343662702061007,
0.06344139650872818,-0.012260812924548442,
0.06349127182044888,-0.0024020861217470147,
0.06354114713216957,-0.00028385058927153607,
0.06359102244389027,0.0031276749000368645,
0.06364089775561098,-0.011430150094900556,
0.06369077306733167,-0.001354960643092582,
0.06374064837905237,-0.018165550724493183,
0.06379052369077307,0.0015339571846822704,
0.06384039900249376,0.006100214277527423,
0.06389027431421446,-0.005683632796674448,
0.06394014962593517,0.01077843568407544,
0.06399002493765586,-0.010156868946156253,
0.06403990024937656,-0.009526427401567353,
0.06408977556109725,0.015223708601780354,
0.06413965087281795,-0.005815086520347823,
0.06418952618453866,0.019509298205167256,
0.06423940149625935,0.0076441179553127766,
0.06428927680798005,-0.006967613224221373,
0.06433915211970075,-0.01738285833820473,
0.06438902743142144,-0.03225473308052202,
0.06443890274314215,0.01299223373146988,
0.06448877805486285,-0.009518289590073323,
0.06453865336658354,-0.010024966351275044,
0.06458852867830424,3.068381934519769e-05,
0.06463840399002493,-0.022224390237649324,
0.06468827930174563,0.009282162213115997,
0.06473815461346634,0.026179892656463224,
0.06478802992518704,0.004367334268925406,
0.06483790523690773,0.009072313560624413,
0.06488778054862843,0.016417078355630846,
0.06493765586034912,-0.021940169791418947,
0.06498753117206983,-0.007516585670505133,
0.06503740648379053,-0.02435574897433246,
0.06508728179551122,-0.006105727942847161,
0.06513715710723192,0.007792301514561938,
0.06518703241895261,0.0018784218790610704,
0.06523690773067331,-0.03289759821883619,
0.06528678304239402,0.011120523906644746,
0.06533665835411472,-0.025916598785161817,
0.06538653366583541,0.0009715413308694822,
0.06543640897755611,-0.02491717229317199,
0.0654862842892768,-0.0077450371613456675,
0.06553615960099751,-0.005366323511408679,
0.06558603491271821,-0.001817447731197127,
0.0656359102244389,-0.016823125074191876,
0.0656857855361596,-0.014616978684127976,
0.0657356608478803,-0.009756420797683194,
0.06578553615960099,0.01606865491480931,
0.0658354114713217,-8.809221307249163e-05,
0.0658852867830424,0.015978791849288465,
0.06593516209476309,-0.015699370394161617,
0.06598503740648379,-0.016157317000115516,
0.06603491271820448,-0.04198452843011778,
0.06608478802992519,0.013495036783031574,
0.06613466334164589,-0.03255822535516068,
0.06618453865336658,-0.007928345434093452,
0.06623441396508728,-0.022638920729991262,
0.06628428927680798,-0.007922780171598875,
0.06633416458852869,-0.011728016765141822,
0.06638403990024938,-0.01702368011892449,
0.06643391521197008,-0.02540369168709655,
0.06648379052369077,-0.013006170705497583,
0.06653366583541147,-0.02378377032463677,
0.06658354114713216,-0.014431559096151026,
0.06663341645885287,-0.0047553432992955245,
0.06668329177057357,0.023188241946164208,
0.06673316708229426,-0.01756633894210542,
0.06678304239401496,-0.023432457235840712,
0.06683291770573566,-0.02778959964598767,
0.06688279301745637,-0.010004897698162069,
0.06693266832917706,-0.026134634557285215,
0.06698254364089776,-0.006655870530752671,
0.06703241895261845,-0.004779255665373612,
0.06708229426433915,-0.008944782302404078,
0.06713216957605984,-0.009631972465478143,
0.06718204488778055,0.0029019451041078226,
0.06723192019950125,-0.013438647217991678,
0.06728179551122195,-0.023558759465481922,
0.06733167082294264,-0.012121349633967443,
0.06738154613466334,-0.013448154558783013,
0.06743142144638405,-0.00478796513856003,
0.06748129675810474,0.001483194276818211,
0.06753117206982544,-0.020302396322504728,
0.06758104738154613,-0.017090191067765003,
0.06763092269326683,-0.03799286314951893,
0.06768079800498752,-0.004855834516885442,
0.06773067331670823,-0.009481826069772542,
0.06778054862842893,-0.019064250132576305,
0.06783042394014963,-0.0005044480400368256,
0.06788029925187032,-0.024535010051593135,
0.06793017456359102,-0.014798854501565066,
0.06798004987531173,0.00021654593775056845,
0.06802992518703242,-0.02028679187505375,
0.06807980049875312,-0.013612996937233569,
0.06812967581047381,0.01076494524407074,
0.06817955112219451,-0.03617022881009382,
0.0682294264339152,-0.03161930606788048,
0.06827930174563591,0.018789418536456118,
0.06832917705735661,-0.02354516792124923,
0.0683790523690773,-0.00645236509471802,
0.068428927680798,-0.01822233573866941,
0.0684788029925187,0.00266270367889997,
0.06852867830423941,-0.003708612600414338,
0.0685785536159601,-0.007742895188395729,
0.0686284289276808,0.009119941933735077,
0.0686783042394015,0.0060121392187099006,
0.06872817955112219,-0.006042899486024629,
0.0687780548628429,-0.014535690473311047,
0.0688279301745636,-0.0008329096425456293,
0.06887780548628429,-0.0006985815028311294,
0.06892768079800499,-0.02217104726456281,
0.06897755610972568,-0.03665045499811812,
0.06902743142144638,-0.003172578731656755,
0.06907730673316709,-0.0030565972933574888,
0.06912718204488778,-0.018401166489976833,
0.06917705735660848,0.010427517517950579,
0.06922693266832917,-0.02466325013234821,
0.06927680798004987,-0.04639318085256959,
0.06932668329177058,-0.02705628016608809,
0.06937655860349128,-0.012668319492304249,
0.06942643391521197,-0.01161687385202996,
0.06947630922693267,0.0015366043853381646,
0.06952618453865336,0.001419216284329658,
0.06957605985037406,-0.043391079217336245,
0.06962593516209477,-0.004954783361900633,
0.06967581047381546,0.01048506556228321,
0.06972568578553616,0.005190190818251943,
0.06977556109725686,-0.0029179514254935868,
0.06982543640897755,-0.001491307102907841,
0.06987531172069826,-0.02431169497535347,
0.06992518703241896,0.008561439467840389,
0.06997506234413965,-0.01589832976262203,
0.07002493765586035,-0.01810969486196647,
0.07007481296758104,-0.011159501667037212,
0.07012468827930174,-0.009807073235979772,
0.07017456359102245,-0.017150002220471222,
0.07022443890274314,-0.0035459636694479043,
0.07027431421446384,-0.01931442235373097,
0.07032418952618454,-0.011737919663712596,
0.07037406483790523,-0.01464635546844761,
0.07042394014962594,0.013011663544096665,
0.07047381546134664,-0.03984690758255883,
0.07052369077306733,-0.008401068542969462,
0.07057356608478803,-0.012701271676612065,
0.07062344139650872,0.0028376355252032782,
0.07067331670822943,0.012836032999267496,
0.07072319201995013,-0.011587526429427614,
0.07077306733167082,-0.008813450632815063,
0.07082294264339152,-0.00033886939265887796,
0.07087281795511222,0.017911067074957362,
0.07092269326683291,-0.008718285691549291,
0.07097256857855362,0.02487275880296048,
0.07102244389027432,0.013152194415627278,
0.07107231920199501,-0.007645842330553997,
0.07112219451371571,-0.014898876327376503,
0.0711720698254364,0.020672921733713122,
0.07122194513715711,-0.011941035114703718,
0.07127182044887781,0.00042344853884643003,
0.0713216957605985,-0.016286977332344087,
0.0713715710723192,0.014222836612569307,
0.0714214463840399,0.009824686075234575,
0.07147132169576059,0.016073033926286843,
0.0715211970074813,-0.0077255748468533746,
0.071571072319202,-0.036654947582735,
0.0716209476309227,0.012088478394843035,
0.07167082294264339,0.002164609667890902,
0.07172069825436408,-0.010768709007807223,
0.0717705735660848,0.008765977421319142,
0.07182044887780549,0.016462114421247835,
0.07187032418952619,-0.013280757339826215,
0.07192019950124688,0.010432392617615877,
0.07197007481296758,-0.03414124800579732,
0.07201995012468827,0.013691536359910026,
0.07206982543640898,0.02357404577403499,
0.07211970074812968,0.005192943483622368,
0.07216957605985037,0.014610655807784746,
0.07221945137157107,0.005792610455883793,
0.07226932668329177,-0.00638988604213388,
0.07231920199501247,-0.003433271237066351,
0.07236907730673317,-0.02802654398993099,
0.07241895261845387,0.01598808082682174,
0.07246882793017456,-0.001038681799185993,
0.07251870324189526,0.0001792863241753071,
0.07256857855361595,0.04214021775678579,
0.07261845386533666,0.015076212942676848,
0.07266832917705736,0.002916630514197293,
0.07271820448877805,-0.028117482696647676,
0.07276807980049875,-0.022308244993338843,
0.07281795511221945,-0.005208810677885319,
0.07286783042394016,-0.0010129801306984331,
0.07291770573566085,0.0117044361323211,
0.07296758104738155,-0.00543565985493589,
0.07301745635910224,0.015058666813992164,
0.07306733167082294,0.02148082668527128,
0.07311720698254365,0.005529454075444144,
0.07316708229426434,-0.007833809819396645,
0.07321695760598504,-0.009765247442775842,
0.07326683291770573,-0.0023092964168470557,
0.07331670822942643,-0.002848066056566073,
0.07336658354114713,-0.014808681976543357,
0.07341645885286784,0.011233162756683207,
0.07346633416458853,0.037131841454617814,
0.07351620947630923,0.006952364818072125,
0.07356608478802992,-0.014540049388887416,
0.07361596009975062,0.04877663544568836,
0.07366583541147133,-0.0002768300631609995,
0.07371571072319202,-0.02621192864515493,
0.07376558603491272,-0.009775830162545816,
0.07381546134663342,0.0011672694903726768,
0.07386533665835411,0.028827894824646913,
0.0739152119700748,0.03267183786650884,
0.07396508728179552,-0.009042678754932998,
0.07401496259351621,0.005429179312987941,
0.07406483790523691,0.01798576972927514,
0.0741147132169576,0.01090063288795792,
0.0741645885286783,0.004862471158060358,
0.07421446384039901,0.016313892644698555,
0.0742643391521197,-0.0017683767001532378,
0.0743142144638404,0.003089530113885257,
0.0743640897755611,0.013472668813896683,
0.07441396508728179,-0.006477016803146038,
0.07446384039900249,0.018636169784143754,
0.0745137157107232,0.03936522123051729,
0.07456359102244389,0.027469594738059714,
0.07461346633416459,-0.0019205492461604433,
0.07466334164588528,0.03487021439101773,
0.07471321695760598,0.020256017395473787,
0.07476309226932669,-0.0027801559945889523,
0.07481296758104738,-0.0046319988046647186,
0.07486284289276808,0.01095744768015563,
0.07491271820448878,0.005279875195314558,
0.07496259351620947,0.05522595702467911,
0.07501246882793017,-0.020015300964667863,
0.07506234413965088,0.0209400112161828,
0.07511221945137157,0.03227536201422307,
0.07516209476309227,0.046292676082496445,
0.07521197007481296,-0.02032286274904083,
0.07526184538653366,0.005070556387489326,
0.07531172069825437,0.019593942245987112,
0.07536159600997507,0.011186864371231658,
0.07541147132169576,0.01503618706928744,
0.07546134663341646,0.02429686266230389,
0.07551122194513715,-0.019808322830295585,
0.07556109725685786,0.03598007669453651,
0.07561097256857856,0.0091520548418705,
0.07566084788029925,0.004659644243208146,
0.07571072319201995,0.003932210841994518,
0.07576059850374064,0.011396314374156651,
0.07581047381546134,0.016352259720231913,
0.07586034912718205,0.005690795921718152,
0.07591022443890275,0.024907954356796366,
0.07596009975062344,0.025067739795075736,
0.07600997506234414,0.010438695198434716,
0.07605985037406483,0.04089731266548205,
0.07610972568578554,0.020758900794722934,
0.07615960099750624,0.0344804626487696,
0.07620947630922693,0.02449368632031215,
0.07625935162094763,0.0335847646091689,
0.07630922693266833,0.027587587199789192,
0.07635910224438902,0.0007599240157998288,
0.07640897755610973,-0.0074718833078267835,
0.07645885286783043,0.02132541927468592,
0.07650872817955112,0.017808072180122304,
0.07655860349127182,0.021923943843123718,
0.07660847880299251,0.02662508546015218,
0.07665835411471322,0.045638207993247484,
0.07670822942643392,0.02152283881126657,
0.07675810473815461,0.01208250660335361,
0.07680798004987531,0.030544667685327126,
0.076857855361596,0.02025309597593531,
0.0769077306733167,0.0025283535082349616,
0.07695760598503741,0.0334628970513322,
0.0770074812967581,0.019809074557910526,
0.0770573566084788,0.043117377612945304,
0.0771072319201995,0.020541705958084445,
0.0771571072319202,-0.002771119398242941,
0.0772069825436409,0.0392679115065891,
0.0772568578553616,0.026431034431020062,
0.0773067331670823,0.04588450535249039,
0.07735660847880299,0.005469925864934666,
0.07740648379052369,-0.009819513482205888,
0.0774563591022444,0.03920839397489883,
0.07750623441396509,0.031297773662550175,
0.07755610972568579,0.019680996218757386,
0.07760598503740648,0.01998942494313161,
0.07765586034912718,0.05838380273349909,
0.07770573566084787,0.0228137101486259,
0.07775561097256858,0.021359597790002058,
0.07780548628428928,0.043838859493049026,
0.07785536159600998,0.039788850902147774,
0.07790523690773067,0.03105413953627109,
0.07795511221945137,0.022773898171891068,
0.07800498753117208,-0.0028074602189928147,
0.07805486284289277,0.03000268059410494,
0.07810473815461347,0.04783706801776809,
0.07815461346633416,-0.001393115920805016,
0.07820448877805486,0.031188348165620647,
0.07825436408977555,0.013164173617731733,
0.07830423940149626,0.006245487405495246,
0.07835411471321696,0.010597793107050208,
0.07840399002493766,0.01653952967768451,
0.07845386533665835,0.03248201430498337,
0.07850374064837905,-0.01197923951139632,
0.07855361596009976,0.0037545026979199647,
0.07860349127182045,0.019405144387168997,
0.07865336658354115,0.03437220721635455,
0.07870324189526184,0.01613032936389837,
0.07875311720698254,0.026885045929243567,
0.07880299251870324,0.04764648195752798,
0.07885286783042394,-0.0007917371029396505,
0.07890274314214464,0.005661104869577521,
0.07895261845386534,0.027335040710167072,
0.07900249376558603,0.030079874386501514,
0.07905236907730673,0.04558450673561439,
0.07910224438902744,0.04286311142513147,
0.07915211970074813,0.0032522372018877095,
0.07920199501246883,0.015140643265940435,
0.07925187032418952,0.010294711704342655,
0.07930174563591022,0.03679026983612414,
0.07935162094763092,0.04006207822716146,
0.07940149625935163,0.014964986512941104,
0.07945137157107232,0.03952649221714137,
0.07950124688279302,0.016597813641723295,
0.07955112219451371,0.028168372700795235,
0.07960099750623441,0.008064439907139682,
0.07965087281795512,0.016664144625619444,
0.07970074812967581,0.03337514664003326,
0.07975062344139651,0.02486743524394793,
0.0798004987531172,0.03342305016055003,
0.0798503740648379,0.015150501779493678,
0.07990024937655861,-0.0037601659242145237,
0.0799501246882793,0.025591224982995934,
0.08,0.02981703444879642,
0.0800498753117207,0.029086685699579944,
0.0800997506234414,0.02041867998822857,
0.08014962593516209,0.049659582256388446,
0.0801995012468828,-0.004294293906887774,
0.0802493765586035,0.021819019780255015,
0.08029925187032419,0.01146017372914865,
0.08034912718204489,-0.0009166269001965738,
0.08039900249376558,0.0319802300805458,
0.08044887780548629,0.03972418470855972,
0.08049875311720699,0.01524707100213857,
0.08054862842892768,0.0064970822538950035,
0.08059850374064838,0.011705579603588293,
0.08064837905236907,0.027538885523653495,
0.08069825436408977,0.01570632171863761,
0.08074812967581048,0.021440117283133626,
0.08079800498753117,0.01704132326622098,
0.08084788029925187,0.00525274764122206,
0.08089775561097257,0.01674099130757472,
0.08094763092269326,0.0007643076698623692,
0.08099750623441397,0.003689192338701134,
0.08104738154613467,0.011965292726304401,
0.08109725685785536,0.017660201989653228,
0.08114713216957606,0.01697520715602144,
0.08119700748129675,0.0038830753701682673,
0.08124688279301745,-0.0028076294293087195,
0.08129675810473816,-0.009915720075277919,
0.08134663341645886,0.03373409321772406,
0.08139650872817955,0.007814501272067889,
0.08144638403990025,0.028200001130702188,
0.08149625935162094,0.012576079408561177,
0.08154613466334165,0.022221993042809023,
0.08159600997506235,0.008872157879136474,
0.08164588528678304,0.020785219004839924,
0.08169576059850374,-0.023863971807144696,
0.08174563591022443,0.030486970999587963,
0.08179551122194513,0.007180040291049436,
0.08184538653366584,-0.04145880855069829,
0.08189526184538654,0.02772692982449478,
0.08194513715710723,0.014317851414720448,
0.08199501246882793,0.006386676004797825,
0.08204488778054862,0.007148244223943113,
0.08209476309226933,0.02693862076428951,
0.08214463840399003,0.006354283924347353,
0.08219451371571072,0.023595357128325473,
0.08224438902743142,-0.0002013187574715393,
0.08229426433915212,0.014119521992049843,
0.08234413965087282,0.02299684038624826,
0.08239401496259352,-0.006990501148781003,
0.08244389027431422,0.003052410115564891,
0.08249376558603491,-0.010897236853423028,
0.08254364089775561,0.01658696533220108,
0.0825935162094763,0.008568626307891883,
0.08264339152119701,0.01849244370977819,
0.08269326683291771,-0.008583092809812795,
0.0827431421446384,0.01708571480580915,
0.0827930174563591,-0.0008661108357987564,
0.0828428927680798,0.0017276436237140128,
0.0828927680798005,-0.020516070731915734,
0.0829426433915212,0.031544569495673726,
0.0829925187032419,0.035606064903428464,
0.08304239401496259,-0.0016074295545705003,
0.08309226932668329,-0.012973300142302163,
0.08314214463840398,0.0020647416091221244,
0.0831920199501247,0.0043243738945749925,
0.08324189526184539,0.011122596126786405,
0.08329177057356608,0.009733767015173748,
0.08334164588528678,0.0200672237770287,
0.08339152119700748,0.01313659604141469,
0.08344139650872819,-0.0074744595279415595,
0.08349127182044888,0.04108209202548146,
0.08354114713216958,0.023128426586575202,
0.08359102244389027,0.030161235366370973,
0.08364089775561097,-0.008495275061753167,
0.08369077306733166,-0.0024296395906834387,
0.08374064837905237,-0.008744653293075482,
0.08379052369077307,-0.006222091163030204,
0.08384039900249377,0.03889079383802642,
0.08389027431421446,-0.011658061974647,
0.08394014962593516,0.03239889369977959,
0.08399002493765587,-0.011649333446559707,
0.08403990024937656,0.0037381939515084986,
0.08408977556109726,0.0013614146926760216,
0.08413965087281795,0.02196396980758792,
0.08418952618453865,0.02207899565313811,
0.08423940149625936,0.007493747008512103,
0.08428927680798005,-0.0021740477791602035,
0.08433915211970075,0.0034767287249408037,
0.08438902743142145,-0.00029696033886078966,
0.08443890274314214,-0.015611046632684106,
0.08448877805486284,-0.02765809771246895,
0.08453865336658355,-0.010269299737248829,
0.08458852867830424,0.01302775566597297,
0.08463840399002494,-0.017279314801935005,
0.08468827930174563,-0.021821545308074237,
0.08473815461346633,-0.00023856613268444194,
0.08478802992518704,-0.012748402192015756,
0.08483790523690773,-0.005136372379102289,
0.08488778054862843,-0.0007344366920783978,
0.08493765586034913,-0.0428259727400849,
0.08498753117206982,-0.0014438467186723338,
0.08503740648379052,0.010210864163589784,
0.08508728179551123,-0.0219535163524103,
0.08513715710723192,-0.01900345343239003,
0.08518703241895262,-0.0065208542990303625,
0.08523690773067331,-0.01688652109466535,
0.08528678304239401,-0.0034146390705319537,
0.08533665835411472,0.0020645383235374454,
0.08538653366583542,-0.035450345679497314,
0.08543640897755611,-0.004590908274862464,
0.0854862842892768,-0.0012644403950203501,
0.0855361596009975,-0.0013088998406526236,
0.0855860349127182,-0.01967402723722391,
0.08563591022443891,-0.03926967418368227,
0.0856857855361596,0.004436483353134997,
0.0857356608478803,0.02681351695664862,
0.085785536159601,-0.030018108849713912,
0.08583541147132169,0.009286029565021298,
0.0858852867830424,-0.043639699087832357,
0.0859351620947631,-0.0036359085607903293,
0.08598503740648379,-0.017396153758489966,
0.08603491271820449,-0.0037484726337555776,
0.08608478802992518,-0.01089442969624816,
0.08613466334164588,-0.020590676559331354,
0.08618453865336659,0.005408887469251063,
0.08623441396508728,-0.013319196582878853,
0.08628428927680798,-0.011464386647108917,
0.08633416458852868,-0.03276722378803873,
0.08638403990024937,-0.00019332586918012137,
0.08643391521197008,-0.018704758348910645,
0.08648379052369078,0.0064714944077730145,
0.08653366583541147,-0.012929909748139831,
0.08658354114713217,-0.028576195791435655,
0.08663341645885286,-0.009808907781237414,
0.08668329177057357,-0.0050245871833242755,
0.08673316708229427,-0.02588558116570216,
0.08678304239401496,0.012690271126765306,
0.08683291770573566,-0.026762715958774663,
0.08688279301745636,-0.018028189498248543,
0.08693266832917705,-0.01319787218135792,
0.08698254364089776,-0.008137942207048374,
0.08703241895261846,-0.02985913672196243,
0.08708229426433915,0.001509347789092206,
0.08713216957605985,0.00350113037336763,
0.08718204488778054,-0.00890473841582123,
0.08723192019950125,-0.006994914320593281,
0.08728179551122195,-0.018165711789275972,
0.08733167082294264,0.009423444147167132,
0.08738154613466334,0.001598014655775892,
0.08743142144638404,-0.03197035255665674,
0.08748129675810473,-0.022001291897309923,
0.08753117206982544,-0.01138140771173588,
0.08758104738154614,-0.024006016919060652,
0.08763092269326683,0.0004583880797857827,
0.08768079800498753,-0.03680740821361449,
0.08773067331670822,-0.014593672821794126,
0.08778054862842893,-0.04487974789863615,
0.08783042394014963,-0.022170396353083384,
0.08788029925187033,-0.0038239898480298025,
0.08793017456359102,-0.024196561153972215,
0.08798004987531172,0.001820004987401501,
0.08802992518703241,-0.0038017486707292766,
0.08807980049875312,-0.010568498016659253,
0.08812967581047382,-0.028043287818073928,
0.08817955112219451,-0.021063017076178286,
0.08822942643391521,-0.02190342204403946,
0.0882793017456359,-0.017686282093378275,
0.08832917705735661,-0.005496024789516857,
0.08837905236907731,-0.04112895030104921,
0.088428927680798,-0.013906316941192097,
0.0884788029925187,-0.011138029695869191,
0.0885286783042394,-0.008469297034295949,
0.0885785536159601,-0.008905059789535747,
0.0886284289276808,-0.000679196550024453,
0.0886783042394015,-0.007951366872594477,
0.0887281795511222,-0.010665624547775417,
0.08877805486284289,-0.021242015745066616,
0.08882793017456359,0.01864767169803282,
0.0888778054862843,-0.019380780880143757,
0.08892768079800499,-0.014747584093469506,
0.08897755610972569,-0.009411519656051831,
0.08902743142144638,-0.010877221811449803,
0.08907730673316708,0.005282843699692792,
0.08912718204488779,-0.02833458830812151,
0.08917705735660848,-0.04131212347098526,
0.08922693266832918,-0.012896822177752175,
0.08927680798004987,-0.021622166613760166,
0.08932668329177057,-0.011129261970140353,
0.08937655860349127,-0.017537206570681665,
0.08942643391521198,-0.012411898089537346,
0.08947630922693267,0.010492181202037144,
0.08952618453865337,-0.0025451146083551503,
0.08957605985037406,-0.0029439669752732676,
0.08962593516209476,-0.023954353434235645,
0.08967581047381547,-0.013049370689869326,
0.08972568578553616,-0.01973897532378651,
0.08977556109725686,-0.02652327985493329,
0.08982543640897755,-0.016229630524227913,
0.08987531172069825,0.009646631822050705,
0.08992518703241895,-0.02013179220783089,
0.08997506234413966,-0.022897145064438122,
0.09002493765586035,-0.021825500035051473,
0.09007481296758105,-0.030538283065941804,
0.09012468827930174,-0.026468198380588857,
0.09017456359102244,-0.005580372115200103,
0.09022443890274315,-0.0107661914129222,
0.09027431421446384,-0.005513063516985552,
0.09032418952618454,-0.006608938801913435,
0.09037406483790524,-0.014530773766321184,
0.09042394014962593,0.008113480578133386,
0.09047381546134663,0.0006620282362327376,
0.09052369077306734,0.0063841343591599774,
0.09057356608478803,-0.009584041753839773,
0.09062344139650873,-0.038804446598199774,
0.09067331670822942,-0.003189194430607877,
0.09072319201995012,0.0018889633781661594,
0.09077306733167083,-0.030012457927477455,
0.09082294264339152,-0.009952164492090194,
0.09087281795511222,-0.0031063671261245284,
0.09092269326683292,-0.00164209905424354,
0.09097256857855361,0.004023191991740529,
0.09102244389027432,0.005220239254881458,
0.09107231920199502,0.025970103371541785,
0.09112219451371571,0.008398004638916138,
0.09117206982543641,-0.012406219106606109,
0.0912219451371571,0.00039682189950992694,
0.0912718204488778,0.03396573793759994,
0.09132169576059851,-0.0064609560162131605,
0.0913715710723192,0.0041905755479195285,
0.0914214463840399,0.004305346922147766,
0.0914713216957606,-0.025430324569044267,
0.09152119700748129,0.009448129873471735,
0.091571072319202,0.002319303534581471,
0.0916209476309227,-0.01346924230843039,
0.09167082294264339,-0.012624343418237354,
0.09172069825436409,-0.0203842487499817,
0.09177057356608478,-0.03157428702562757,
0.09182044887780548,-0.02014923466201582,
0.09187032418952619,-0.01142017758528291,
0.09192019950124689,0.006910066736432674,
0.09197007481296758,0.012258242274237835,
0.09201995012468828,-0.00320024731182482,
0.09206982543640897,-0.01422029056802408,
0.09211970074812968,0.0057427126736628396,
0.09216957605985038,0.0010950068584622509,
0.09221945137157107,-0.01007187562679521,
0.09226932668329177,0.01353770723546505,
0.09231920199501246,0.0027408081827483325,
0.09236907730673316,0.02799732515934471,
0.09241895261845387,-0.008015425634904262,
0.09246882793017457,-0.014387913247825474,
0.09251870324189526,0.0046330944390501096,
0.09256857855361596,0.012438743884636082,
0.09261845386533665,-0.00016459246576044397,
0.09266832917705736,0.03162560396841803,
0.09271820448877806,0.015011543383843255,
0.09276807980049875,0.008590044631132152,
0.09281795511221945,0.023773884290221474,
0.09286783042394015,-0.0053856788868290265,
0.09291770573566084,0.010794081613922094,
0.09296758104738155,0.0014706464097323617,
0.09301745635910225,0.026420075519265597,
0.09306733167082294,0.002494378758523582,
0.09311720698254364,0.020167859966645434,
0.09316708229426433,0.00867135422683179,
0.09321695760598504,-0.0020910903819536877,
0.09326683291770574,0.021431168246641732,
0.09331670822942643,-0.00343852728545627,
0.09336658354114713,0.010897894448052965,
0.09341645885286783,0.013022797076745099,
0.09346633416458854,0.00771482836321564,
0.09351620947630923,0.02695340522076932,
0.09356608478802993,0.022502500909940902,
0.09361596009975062,0.0004540727035755674,
0.09366583541147132,0.041607661829332884,
0.09371571072319201,0.009701202576939408,
0.09376558603491272,0.045512467656511665,
0.09381546134663342,0.0380213640450384,
0.09386533665835411,-0.0014519959367127137,
0.09391521197007481,0.031861779753906555,
0.0939650872817955,0.021861053204790204,
0.09401496259351622,0.004121433870204763,
0.09406483790523691,0.02364679368978258,
0.09411471321695761,0.0271210836546798,
0.0941645885286783,0.020776166266431337,
0.094214463840399,0.01700635586346586,
0.0942643391521197,0.006643075186253322,
0.0943142144638404,0.0077812103173481514,
0.0943640897755611,0.03163195498510707,
0.0944139650872818,0.037731940619777984,
0.09446384039900249,0.013798413192947893,
0.09451371571072319,0.016216766821283785,
0.0945635910224439,0.027709377171552405,
0.09461346633416459,-0.004687463292711726,
0.09466334164588529,0.02491859232538865,
0.09471321695760598,0.015810094389300734,
0.09476309226932668,-0.0006191112141944906,
0.09481296758104737,0.044888306587175866,
0.09486284289276808,-0.004715072871136417,
0.09491271820448878,0.03382210983948423,
0.09496259351620948,0.019694409419999063,
0.09501246882793017,0.024549153535462075,
0.09506234413965087,0.007377413864110713,
0.09511221945137158,0.007313492668232061,
0.09516209476309227,0.024522590339283175,
0.09521197007481297,0.03211120351600796,
0.09526184538653366,0.01974758058345534,
0.09531172069825436,0.02609884430075993,
0.09536159600997507,0.021536965747856778,
0.09541147132169576,0.02362159174789419,
0.09546134663341646,0.01670400649741901,
0.09551122194513716,0.03247606537015879,
0.09556109725685785,0.014460060340936335,
0.09561097256857855,0.011946842179939975,
0.09566084788029926,0.054199883509787765,
0.09571072319201995,0.05767691623735208,
0.09576059850374065,0.01371240783882708,
0.09581047381546134,0.033367227174150874,
0.09586034912718204,0.049235619740943135,
0.09591022443890275,0.022107119933867964,
0.09596009975062345,0.03677742501158869,
0.09600997506234414,0.04278095187547273,
0.09605985037406484,0.0435425909956693,
0.09610972568578553,0.024348510741581737,
0.09615960099750623,0.01647450259958242,
0.09620947630922694,0.02379092165081488,
0.09625935162094763,0.06368280841703479,
0.09630922693266833,-0.003176512008960134,
0.09635910224438902,0.010833369696664357,
0.09640897755610972,0.043891007472269664,
0.09645885286783043,0.009510720752073832,
0.09650872817955113,0.02814961135027587,
0.09655860349127182,0.02567096564219798,
0.09660847880299252,0.02288924130544008,
0.09665835411471321,0.02377748438214571,
0.09670822942643391,0.03217597322971178,
0.09675810473815462,0.04372314447419856,
0.09680798004987531,0.046470012660136895,
0.09685785536159601,0.028680700999316387,
0.0969077306733167,0.02426448900773653,
0.0969576059850374,0.02942264281919279,
0.09700748129675811,0.030422323139770863,
0.0970573566084788,0.03391980705676036,
0.0971072319201995,0.0016613813110311695,
0.0971571072319202,0.023145066761014105,
0.0972069825436409,0.02826625924932183,
0.09725685785536159,0.015976719573755644,
0.0973067331670823,0.028260551993101946,
0.097356608478803,0.03560575906167407,
0.09740648379052369,0.01222566913214684,
0.09745635910224439,0.024993081293286003,
0.09750623441396508,-0.0008249756353785366,
0.09755610972568579,0.026311090521069908,
0.09760598503740649,0.03239897952766457,
0.09765586034912718,0.03775537742488719,
0.09770573566084788,0.05185723576956576,
0.09775561097256857,0.0049104375181719465,
0.09780548628428928,0.0020064140009345595,
0.09785536159600998,0.04337434395198245,
0.09790523690773068,0.041559536074548126,
0.09795511221945137,0.04492188416056543,
0.09800498753117207,0.03039714524263524,
0.09805486284289276,0.04185007489996793,
0.09810473815461347,0.023243048815373587,
0.09815461346633417,0.03966211676072108,
0.09820448877805486,0.0404808697987273,
0.09825436408977556,0.010169362380366316,
0.09830423940149625,-0.003146009988722151,
0.09835411471321696,0.01059635932746214,
0.09840399002493766,0.041178882650941606,
0.09845386533665836,0.013687374043987897,
0.09850374064837905,0.014815887149115638,
0.09855361596009975,0.05116640955081032,
0.09860349127182044,0.017095783256630477,
0.09865336658354115,0.021885113870280422,
0.09870324189526185,0.010546633699729743,
0.09875311720698254,0.022325514745826166,
0.09880299251870324,0.030542291577323962,
0.09885286783042393,0.02206026696222285,
0.09890274314214464,0.0205515229686046,
0.09895261845386534,0.017165189583603378,
0.09900249376558604,0.03182832345170866,
0.09905236907730673,0.019282169249035627,
0.09910224438902743,0.04116847059975064,
0.09915211970074812,0.012293096659873748,
0.09920199501246883,0.03506620877246236,
0.09925187032418953,0.032960942214434616,
0.09930174563591022,0.029997428915316066,
0.09935162094763092,0.038062284685144755,
0.09940149625935162,0.01961110719693994,
0.09945137157107233,0.017543620272344365,
0.09950124688279302,0.03970508835754886,
0.09955112219451372,0.037770925888100645,
0.09960099750623441,0.062175221607383674,
0.09965087281795511,0.022375127401391127,
0.0997007481296758,0.02876991817080711,
0.09975062344139651,0.031865264140217314,
0.09980049875311721,0.02196562442596726,
0.0998503740648379,0.02579779756367062,
0.0999002493765586,0.05541882709625182,
0.0999501246882793,0.03713443846037433,
0.1,0.01916956097220542,
0.1000498753117207,0.026270209357466816,
0.1000997506234414,-0.004881175771464727,
0.10014962593516209,0.006809808057037625,
0.10019950124688279,0.02904452890055314,
0.1002493765586035,0.020700609688476694,
0.1002992518703242,0.003725984824833488,
0.10034912718204489,0.01774013666716225,
0.10039900249376559,0.005383724463183047,
0.10044887780548628,0.010289571380912844,
0.10049875311720698,0.020142128740196767,
0.10054862842892769,0.03666019289482084,
0.10059850374064838,0.030299231521718678,
0.10064837905236908,0.024031120289304694,
0.10069825436408977,0.014761575760861269,
0.10074812967581047,0.05739829761101418,
0.10079800498753118,0.021789561993378104,
0.10084788029925187,0.013710994625976313,
0.10089775561097257,0.0001207304709834843,
0.10094763092269327,0.003082499621300243,
0.10099750623441396,0.02567587923038806,
0.10104738154613466,0.04666699333610702,
0.10109725685785537,0.009770790256655728,
0.10114713216957606,0.01980743071202543,
0.10119700748129676,-0.01440826480944667,
0.10124688279301745,0.006797981965715816,
0.10129675810473815,0.015801711598514172,
0.10134663341645886,0.006026837187816526,
0.10139650872817955,0.024611817117681584,
0.10144638403990025,0.021650654638451436,
0.10149625935162095,0.009006789411539252,
0.10154613466334164,0.01389417435005449,
0.10159600997506234,-0.00824886162798736,
0.10164588528678305,0.008369100453734516,
0.10169576059850374,0.019413604867818804,
0.10174563591022444,-0.015070179025761944,
0.10179551122194513,0.0008640603707801529,
0.10184538653366583,0.029313741027817784,
0.10189526184538654,-0.015145755407018372,
0.10194513715710724,0.009674386248840263,
0.10199501246882793,-0.004967903604923711,
0.10204488778054863,0.0034397396179804713,
0.10209476309226932,0.03038031806634673,
0.10214463840399003,0.005509031582665529,
0.10219451371571073,0.006082744744296566,
0.10224438902743142,0.005688662012446963,
0.10229426433915212,0.013472914930973339,
0.10234413965087281,0.018213689568650666,
0.10239401496259351,-0.01488251138409083,
0.10244389027431422,-0.006801034299286281,
0.10249376558603492,0.007038025761247417,
0.10254364089775561,0.007877759307369524,
0.10259351620947631,-0.014488309131104484,
0.102643391521197,-0.006659846987306765,
0.10269326683291771,-0.00045425659439633087,
0.10274314214463841,0.002443297579608726,
0.1027930174563591,0.010989325363419936,
0.1028428927680798,0.015801063477811537,
0.1028927680798005,-0.01672443848873347,
0.10294264339152119,-0.0027799600965404576,
0.1029925187032419,0.013933082800980245,
0.1030423940149626,-0.002101858227595934,
0.10309226932668329,-0.0175252139741918,
0.10314214463840399,-0.011753979153525032,
0.10319201995012468,0.020341072288881275,
0.10324189526184539,-0.02499009463816101,
0.10329177057356609,0.008401592107288322,
0.10334164588528678,-0.022747993879050986,
0.10339152119700748,-0.01371545750984271,
0.10344139650872818,0.011761827864050604,
0.10349127182044887,0.0018057227117718026,
0.10354114713216958,0.010681079705217228,
0.10359102244389028,-0.011947738713022273,
0.10364089775561097,0.0314351248656457,
0.10369077306733167,-0.00360046465797382,
0.10374064837905236,0.012076554987948063,
0.10379052369077307,-0.00012457734886572045,
0.10384039900249377,-0.00895655722956245,
0.10389027431421446,0.0066435895996503685,
0.10394014962593516,-0.005005395942844253,
0.10399002493765586,-0.019734906214143227,
0.10403990024937655,0.0015819299849613524,
0.10408977556109726,-0.0096210733661481,
0.10413965087281796,-0.014605488440850646,
0.10418952618453865,-0.009996227790199116,
0.10423940149625935,-0.01739011257688072,
0.10428927680798004,-0.002259250063795064,
0.10433915211970075,0.0067081650458385355,
0.10438902743142145,0.008172428938989482,
0.10443890274314215,0.0029317116418384782,
0.10448877805486284,0.014159790885918889,
0.10453865336658354,-0.002209293204970115,
0.10458852867830425,0.015297429956326334,
0.10463840399002494,0.01012708780297433,
0.10468827930174564,-0.005598495105049745,
0.10473815461346633,-0.008178045057566495,
0.10478802992518703,0.01336081711958526,
0.10483790523690772,0.0055839456712215504,
0.10488778054862843,-0.007933605848191838,
0.10493765586034913,0.03374792408129862,
0.10498753117206983,-0.0147194011815999,
0.10503740648379052,-0.011695289787871942,
0.10508728179551122,-0.004490333189334285,
0.10513715710723193,-0.012907174693881541,
0.10518703241895262,-0.00858186434907711,
0.10523690773067332,-0.013709202816215658,
0.10528678304239401,0.005372532768998999,
0.10533665835411471,0.019402769623120784,
0.1053865336658354,-0.026836426398268713,
0.10543640897755611,0.02140463195234609,
0.10548628428927681,0.003389584520362412,
0.1055361596009975,-0.0053099207961076235,
0.1055860349127182,-0.0007010142597978991,
0.1056359102244389,-0.0033319921367545476,
0.10568578553615961,0.0038319071776716403,
0.1057356608478803,-0.02099323247659878,
0.105785536159601,0.014961046817028156,
0.1058354114713217,-0.03592233929452763,
0.10588528678304239,-0.0174698882859212,
0.10593516209476309,-0.04401382416416906,
0.1059850374064838,0.00013505131169772554,
0.10603491271820449,0.017273618044889368,
0.10608478802992519,0.015545672191869739,
0.10613466334164588,-0.008213957260071994,
0.10618453865336658,0.017832731623937337,
0.10623441396508729,-0.01648043982731146,
0.10628428927680798,-0.014370512833561836,
0.10633416458852868,-0.025271367121640048,
0.10638403990024937,-0.008351087322143468,
0.10643391521197007,-0.009844039256401725,
0.10648379052369077,-0.007557338414183533,
0.10653366583541148,-0.01110257163896961,
0.10658354114713217,-0.02040470064759336,
0.10663341645885287,0.01813186656457235,
0.10668329177057356,-0.013298037689689485,
0.10673316708229426,0.009208863082670691,
0.10678304239401497,-0.014697780780095312,
0.10683291770573566,0.00210448313676047,
0.10688279301745636,-0.02650597871686329,
0.10693266832917706,-0.012790816485580704,
0.10698254364089775,0.014487532487670542,
0.10703241895261846,-0.022092964375836348,
0.10708229426433916,0.018906867662089676,
0.10713216957605985,-0.029460222731003287,
0.10718204488778055,-0.010241186237517817,
0.10723192019950124,0.005389365056833767,
0.10728179551122194,0.003859063284822802,
0.10733167082294265,-0.014258099041110904,
0.10738154613466334,-0.0014779517178509192,
0.10743142144638404,0.013157947263774963,
0.10748129675810474,-0.024206763506212967,
0.10753117206982543,-0.013653856393843465,
0.10758104738154614,-0.020191747854167424,
0.10763092269326684,0.005159446044629361,
0.10768079800498753,-0.01407073248219226,
0.10773067331670823,0.013421191263490775,
0.10778054862842892,-0.02447120994270855,
0.10783042394014962,0.003745229022349231,
0.10788029925187033,-0.03503028093942123,
0.10793017456359102,-0.025789683146133342,
0.10798004987531172,-0.015216695276669365,
0.10802992518703242,0.020052766143071037,
0.10807980049875311,0.009225313312540201,
0.10812967581047382,0.003605751926416656,
0.10817955112219452,-0.01026648593751356,
0.10822942643391521,-0.03472219925729533,
0.10827930174563591,0.031422363307871334,
0.1083291770573566,-0.016989568988561504,
0.1083790523690773,-0.009743285556673153,
0.10842892768079801,-0.010574774041177527,
0.1084788029925187,-0.02391001460458616,
0.1085286783042394,-0.023302592605135713,
0.1085785536159601,-0.014810161594392118,
0.10862842892768079,0.0030026701429897197,
0.1086783042394015,-0.0011396716648989277,
0.1087281795511222,-0.012642949318425278,
0.1087780548628429,-0.008001652931374309,
0.10882793017456359,-0.004821783706642512,
0.10887780548628428,-0.011534730822938809,
0.108927680798005,-0.03442054752304176,
0.10897755610972569,-0.035687938329134326,
0.10902743142144639,-0.01738718063510469,
0.10907730673316708,-0.018299676604500045,
0.10912718204488778,0.008453267933147397,
0.10917705735660847,-0.03183854793433831,
0.10922693266832918,-0.006239065737078603,
0.10927680798004988,-0.027150310020484583,
0.10932668329177057,0.0008912391470252724,
0.10937655860349127,0.0024832768486967444,
0.10942643391521197,0.02014260986483578,
0.10947630922693267,0.02221117503081984,
0.10952618453865337,-0.00502449184623558,
0.10957605985037407,-0.02792996885361636,
0.10962593516209476,0.001942420111044384,
0.10967581047381546,-0.014039086324835814,
0.10972568578553615,-0.008247533226854533,
0.10977556109725686,0.0029059612454980094,
0.10982543640897756,-0.013356331086787885,
0.10987531172069825,0.00047329414607684417,
0.10992518703241895,-0.0003430142141439916,
0.10997506234413965,-0.016039350974764374,
0.11002493765586036,-0.01613607768790186,
0.11007481296758105,0.004323010343783688,
0.11012468827930175,0.017453002033842778,
0.11017456359102244,0.0022783724099189225,
0.11022443890274314,0.01623085624340813,
0.11027431421446383,-0.014194895075093032,
0.11032418952618454,0.006411519094502797,
0.11037406483790524,-0.032394588523223584,
0.11042394014962593,0.0217502144526079,
0.11047381546134663,-0.021787796944980557,
0.11052369077306733,-0.003007750771668962,
0.11057356608478804,-0.03266255894414253,
0.11062344139650873,0.008942518937749494,
0.11067331670822943,0.0008178753327457954,
0.11072319201995012,0.012856324031060677,
0.11077306733167082,-0.018009830457277283,
0.11082294264339151,-0.0009268202882290275,
0.11087281795511222,-0.021110244466696123,
0.11092269326683292,0.0012624444516407228,
0.11097256857855362,0.003582243851599924,
0.11102244389027431,-0.006482517180433625,
0.111072319201995,-0.013041716322959385,
0.11112219451371572,-0.009268415360156988,
0.11117206982543641,0.002538727093239751,
0.11122194513715711,-0.019258661751706763,
0.1112718204488778,-0.005910685467928751,
0.1113216957605985,0.01661159547727945,
0.11137157107231921,0.015477339776877624,
0.1114214463840399,0.01721874695924947,
0.1114713216957606,-0.03579096311991419,
0.1115211970074813,-0.008579137273768267,
0.11157107231920199,0.012618678433578862,
0.11162094763092269,0.03350111043577196,
0.1116708229426434,-0.018592549650740992,
0.11172069825436409,-0.009081320044083687,
0.11177057356608479,0.005601956346129492,
0.11182044887780548,0.005852459549782328,
0.11187032418952618,-0.011382962215194421,
0.11192019950124689,0.027899422303094522,
0.11197007481296758,0.004284530109294048,
0.11201995012468828,0.024927904185799106,
0.11206982543640898,-0.006783298230414181,
0.11211970074812967,0.016056295922758732,
0.11216957605985037,0.013223411824505416,
0.11221945137157108,-0.0005622026892866542,
0.11226932668329177,0.02124686304369118,
0.11231920199501247,0.020422544324443653,
0.11236907730673316,-0.024849970544479252,
0.11241895261845386,-0.012741312743289494,
0.11246882793017457,-0.004182694231895311,
0.11251870324189527,0.00810013099935391,
0.11256857855361596,-0.014005717861457621,
0.11261845386533666,0.009594536134592232,
0.11266832917705735,0.03434239471534435,
0.11271820448877805,-0.029632676136614758,
0.11276807980049876,0.015104533374650939,
0.11281795511221945,0.0063880755265244065,
0.11286783042394015,0.021042814116928748,
0.11291770573566084,0.001684305054054979,
0.11296758104738154,0.00376178486458658,
0.11301745635910225,-0.0015638005108150489,
0.11306733167082295,0.03369883822129059,
0.11311720698254364,-0.014864576798595127,
0.11316708229426434,0.009225582492066984,
0.11321695760598503,-0.005347379560506141,
0.11326683291770574,-0.001483704725054831,
0.11331670822942644,0.006669863979363588,
0.11336658354114713,0.0009665845162139444,
0.11341645885286783,-0.006785165279558981,
0.11346633416458853,0.014186410243755112,
0.11351620947630922,0.01564641549085304,
0.11356608478802993,0.02501309398499912,
0.11361596009975063,0.010417008019485053,
0.11366583541147132,0.03209172070209511,
0.11371571072319202,0.030621780977611382,
0.11376558603491271,0.004538587302245959,
0.11381546134663342,0.03134470269285862,
0.11386533665835412,0.019150367279072177,
0.11391521197007481,0.007518524002575146,
0.11396508728179551,-0.016651557743227352,
0.1140149625935162,0.002533103107701223,
0.1140648379052369,0.020167491040860314,
0.11411471321695761,0.029356291717331853,
0.1141645885286783,0.027124653780056497,
0.114214463840399,0.011992291320500757,
0.1142643391521197,0.0515048685955979,
0.1143142144638404,0.0037096260139232173,
0.1143640897755611,0.013337605752005672,
0.1144139650872818,0.02199137717507113,
0.1144638403990025,0.041005160882993885,
0.11451371571072319,0.02134976155215927,
0.11456359102244389,0.029061293165854398,
0.11461346633416458,0.0035714151526344117,
0.11466334164588529,0.0021023013840864406,
0.11471321695760599,0.02752213283725583,
0.11476309226932668,-0.012550667792259745,
0.11481296758104738,0.016203744295202823,
0.11486284289276807,0.015222248284885071,
0.11491271820448878,0.020203694057007223,
0.11496259351620948,0.03284808905604247,
0.11501246882793018,0.02390731794926265,
0.11506234413965087,0.00750896445460985,
0.11511221945137157,0.014743627513302156,
0.11516209476309226,0.014633123900341627,
0.11521197007481297,0.029578864995579025,
0.11526184538653367,-0.000582320480666608,
0.11531172069825436,0.04369168205711721,
0.11536159600997506,0.04632105946789025,
0.11541147132169575,0.020073439707091932,
0.11546134663341646,0.03492418038457983,
0.11551122194513716,0.03734679892912868,
0.11556109725685786,0.00412578425964823,
0.11561097256857855,0.06325876098164912,
0.11566084788029925,0.015464092312685,
0.11571072319201996,0.010506043867671387,
0.11576059850374065,0.035741543558551775,
0.11581047381546135,0.020448630561424222,
0.11586034912718204,0.029486328265122465,
0.11591022443890274,0.03447353091067347,
0.11596009975062344,0.00888482386353855,
0.11600997506234415,0.033063939446447546,
0.11605985037406484,0.04445367570388779,
0.11610972568578554,0.024062930202396107,
0.11615960099750623,0.018084773445111127,
0.11620947630922693,0.028153263481963803,
0.11625935162094764,0.031451302980857035,
0.11630922693266833,0.02669680276872151,
0.11635910224438903,0.047313281726551554,
0.11640897755610972,0.028315605607944633,
0.11645885286783042,0.02756100659347587,
0.11650872817955112,0.03700921165119868,
0.11655860349127183,0.015758940029487654,
0.11660847880299252,-0.007936466751153747,
0.11665835411471322,0.013961945797675429,
0.11670822942643391,0.01736501882295235,
0.11675810473815461,0.04323179472677971,
0.11680798004987532,0.03968806814155575,
0.11685785536159601,0.03167544175670509,
0.11690773067331671,0.04331785478319562,
0.1169576059850374,0.06114614273385563,
0.1170074812967581,0.002593075635628238,
0.1170573566084788,0.038235924696498017,
0.1171072319201995,0.010069186047916793,
0.1171571072319202,0.028226103592834274,
0.1172069825436409,0.06219891491826475,
0.1172568578553616,0.01468218427367078,
0.11730673316708229,0.04268102107196376,
0.117356608478803,0.03212244045162488,
0.1174064837905237,0.024212041207227405,
0.11745635910224439,0.010732546904336802,
0.11750623441396509,0.04372270850846403,
0.11755610972568578,0.020859271488621524,
0.11760598503740648,0.008782513773730901,
0.11765586034912719,0.050905925045400355,
0.11770573566084788,0.050107553766436025,
0.11775561097256858,0.014234073574086296,
0.11780548628428927,0.033907255107876164,
0.11785536159600997,0.03952028983973194,
0.11790523690773068,0.03390794602537446,
0.11795511221945137,0.02048753905435545,
0.11800498753117207,0.011860603128413544,
0.11805486284289277,0.028102598032201314,
0.11810473815461346,0.05678442568264813,
0.11815461346633417,0.025776247325382074,
0.11820448877805487,0.016774842613010117,
0.11825436408977556,0.04193562545603041,
0.11830423940149626,0.04343543188272447,
0.11835411471321695,0.0401488329882616,
0.11840399002493765,0.029125274805472525,
0.11845386533665836,0.01342265013344103,
0.11850374064837906,0.001745281328325913,
0.11855361596009975,0.012854382530805553,
0.11860349127182045,0.021117670307908315,
0.11865336658354114,0.041653418624015066,
0.11870324189526185,0.04322616029361459,
0.11875311720698255,0.02357398994704568,
0.11880299251870324,0.010385327441461062,
0.11885286783042394,0.008474602114236871,
0.11890274314214463,0.035349069415140516,
0.11895261845386533,0.017251956666578878,
0.11900249376558604,0.04255873790175503,
0.11905236907730674,0.04525462585089473,
0.11910224438902743,0.025762175057646525,
0.11915211970074813,0.05130149298581729,
0.11920199501246882,0.008667123787370761,
0.11925187032418953,0.03654524813009873,
0.11930174563591023,-0.004896045890857369,
0.11935162094763092,0.014772317713054216,
0.11940149625935162,0.016106902460123952,
0.11945137157107232,0.008767586850528215,
0.11950124688279301,0.026572091519484992,
0.11955112219451372,0.012460212196411129,
0.11960099750623442,0.028941903919699113,
0.11965087281795511,0.009069513069013775,
0.11970074812967581,-0.0006216183290296655,
0.1197506234413965,0.027223806915770622,
0.11980049875311721,0.017369330946696716,
0.11985037406483791,0.020627155988217717,
0.1199002493765586,0.01827722730539037,
0.1199501246882793,0.02863273780814291,
0.12,0.007436990597301775,
0.1200498753117207,0.03937800723647834,
0.1200997506234414,0.005333801832927518,
0.1201496259351621,0.03309221798882291,
0.12019950124688279,0.010648541645546149,
0.12024937655860349,0.02609778856417198,
0.12029925187032418,0.05026562062223748,
0.1203491271820449,0.03785137186936689,
0.12039900249376559,0.030621159430143,
0.12044887780548628,0.020111291656150172,
0.12049875311720698,0.03171563918196249,
0.12054862842892768,0.031995266110702386,
0.12059850374064839,0.023502752657198277,
0.12064837905236908,0.002781046089268352,
0.12069825436408978,0.009014743592944158,
0.12074812967581047,0.01347501658497492,
0.12079800498753117,0.019914033483420697,
0.12084788029925186,0.022820151974277895,
0.12089775561097257,0.04193667967786688,
0.12094763092269327,0.020112374108972753,
0.12099750623441397,0.021404953703141393,
0.12104738154613466,0.013662404888873683,
0.12109725685785536,0.0029367423584989796,
0.12114713216957607,0.018446113102345243,
0.12119700748129676,-0.001491375759664463,
0.12124688279301746,0.0252455442001598,
0.12129675810473815,0.015177984406493154,
0.12134663341645885,0.012508547944758135,
0.12139650872817954,0.028735285619870557,
0.12144638403990025,0.028709285898888527,
0.12149625935162095,0.02866351054445139,
0.12154613466334165,0.018530395545443275,
0.12159600997506234,0.02222821856576491,
0.12164588528678304,0.03225050955881506,
0.12169576059850375,0.032005141022796946,
0.12174563591022444,-0.006221846915179744,
0.12179551122194514,0.00613596903598858,
0.12184538653366583,0.017982644643699683,
0.12189526184538653,0.04399286679307172,
0.12194513715710723,0.017428602243010086,
0.12199501246882793,0.012346232226653974,
0.12204488778054863,0.01439975572279505,
0.12209476309226933,0.005961353861034812,
0.12214463840399002,0.023692050958781477,
0.12219451371571072,0.032471003218635046,
0.12224438902743143,0.023706312640238567,
0.12229426433915212,0.01887298425889696,
0.12234413965087282,0.022290681521270804,
0.12239401496259351,0.0131293571009352,
0.12244389027431421,0.023668453181498014,
0.12249376558603492,-0.01026867527631339,
0.12254364089775562,0.01418090712672601,
0.12259351620947631,0.022104751837533014,
0.122643391521197,0.02270800855509255,
0.1226932668329177,0.011852167945558921,
0.1227431421446384,0.026342624169159,
0.12279301745635911,0.005223877322630645,
0.1228428927680798,0.03120381688747259,
0.1228927680798005,-0.0036361644945214922,
0.1229426433915212,-0.01846342254394393,
0.12299251870324189,0.010485365564714574,
0.1230423940149626,-0.014383579116744075,
0.1230922693266833,0.01779136513343848,
0.12314214463840399,-0.01135173117990917,
0.12319201995012469,0.004854729786316755,
0.12324189526184538,0.008976148299702415,
0.12329177057356608,-0.005004595983888936,
0.12334164588528679,-0.010474119233678962,
0.12339152119700748,0.016348770922064108,
0.12344139650872818,0.025244825853452682,
0.12349127182044888,0.01173423406815233,
0.12354114713216957,0.004298416081705294,
0.12359102244389028,0.02251147643358319,
0.12364089775561098,0.0035136823924771634,
0.12369077306733167,0.017126206488417867,
0.12374064837905237,0.00550804681166314,
0.12379052369077306,0.0157437234222676,
0.12384039900249376,0.018674631894989763,
0.12389027431421447,0.003937333731048084,
0.12394014962593516,0.02546776234383146,
0.12399002493765586,-0.0062656934649515696,
0.12403990024937656,0.017481680654494042,
0.12408977556109725,-0.005813553573052769,
0.12413965087281796,0.0027351103237426063,
0.12418952618453866,0.018146869947313134,
0.12423940149625935,-0.023772892152803954,
0.12428927680798005,0.036797051739414305,
0.12433915211970074,-0.019338069763160548,
0.12438902743142144,0.019593466189071568,
0.12443890274314215,0.0003076143604530073,
0.12448877805486284,-0.0052997531294864475,
0.12453865336658354,0.004002757681157128,
0.12458852867830424,-0.02149832604960802,
0.12463840399002493,-0.024504457820099773,
0.12468827930174564,-0.018446123036488835,
0.12473815461346634,-0.005841062888019021,
0.12478802992518703,-0.025187361914111507,
0.12483790523690773,0.00960587794014056,
0.12488778054862842,-0.004993883481476733,
0.12493765586034913,-0.008029332867041458,
0.12498753117206983,-0.026441312512531435,
0.12503740648379053,0.002857448887247445,
0.12508728179551123,0.004306120452182686,
0.12513715710723192,-0.012973862514328992,
0.12518703241895263,-0.02254083495154137,
0.1252369077306733,0.01792574797647604,
0.12528678304239402,-0.023288957326542833,
0.1253366583541147,-0.009987624627194026,
0.1253865336658354,-0.006256302011267553,
0.12543640897755612,-0.0022628032833623417,
0.1254862842892768,-0.004979411853509636,
0.1255361596009975,0.008174150274053368,
0.1255860349127182,-0.03449667158314748,
0.1256359102244389,0.008443382401802957,
0.1256857855361596,-0.001758820195079792,
0.1257356608478803,-0.026230265266781197,
0.125785536159601,-0.0011215552262793475,
0.12583541147132168,-0.02804960121595973,
0.1258852867830424,-0.02508298979170713,
0.1259351620947631,-0.003759246599328403,
0.12598503740648379,-0.014160581598709733,
0.1260349127182045,-0.016459823835542432,
0.12608478802992518,-0.028133752885804025,
0.1261346633416459,0.016636616444326513,
0.1261845386533666,0.0063064560612639264,
0.12623441396508728,-0.021994686318870617,
0.126284289276808,0.012384151922396749,
0.12633416458852867,-0.009577257605820256,
0.12638403990024938,-0.020889563761323095,
0.1264339152119701,-0.030318536038284008,
0.12648379052369077,-0.013985587399355482,
0.12653366583541148,0.013751982818634236,
0.12658354114713216,0.006887071604229031,
0.12663341645885287,-0.014844205011314147,
0.12668329177057355,0.008148288017004167,
0.12673316708229426,-0.028647221073555884,
0.12678304239401497,-0.0020904116314330945,
0.12683291770573565,0.003391367609311321,
0.12688279301745636,-0.009069102990994126,
0.12693266832917705,0.009889370471693148,
0.12698254364089775,-0.01366848673440969,
0.12703241895261846,-0.02067273070269999,
0.12708229426433915,0.02693085344428077,
0.12713216957605986,-0.006161118723672873,
0.12718204488778054,-0.01859060996983858,
0.12723192019950125,0.0166768755895456,
0.12728179551122196,-0.026955362073908064,
0.12733167082294264,-0.025211518801789453,
0.12738154613466335,-0.0064064660686973685,
0.12743142144638403,-0.008170169422653226,
0.12748129675810474,-0.03429942153264172,
0.12753117206982545,0.004704401678394171,
0.12758104738154613,-0.0014430337770815725,
0.12763092269326684,-0.014003014629711449,
0.12768079800498752,-0.026836215307334696,
0.12773067331670823,0.020276403843016114,
0.1277805486284289,0.001709937827511063,
0.12783042394014962,-0.034017619181432666,
0.12788029925187033,-0.02000356283390163,
0.12793017456359101,-0.012092656043865743,
0.12798004987531172,-0.016034257619966817,
0.1280299251870324,0.011065980671233279,
0.12807980049875312,0.01599865955225848,
0.12812967581047383,-0.020541791362934596,
0.1281795511221945,-0.021704452707645466,
0.12822942643391522,-0.03877465196940816,
0.1282793017456359,-0.01290257079061629,
0.1283291770573566,-0.011788285356975773,
0.12837905236907732,-0.015047375960868543,
0.128428927680798,-0.005128903012366505,
0.1284788029925187,0.0006774168398121765,
0.1285286783042394,-0.029602741465722546,
0.1285785536159601,-0.01320425221715614,
0.1286284289276808,0.013107265067052195,
0.1286783042394015,0.0024327439364830953,
0.1287281795511222,0.0008355477658988208,
0.12877805486284288,-0.021571317140585196,
0.1288279301745636,-0.010787325005322278,
0.1288778054862843,-0.0045649999082830375,
0.12892768079800498,0.0010506654562704113,
0.1289775561097257,-0.0027763293968623487,
0.12902743142144638,-0.018475876379412427,
0.12907730673316709,-0.0036956550046146177,
0.12912718204488777,-0.011289234116332654,
0.12917705735660848,0.010649147063806564,
0.1292269326683292,-0.009287470596479065,
0.12927680798004987,-0.014603459887443517,
0.12932668329177058,-0.007255207033352628,
0.12937655860349126,-0.021975710296988166,
0.12942643391521197,0.014758035456166892,
0.12947630922693268,-0.02666150242880814,
0.12952618453865336,0.008801345808351122,
0.12957605985037407,0.007453069095856689,
0.12962593516209475,-0.004093695454972098,
0.12967581047381546,-0.009541581610062938,
0.12972568578553617,-0.013652701879748846,
0.12977556109725685,-0.014786231238929519,
0.12982543640897756,-0.0014413365842862857,
0.12987531172069824,0.0017661365205032704,
0.12992518703241895,-0.014251537511689259,
0.12997506234413966,-0.014604804685410228,
0.13002493765586035,0.004768536386226846,
0.13007481296758105,0.000128040507146889,
0.13012468827930174,-0.004135145267468696,
0.13017456359102245,-0.02738593204019827,
0.13022443890274316,0.005776079880161931,
0.13027431421446384,-0.025288654820808547,
0.13032418952618455,0.004931522335989435,
0.13037406483790523,0.019235863218468825,
0.13042394014962594,-0.015362366981709114,
0.13047381546134662,-0.024989298411459658,
0.13052369077306733,-0.009267693526925327,
0.13057356608478804,-0.014635947921939863,
0.13062344139650872,-0.005373142150978597,
0.13067331670822943,0.003501650205776919,
0.1307231920199501,-0.004713891348861602,
0.13077306733167082,-0.02530772884965174,
0.13082294264339153,0.033781033928866264,
0.13087281795511221,0.004987229940098761,
0.13092269326683292,0.005740790095766318,
0.1309725685785536,0.026342928630686206,
0.13102244389027431,-0.005861273122293788,
0.13107231920199502,-0.03519707878614654,
0.1311221945137157,-0.0012892969727651819,
0.13117206982543642,0.00043408068155157526,
0.1312219451371571,0.0091016085836073,
0.1312718204488778,0.012638088571842418,
0.13132169576059852,0.0034185994205719727,
0.1313715710723192,-0.00918104162564859,
0.1314214463840399,0.0055446092928254365,
0.1314713216957606,-0.00798947210500867,
0.1315211970074813,-0.0021895361945448357,
0.13157107231920198,0.013513738229429147,
0.1316209476309227,0.028519897034019834,
0.1316708229426434,0.014131323750339557,
0.13172069825436408,-0.006818607024912938,
0.1317705735660848,0.0071522106125109855,
0.13182044887780547,0.010668344305119596,
0.13187032418952618,0.011688227226763881,
0.1319201995012469,-0.02250867824834262,
0.13197007481296757,-0.02661895702439917,
0.13201995012468828,-0.01630661543601504,
0.13206982543640897,-0.003033084478777445,
0.13211970074812968,0.02001957696045779,
0.13216957605985039,0.04953272928639784,
0.13221945137157107,0.005759748328811565,
0.13226932668329178,0.023764946940919598,
0.13231920199501246,0.009463580502849175,
0.13236907730673317,-0.001727619878157634,
0.13241895261845388,-0.0019348990907313377,
0.13246882793017456,-0.009779216806336631,
0.13251870324189527,-0.015732577832690317,
0.13256857855361595,0.00857367141661698,
0.13261845386533666,0.014196621068034054,
0.13266832917705737,0.01654348497876105,
0.13271820448877805,-0.0034222186420333495,
0.13276807980049876,0.018856753589414417,
0.13281795511221944,-0.003683037232846572,
0.13286783042394015,-0.005306819363156008,
0.13291770573566083,0.025839120901625063,
0.13296758104738154,0.005235247401110835,
0.13301745635910225,-0.004874751625663094,
0.13306733167082294,0.020318769601073938,
0.13311720698254365,0.039700182176689865,
0.13316708229426433,0.015037420561914198,
0.13321695760598504,-0.0018273179644000374,
0.13326683291770575,0.019683519059833517,
0.13331670822942643,0.007644752904171554,
0.13336658354114714,0.01819697313785481,
0.13341645885286782,-0.01836418804523498,
0.13346633416458853,0.02296003954098729,
0.13351620947630924,0.00959460513010473,
0.13356608478802992,-0.0014482772432010196,
0.13361596009975063,0.015122804063897616,
0.1336658354114713,0.0025162115241163657,
0.13371571072319202,0.015123319966441487,
0.13376558603491273,0.03413549160772171,
0.1338154613466334,0.016666299701048177,
0.13386533665835412,0.0032823340349017217,
0.1339152119700748,0.00649964840438054,
0.13396508728179551,0.02118984194828723,
0.1340149625935162,0.04177326627534628,
0.1340648379052369,0.005585382655158526,
0.13411471321695762,0.022062449196884965,
0.1341645885286783,0.036033125486477934,
0.134214463840399,0.011532335886057146,
0.1342643391521197,0.015522543910859912,
0.1343142144638404,0.029864229825809326,
0.1343640897755611,0.039748242954019394,
0.1344139650872818,0.016917948658555226,
0.1344638403990025,0.019421459727594865,
0.13451371571072318,0.050218602055953146,
0.1345635910224439,0.014508945688491072,
0.1346134663341646,0.01871060034041888,
0.13466334164588528,0.009214549271854154,
0.134713216957606,0.007812689216605039,
0.13476309226932667,0.007525605767815096,
0.13481296758104738,0.03458265345685278,
0.1348628428927681,0.028394793741032404,
0.13491271820448877,0.033989532115930116,
0.13496259351620948,0.006914703687381849,
0.13501246882793017,0.016242265354609615,
0.13506234413965088,-0.001633696149968878,
0.13511221945137158,-0.008557088429058127,
0.13516209476309227,0.01813312051546119,
0.13521197007481298,0.02414824129720444,
0.13526184538653366,0.026541729803568594,
0.13531172069825437,-0.003602087019637115,
0.13536159600997505,0.01372266471426863,
0.13541147132169576,0.01352898159430523,
0.13546134663341647,0.010726121629380338,
0.13551122194513715,0.013280442683808348,
0.13556109725685786,0.005601407819323261,
0.13561097256857854,0.017163488027416234,
0.13566084788029925,0.013071124351115017,
0.13571072319201996,0.02163333191035073,
0.13576059850374064,0.02448736211575602,
0.13581047381546135,-0.006829729888098185,
0.13586034912718203,0.023755871748627328,
0.13591022443890274,0.028138986648002223,
0.13596009975062345,0.041082411823916504,
0.13600997506234414,0.01792626231344697,
0.13605985037406484,0.011475267557290314,
0.13610972568578553,0.023688329247697603,
0.13615960099750624,0.022355085906097662,
0.13620947630922695,0.0015396815951172066,
0.13625935162094763,0.022995252070861862,
0.13630922693266834,0.032178294042198075,
0.13635910224438902,0.019185154731793143,
0.13640897755610973,0.0455259827613274,
0.1364588528678304,0.02779344636402385,
0.13650872817955112,0.031399200206506425,
0.13655860349127183,0.01933434343287896,
0.1366084788029925,0.01603224792233343,
0.13665835411471322,0.03281582659293914,
0.1367082294264339,0.00770766648765241,
0.1367581047381546,0.03497781079075013,
0.13680798004987532,0.01551687710978588,
0.136857855361596,0.0317536285700843,
0.1369077306733167,0.03582426215687288,
0.1369576059850374,0.028476790718368127,
0.1370074812967581,0.028139316287841557,
0.13705735660847881,0.0199887729255234,
0.1371072319201995,0.033086294879122985,
0.1371571072319202,0.018547244673781257,
0.1372069825436409,0.03937839828194854,
0.1372568578553616,0.04060255324011544,
0.1373067331670823,0.036178346774471994,
0.137356608478803,0.011857943321714498,
0.1374064837905237,0.03318744427926295,
0.13745635910224438,0.043122242288761645,
0.1375062344139651,0.04192293728268294,
0.1375561097256858,0.025933010769360866,
0.13760598503740648,0.03878984612363527,
0.1376558603491272,0.04396286430507219,
0.13770573566084787,0.03192295935828791,
0.13775561097256858,0.0508121848459501,
0.13780548628428926,0.02191455200080068,
0.13785536159600997,0.009153229350577472,
0.13790523690773068,0.051481868395302804,
0.13795511221945136,0.024887746342468965,
0.13800498753117207,0.06746477301480262,
0.13805486284289276,0.032080524900620556,
0.13810473815461347,0.03257127039581866,
0.13815461346633418,0.0002112119624205662,
0.13820448877805486,0.014771770597381433,
0.13825436408977557,0.005532977742413011,
0.13830423940149625,0.04028983261774405,
0.13835411471321696,0.04709280397645177,
0.13840399002493767,-0.0070920929919824,
0.13845386533665835,0.01404536532793365,
0.13850374064837906,0.04787235864520404,
0.13855361596009974,0.02395724629378295,
0.13860349127182045,0.046189506940734676,
0.13865336658354116,0.033849560445901455,
0.13870324189526184,0.02542006061164901,
0.13875311720698255,0.03529710623260986,
0.13880299251870323,0.01761811374350909,
0.13885286783042394,0.02369414464444885,
0.13890274314214462,-0.007065366363788052,
0.13895261845386533,0.010765307653849813,
0.13900249376558604,0.028489424131201677,
0.13905236907730673,0.047472339431507395,
0.13910224438902744,0.0005472465569086697,
0.13915211970074812,0.006103772675694556,
0.13920199501246883,0.02248597934685679,
0.13925187032418954,0.034314706662138414,
0.13930174563591022,0.04343370810013015,
0.13935162094763093,0.04622567506035787,
0.1394014962593516,0.006546748498140499,
0.13945137157107232,0.020579777889735855,
0.13950124688279303,0.04212240466347365,
0.1395511221945137,0.03701333330345276,
0.13960099750623442,0.04363399937092803,
0.1396508728179551,0.030373421097391887,
0.1397007481296758,0.02661016888782497,
0.13975062344139652,0.01721323942276888,
0.1398004987531172,0.012695511626848942,
0.1398503740648379,0.02170393944105089,
0.1399002493765586,0.03823650645121689,
0.1399501246882793,0.03395988065603982,
0.14,0.03294706737341927,
0.1400498753117207,0.010443335456100846,
0.1400997506234414,0.05904614414807232,
0.1401496259351621,0.02040546998735005,
0.1401995012468828,0.024357336022512704,
0.14024937655860348,0.005975024470085778,
0.1402992518703242,0.024463037607414202,
0.1403491271820449,0.011847402294041852,
0.14039900249376558,0.04727518853634308,
0.1404488778054863,0.005973063991274105,
0.14049875311720697,0.02640533020901467,
0.14054862842892768,0.007000938112498727,
0.1405985037406484,0.005658683161979882,
0.14064837905236907,0.033182900612540436,
0.14069825436408978,0.021653876151743304,
0.14074812967581046,0.04323484588400325,
0.14079800498753117,-0.001868368467991769,
0.14084788029925188,0.02690372812203089,
0.14089775561097256,0.03698091203322959,
0.14094763092269327,0.012246240739739773,
0.14099750623441396,0.035721890227849724,
0.14104738154613466,0.03626945532791959,
0.14109725685785537,0.009453132643766928,
0.14114713216957606,0.03557029021930401,
0.14119700748129677,0.031651671304290196,
0.14124688279301745,-0.017727681414094164,
0.14129675810473816,0.015848501826656498,
0.14134663341645887,0.009124413323921554,
0.14139650872817955,0.024650999116602075,
