time,amplitude,label
0.0,-0.004771867200221935,
4.987531172069826e-05,-0.01839750217777373,
9.975062344139652e-05,0.010582773225773374,
0.00014962593516209475,0.009521090116650761,
0.00019950124688279303,0.015170289553030014,
0.00024937655860349125,0.005897840396781151,
0.0002992518703241895,0.03179233188513744,
0.00034912718204488776,-0.005473985174151955,
0.00039900249376558606,-0.01822801799531377,
0.0004488778054862843,-0.012016337116822321,
0.0004987531172069825,0.009014399700898538,
0.0005486284289276808,0.00035430648865918037,
0.000598503740648379,-0.002738982613893724,
0.0006483790523690773,-0.017052919211263284,
0.0006982543640897755,-0.0059518435508589,
0.0007481296758104738,0.008142251596936026,
0.0007980049875311721,0.007865785467007443,
0.0008478802992518703,0.0015029193684250241,
0.0008977556109725686,0.008655495600635624,
0.0009476309226932668,-0.0010318736403124246,
0.000997506234413965,-0.01538928956701826,
0.0010473815461346633,0.025551693133405,
0.0010972568578553616,0.02142528336557093,
0.00114713216957606,0.028574556939610765,
0.001197007481296758,0.01251349493731541,
0.0012468827930174563,0.009068914940499037,
0.0012967581047381546,0.016594569770104477,
0.001346633416458853,0.019873862681627677,
0.001396508728179551,0.006199585110939786,
0.0014463840399002493,0.013967405241854806,
0.0014962593516209476,0.03381705699330127,
0.001546134663341646,-0.0103308969314966,
0.0015960099750623442,0.009641902242826876,
0.0016458852867830423,0.02049615971900722,
0.0016957605985037406,-0.005440030218050481,
0.001745635910224439,0.0022148180357456724,
0.0017955112219451373,0.014552894104095956,
0.0018453865336658353,0.03485779406321508,
0.0018952618453865336,0.017171234657192582,
0.001945137157107232,0.016105184171443864,
0.00199501246882793,0.00880322804013868,
0.0020448877805486283,-0.0009319969532884942,
0.0020947630922693266,0.019130129282330897,
0.002144638403990025,0.03194535753161366,
0.0021945137157107233,-0.006236509907914946,
0.0022443890274314216,0.03168128312928856,
0.00229426433915212,0.012039122824706922,
0.0023441396508728177,0.020410818056005486,
0.002394014962593516,0.016003177376352897,
0.0024438902743142144,0.001886965391144942,
0.0024937655860349127,0.028157538784514775,
0.002543640897755611,0.015468538335988822,
0.0025935162094763093,-0.0012490272742675234,
0.0026433915211970076,-0.002684523504421988,
0.002693266832917706,0.048211313638669796,
0.002743142144638404,0.02333733103703041,
0.002793017456359102,0.0081856616791603,
0.0028428927680798004,-0.0028989933381104553,
0.0028927680798004987,0.02049110121657429,
0.002942643391521197,0.007539450394916847,
0.0029925187032418953,0.0369954192694773,
0.0030423940149625936,0.03249748484378972,
0.003092269326683292,0.009642619659954648,
0.00314214463840399,0.0462299283869866,
0.0031920199501246885,0.03969237132071059,
0.0032418952618453864,0.004626603757031514,
0.0032917705735660847,0.01729449460728706,
0.003341645885286783,-0.005947898089763828,
0.0033915211970074813,0.03521667407542131,
0.0034413965087281796,0.017536786806113938,
0.003491271820448878,0.025519309899794482,
0.003541147132169576,-0.0029142646898878653,
0.0035910224438902745,0.028067205143928194,
0.0036408977556109724,0.03463012601132038,
0.0036907730673316707,0.02753485483328523,
0.003740648379052369,0.00043790746828920035,
0.0037905236907730673,0.030169230715487334,
0.0038403990024937656,0.01685301422323463,
0.003890274314214464,0.018924362110113533,
0.003940149625935162,-0.002106601888725801,
0.00399002493765586,0.025330617942698905,
0.004039900249376558,0.02167067982256862,
0.004089775561097257,0.04583986179592128,
0.004139650872817955,-0.007243299128376693,
0.004189526184538653,0.021912648345650394,
0.004239401496259352,-0.010375227738578637,
0.00428927680798005,0.010166804396027575,
0.004339152119700748,0.03210524963174112,
0.0043890274314214465,0.03369714329107977,
0.004438902743142145,0.02779290474628148,
0.004488778054862843,0.011212865022765812,
0.004538653366583541,0.00950700730368826,
0.00458852867830424,0.030391651716710398,
0.004638403990024938,0.015308325328661289,
0.0046882793017456355,0.025565342931515016,
0.004738154613466334,0.005272441613009866,
0.004788029925187032,0.028231934017269554,
0.00483790523690773,0.02246115589540125,
0.004887780548628429,0.0011856914536817302,
0.004937655860349127,0.008272277184405829,
0.004987531172069825,0.03299141719566458,
0.005037406483790524,0.02463130938902218,
0.005087281795511222,0.00758713387421364,
0.00513715710723192,0.009975326573385422,
0.0051870324189526185,0.02611919919103145,
0.005236907730673317,0.035372831399399327,
0.005286783042394015,0.005698389211541801,
0.0053366583541147134,0.0193516126895695,
0.005386533665835412,0.02933685818188015,
0.00543640897755611,0.032668523757672874,
0.005486284289276808,0.003019086223787812,
0.005536159600997507,0.04387290078474809,
0.005586034912718204,0.04250716332886252,
0.005635910224438902,0.01797346809253114,
0.005685785536159601,0.005570375298494327,
0.005735660847880299,0.02469470018349171,
0.005785536159600997,0.001424046390244172,
0.005835411471321696,0.015798452493302424,
0.005885286783042394,0.017767313947834998,
0.005935162094763092,0.03128758879360397,
0.0059850374064837905,-0.009209790782927735,
0.006034912718204489,0.011483313281767646,
0.006084788029925187,0.006800697908167976,
0.0061346633416458855,0.020431997565924474,
0.006184538653366584,0.02127625153577077,
0.006234413965087282,0.023009431776964948,
0.00628428927680798,0.02180626113353887,
0.006334164588528679,0.010459500782908814,
0.006384039900249377,0.008311780415647318,
0.006433915211970074,0.009690014809732621,
0.006483790523690773,0.020158249359338628,
0.006533665835411471,0.03403940340101763,
0.006583541147132169,0.03857951591341348,
0.006633416458852868,0.033706659773913614,
0.006683291770573566,0.018735884527852534,
0.006733167082294264,0.015281384128035954,
0.0067830423940149626,0.03506095374615616,
0.006832917705735661,0.023514496315055363,
0.006882793017456359,0.019852665965678404,
0.0069326683291770575,0.013503798699857789,
0.006982543640897756,0.034961531734344464,
0.007032418952618454,0.0009437304103797894,
0.007082294264339152,-0.013116911297930255,
0.007132169576059851,0.003287337718644638,
0.007182044887780549,0.016478322946484283,
0.007231920199501247,0.0238665392915904,
0.007281795511221945,0.008715308592957452,
0.007331670822942643,-0.005644920478658879,
0.007381546134663341,0.040061233955748954,
0.00743142144638404,0.030186565153780535,
0.007481296758104738,0.019971238894601732,
0.007531172069825436,-0.0034371251946971344,
0.007581047381546135,0.006643518566772511,
0.007630922693266833,0.033986564699277966,
0.007680798004987531,0.003947817183709139,
0.0077306733167082295,0.002580705293570164,
0.007780548628428928,0.027437143081630908,
0.007830423940149626,0.04526670576218314,
0.007880299251870324,0.007433190320073823,
0.007930174563591023,0.02062142492614475,
0.00798004987531172,0.028692106813616794,
0.00802992518703242,-0.000597390939798742,
0.008079800498753117,0.019689574486559648,
0.008129675810473816,0.010574016410334838,
0.008179551122194513,0.013136708569955018,
0.008229426433915213,-0.023845194220120124,
0.00827930174563591,-0.014650448119932422,
0.00832917705735661,0.008154636752892172,
0.008379052369077307,0.005491211774367466,
0.008428927680798006,-0.009864589920021398,
0.008478802992518703,0.0018002833638958316,
0.0085286783042394,0.001218009240740569,
0.0085785536159601,0.010321150468194745,
0.008628428927680797,0.0044299743668259825,
0.008678304239401496,-0.0033688157564879034,
0.008728179551122194,0.02992559526713438,
0.008778054862842893,-0.011515148503978237,
0.00882793017456359,0.02536629616441701,
0.00887780548628429,-0.022437784427144315,
0.008927680798004987,0.013245470194212058,
0.008977556109725686,0.013542984684372091,
0.009027431421446384,0.01638196878588266,
0.009077306733167083,0.009348569919770941,
0.00912718204488778,-0.004053480057367506,
0.00917705735660848,0.023724200970886143,
0.009226932668329177,0.006637268565442448,
0.009276807980049876,0.011754995460503789,
0.009326683291770574,0.009611305750855162,
0.009376558603491271,-0.004765456371227366,
0.00942643391521197,0.008433214315038264,
0.009476309226932668,0.04483874082371037,
0.009526184538653367,-0.003069140079062717,
0.009576059850374064,-0.004584186379143234,
0.009625935162094763,0.018530391126045733,
0.00967581047381546,0.008795245166307745,
0.00972568578553616,-0.002382174402122423,
0.009775561097256857,-0.0009981494064341032,
0.009825436408977557,0.00927687316258277,
0.009875311720698254,-0.018514803121655366,
0.009925187032418953,0.0017593933180867168,
0.00997506234413965,0.018855266359924325,
0.01002493765586035,0.007124281828694309,
0.010074812967581047,-0.002390098364964884,
0.010124688279301746,0.003312070938389606,
0.010174563591022444,-0.04975659478093143,
0.010224438902743141,0.0005602236965698386,
0.01027431421446384,0.00340534822426928,
0.010324189526184538,-0.0015498408764305165,
0.010374064837905237,0.013061574728820474,
0.010423940149625935,-0.021510925600010604,
0.010473815461346634,0.024366197971631004,
0.010523690773067331,-0.034615459609636585,
0.01057356608478803,-0.006736539041985363,
0.010623441396508728,-0.003439357329033961,
0.010673316708229427,-0.017176774014826736,
0.010723192019950124,-0.003946843997545327,
0.010773067331670824,-0.001139023918540173,
0.010822942643391521,-0.0021879700667579442,
0.01087281795511222,-0.006432004319730109,
0.010922693266832918,0.0011558131353498835,
0.010972568578553617,0.021807595196038886,
0.011022443890274314,0.016902078706999137,
0.011072319201995013,-0.014205784544424283,
0.01112219451371571,-0.01664277294331308,
0.011172069825436408,0.012711302244279719,
0.011221945137157107,-0.0173127393294135,
0.011271820448877805,-0.019998862766389125,
0.011321695760598504,-0.046220120979816606,
0.011371571072319201,0.003237699451658197,
0.0114214463840399,-0.029069568746794013,
0.011471321695760598,-0.02359887428354768,
0.011521197007481297,-0.00564985620745668,
0.011571072319201995,-0.00428598720809457,
0.011620947630922694,-0.0164007817974977,
0.011670822942643391,0.002240639396566827,
0.01172069825436409,-0.0010826844082243246,
0.011770573566084788,-0.007073107282748145,
0.011820448877805487,-0.010102246311684127,
0.011870324189526184,-0.0037315628456867783,
0.011920199501246884,-0.023582609948905743,
0.011970074812967581,-0.0383963050730916,
0.012019950124688279,-0.012814075376052234,
0.012069825436408978,-0.028158325115572362,
0.012119700748129675,0.0029666437487754563,
0.012169576059850374,0.0027269120315371598,
0.012219451371571072,-0.004085774799656192,
0.012269326683291771,-0.04217950343116165,
0.012319201995012468,-0.016816458006821706,
0.012369077306733168,-0.004671420968213132,
0.012418952618453865,0.004073036466552521,
0.012468827930174564,-0.033641496540080106,
0.012518703241895262,-0.005436503157485386,
0.01256857855361596,-0.016455861025706054,
0.012618453865336658,-0.0034093693042599148,
0.012668329177057357,-0.026917479994434,
0.012718204488778055,-0.008070261995181991,
0.012768079800498754,-0.025721914802146327,
0.012817955112219451,-0.015836548934353538,
0.012867830423940149,0.008001732303202136,
0.012917705735660848,-0.005439622452622974,
0.012967581047381545,-0.01891957698466493,
0.013017456359102245,-0.019219034139879167,
0.013067331670822942,-0.02281639504888043,
0.013117206982543641,-0.027869732611676808,
0.013167082294264339,-0.028547034564518563,
0.013216957605985038,-0.014152770455962636,
0.013266832917705735,-0.023253122241387404,
0.013316708229426434,-0.021620371893765696,
0.013366583541147132,-0.03763225461257268,
0.013416458852867831,-0.018994783746809147,
0.013466334164588529,-0.01188117362501949,
0.013516209476309228,-0.0009300754959624159,
0.013566084788029925,-0.023376418028602953,
0.013615960099750624,-0.02473365870514254,
0.013665835411471322,-0.015535283897091206,
0.01371571072319202,-0.022083682314096187,
0.013765586034912718,-0.044158577779234966,
0.013815461346633416,-0.0012648720666867987,
0.013865336658354115,-0.004096926139298802,
0.013915211970074812,-0.004984508210184192,
0.013965087281795512,-0.003628839866092229,
0.014014962593516209,-0.009628321471125547,
0.014064837905236908,-0.04501681683327338,
0.014114713216957606,0.005059200557823371,
0.014164588528678305,-0.012028545402905105,
0.014214463840399002,-0.005832040968769511,
0.014264339152119701,-0.024038128385715785,
0.014314214463840399,-0.006631425613804726,
0.014364089775561098,-0.025048971719942085,
0.014413965087281795,-0.03171021991772407,
0.014463840399002495,-0.0216415231033729,
0.014513715710723192,-0.018432902117262725,
0.01456359102244389,0.007181176589005956,
0.014613466334164589,0.009227161425687486,
0.014663341645885286,-0.05012714710780763,
0.014713216957605985,-0.03554026623356124,
0.014763092269326683,-0.006398322341683199,
0.014812967581047382,-0.008969006114217826,
0.01486284289276808,-0.0084422936412151,
0.014912718204488778,-0.021707702879261916,
0.014962593516209476,-0.029272093888432806,
0.015012468827930175,-0.019466203542605476,
0.015062344139650873,-0.013461179042087386,
0.015112219451371572,0.0006032870581292038,
0.01516209476309227,-0.0046191195877024055,
0.015211970074812968,-0.019452949722379858,
0.015261845386533666,-0.0030653928941229373,
0.015311720698254365,-0.04115792901010128,
0.015361596009975062,-0.008719095753352012,
0.01541147132169576,-0.0438272324563343,
0.015461346633416459,-0.0335619110560558,
0.015511221945137156,-0.04273873871607062,
0.015561097256857856,-0.0010688275636810442,
0.015610972568578553,-0.009391549466166571,
0.015660847880299252,-0.015752404866208273,
0.01571072319201995,0.00457978558526884,
0.015760598503740647,-0.0324562294009474,
0.015810473815461346,-0.012140171644517818,
0.015860349127182045,-0.011796808780208693,
0.015910224438902745,-0.011143814853801184,
0.01596009975062344,-0.03064080458854552,
0.01600997506234414,-0.0020517969837764126,
0.01605985037406484,-0.0024403099434634687,
0.016109725685785538,-0.0020302942981132617,
0.016159600997506234,-0.030204436622451744,
0.016209476309226933,0.0007377919027219161,
0.016259351620947632,-0.03241615511829435,
0.016309226932668328,-0.023267713450256994,
0.016359102244389027,0.002499591122747443,
0.016408977556109726,-0.014961472672044295,
0.016458852867830425,-0.014756394992005907,
0.01650872817955112,0.0054405324271934175,
0.01655860349127182,-0.0026729320858488587,
0.01660847880299252,-0.008711573204331394,
0.01665835411471322,-0.04345450357587057,
0.016708229426433914,-0.0019894143491444288,
0.016758104738154613,-0.001429736018811847,
0.016807980049875312,0.0031763340106369334,
0.01685785536159601,-0.007249537495542591,
0.016907730673316707,-0.03432089138424832,
0.016957605985037406,0.00010671586765317181,
0.017007481296758106,0.0028056161657967673,
0.0170573566084788,0.018011277805727685,
0.0171072319201995,-0.0003174475465073639,
0.0171571072319202,0.004308785075860829,
0.0172069825436409,-0.002417642910247958,
0.017256857855361595,-0.016518994712820024,
0.017306733167082294,-0.02735663941761613,
0.017356608478802993,-0.021868504781261476,
0.017406483790523692,0.0013407654353543418,
0.017456359102244388,-0.026845815471348594,
0.017506234413965087,-0.01598775745838993,
0.017556109725685786,-0.036293258513015195,
0.017605985037406485,0.006208176499181463,
0.01765586034912718,-0.021792067018637305,
0.01770573566084788,-0.018997833896794363,
0.01775561097256858,-0.022529942379610958,
0.01780548628428928,0.0455386729269138,
0.017855361596009974,-0.014121884955687636,
0.017905236907730673,-0.019054756715407083,
0.017955112219451373,-0.039838476471699254,
0.018004987531172068,-0.0010363395364656521,
0.018054862842892767,0.019487992907033073,
0.018104738154613467,-0.01438273245771178,
0.018154613466334166,0.0012913732553604864,
0.01820448877805486,-0.018248828038959802,
0.01825436408977556,-0.012498994954146705,
0.01830423940149626,-0.0010105077758574875,
0.01835411471321696,-0.0018432848641619847,
0.018403990024937655,-0.011698873369077356,
0.018453865336658354,0.011598849949350096,
0.018503740648379053,-0.029317517201635147,
0.018553615960099752,-0.0022932836032797483,
0.018603491271820448,-0.01776204307819939,
0.018653366583541147,0.0247914424389516,
0.018703241895261846,-0.03253407193333656,
0.018753117206982542,-0.019342982732902192,
0.01880299251870324,0.005186915031202429,
0.01885286783042394,-0.006726047705406243,
0.01890274314214464,0.006038313246169432,
0.018952618453865335,-0.0045077631629966645,
0.019002493765586034,-0.006595549121238853,
0.019052369077306733,-0.025801252298852877,
0.019102244389027433,-0.036382688838163736,
0.01915211970074813,-0.017577495244983643,
0.019201995012468828,-0.0002857780764827342,
0.019251870324189527,0.012561638710769728,
0.019301745635910226,-0.031399141313580535,
0.01935162094763092,0.03247979253930992,
0.01940149625935162,0.0038436056396189025,
0.01945137157107232,-0.016823049878510535,
0.01950124688279302,-0.01690460181308309,
0.019551122194513715,0.026890035013387274,
0.019600997506234414,-0.010372291003745208,
0.019650872817955113,-0.01909325369949822,
0.01970074812967581,-0.018111044421426376,
0.019750623441396508,0.021450325432673733,
0.019800498753117207,-0.01972220673276647,
0.019850374064837906,-0.013451900937943566,
0.019900249376558602,0.009215573892051273,
0.0199501246882793,-0.009104248401987876,
0.02,-0.0010054408070107822,
0.0200498753117207,0.007722929280578781,
0.020099750623441395,0.00710107109430224,
0.020149625935162094,0.005899823816951267,
0.020199501246882794,-0.006382705420238791,
0.020249376558603493,0.016718308131661995,
0.02029925187032419,0.006923311324439846,
0.020349127182044888,0.008935209940223152,
0.020399002493765587,0.006205888398784512,
0.020448877805486283,0.0208961008597119,
0.02049875311720698,0.012919072642759034,
0.02054862842892768,-0.008720765783450341,
0.02059850374064838,0.0027977055988132687,
0.020648379052369076,0.016217817328472647,
0.020698254364089775,0.014521344336291797,
0.020748129675810474,0.0062529440617030575,
0.020798004987531173,0.006793949697238504,
0.02084788029925187,0.012941398998883911,
0.020897755610972568,-0.004889600842430975,
0.020947630922693267,-0.015254111707309602,
0.020997506234413967,0.016164257381911233,
0.021047381546134662,0.03119645438537994,
0.02109725685785536,0.005441630781513478,
0.02114713216957606,0.04377852255382961,
0.02119700748129676,-0.001387992484501747,
0.021246882793017455,0.011877364881139585,
0.021296758104738155,0.0038441576286208957,
0.021346633416458854,0.006747966991916402,
0.02139650872817955,-8.932095297095426e-05,
0.02144638403990025,0.0219264000517616,
0.021496259351620948,0.015345018417554179,
0.021546134663341647,0.022838669481016424,
0.021596009975062343,-0.0025873178964440097,
0.021645885286783042,0.03325814383885566,
0.02169576059850374,-0.012749966542321798,
0.02174563591022444,-0.0023906369786067094,
0.021795511221945136,-0.016351577714274222,
0.021845386533665835,0.00437171397941408,
0.021895261845386534,0.00940242748315489,
0.021945137157107233,0.005957350209418734,
0.02199501246882793,0.020240497823379854,
0.02204488778054863,0.017127888981429532,
0.022094763092269327,0.03346529931650996,
0.022144638403990027,0.02699104340059108,
0.022194513715710722,0.018367905403006684,
0.02224438902743142,0.003355023537183064,
0.02229426433915212,0.009077552681543265,
0.022344139650872816,0.00221165510986443,
0.022394014962593516,4.020984102079406e-05,
0.022443890274314215,0.025903519779657363,
0.022493765586034914,0.031505850404548764,
0.02254364089775561,0.015685991494201565,
0.02259351620947631,-0.0008606238278862539,
0.022643391521197008,0.011946299939104147,
0.022693266832917707,0.01392225945807268,
0.022743142144638403,0.015738993173194556,
0.022793017456359102,0.009098048762266416,
0.0228428927680798,0.002402612400026864,
0.0228927680798005,0.011416585183829491,
0.022942643391521196,0.010854718896966547,
0.022992518703241895,0.028541422098485474,
0.023042394014962594,-0.0036365109233616015,
0.02309226932668329,0.03673336444330251,
0.02314214463840399,0.012472969740823334,
0.02319201995012469,0.01118682114395619,
0.023241895261845388,0.036210242670276616,
0.023291770573566083,0.03872155357581211,
0.023341645885286783,0.00818557646963435,
0.02339152119700748,0.0040152252890891076,
0.02344139650872818,0.031394383802312936,
0.023491271820448877,0.019895711126981724,
0.023541147132169576,0.017630464638602544,
0.023591022443890275,0.0015064384121916928,
0.023640897755610974,0.013686401167993714,
0.02369077306733167,0.01709066554009,
0.02374064837905237,0.03597600550975813,
0.023790523690773068,0.043718272371208615,
0.023840399002493767,0.015188582120908558,
0.023890274314214463,0.007560654289919777,
0.023940149625935162,0.012948950082041884,
0.02399002493765586,0.0038784375125664045,
0.024039900249376557,0.05165942166105364,
0.024089775561097256,0.020599611600667887,
0.024139650872817955,0.016048518172766774,
0.024189526184538655,0.035148359408603225,
0.02423940149625935,-0.01102435701315049,
0.02428927680798005,0.025831446165269688,
0.02433915211970075,0.032378757214465974,
0.024389027431421448,0.028286960675509926,
0.024438902743142144,0.032998107427478926,
0.024488778054862843,0.008480627194685123,
0.024538653366583542,0.02847108241105758,
0.02458852867830424,0.006054397742856533,
0.024638403990024937,0.0024911082806782434,
0.024688279301745636,0.023205558400951082,
0.024738154613466335,0.02402766411594842,
0.02478802992518703,0.021409055661409288,
0.02483790523690773,0.022760296327032692,
0.02488778054862843,0.02891603830756499,
0.02493765586034913,0.010362708860502633,
0.024987531172069824,0.011208943465319882,
0.025037406483790523,0.009290393265406703,
0.025087281795511222,0.017655777796018485,
0.02513715710723192,0.04250340142375039,
0.025187032418952617,0.03454218220659272,
0.025236907730673316,0.025511336836372724,
0.025286783042394016,0.041435784675331384,
0.025336658354114715,0.010307924483198021,
0.02538653366583541,0.03299215217995124,
0.02543640897755611,0.0619909944536627,
0.02548628428927681,0.04535322914296093,
0.025536159600997508,0.0386871630538209,
0.025586034912718204,0.01916685979123227,
0.025635910224438903,0.03375322764611491,
0.025685785536159602,-0.008869723521215747,
0.025735660847880298,0.03219658867139019,
0.025785536159600997,0.028798900400345686,
0.025835411471321696,0.023951105485255298,
0.025885286783042395,0.04386896555431973,
0.02593516209476309,0.03949451088249474,
0.02598503740648379,-0.008193950292668773,
0.02603491271820449,0.007003521367127964,
0.02608478802992519,0.05350932142519209,
0.026134663341645884,0.027692124028350563,
0.026184538653366583,0.016077197686669202,
0.026234413965087282,0.03230057397622032,
0.02628428927680798,0.028611526953896016,
0.026334164588528677,0.03246293252369897,
0.026384039900249377,0.016103397455633415,
0.026433915211970076,0.023118918752178287,
0.02648379052369077,0.005041372966266175,
0.02653366583541147,0.016748635502678015,
0.02658354114713217,0.010701072457068424,
0.02663341645885287,0.00996706061616587,
0.026683291770573565,0.02527321551169606,
0.026733167082294264,0.04873887190310285,
0.026783042394014963,0.02923676100107002,
0.026832917705735662,0.01299629001911761,
0.026882793017456358,0.017039579128808487,
0.026932668329177057,0.023431816819253853,
0.026982543640897756,0.01762869006679143,
0.027032418952618455,-0.01303321882236435,
0.02708229426433915,0.01898892373472967,
0.02713216957605985,-0.0014937156487349508,
0.02718204488778055,0.009450203650234586,
0.02723192019950125,-0.0014446219966971485,
0.027281795511221944,0.0299539157561866,
0.027331670822942643,0.03998938573967109,
0.027381546134663343,0.012602264018968735,
0.02743142144638404,0.023091832491546616,
0.027481296758104738,0.006258580792320757,
0.027531172069825437,0.007397132714290792,
0.027581047381546136,0.008634450566743494,
0.02763092269326683,0.0013180871878075377,
0.02768079800498753,0.024934310679786967,
0.02773067331670823,0.021188250693131107,
0.02778054862842893,0.022147134860587732,
0.027830423940149625,-0.006640412963507519,
0.027880299251870324,0.03235356120628987,
0.027930174563591023,0.007736540762453933,
0.027980049875311722,-0.0068856897780771465,
0.028029925187032418,0.010542169072207381,
0.028079800498753117,0.01397915468402936,
0.028129675810473816,-0.0041425437542859,
0.028179551122194512,-0.007669511261830037,
0.02822942643391521,0.022899688260602936,
0.02827930174563591,0.02582455781941907,
0.02832917705735661,0.022365085602543775,
0.028379052369077305,-0.0007492473358937969,
0.028428927680798004,0.001906350939324156,
0.028478802992518704,0.03795844816322456,
0.028528678304239403,0.0009059430557909198,
0.0285785536159601,0.0065989772310758674,
0.028628428927680798,0.0009012108707491702,
0.028678304239401497,0.019228497329036726,
0.028728179551122196,0.009890423539631469,
0.02877805486284289,-0.026904728959742122,
0.02882793017456359,0.01218074705520849,
0.02887780548628429,0.01788073864730483,
0.02892768079800499,0.02433877925955944,
0.028977556109725685,0.028586137559417517,
0.029027431421446384,0.0018596210858989682,
0.029077306733167083,0.00920821587458758,
0.02912718204488778,0.0058980679908561115,
0.029177057356608478,0.010242210256688783,
0.029226932668329177,0.02820574308780312,
0.029276807980049877,-0.0049580690724518655,
0.029326683291770572,-0.0061307227575026985,
0.02937655860349127,0.0027102919732172204,
0.02942643391521197,-0.0031487599788276944,
0.02947630922693267,0.022204168849234925,
0.029526184538653365,0.009250362855814372,
0.029576059850374065,0.0050568921313792654,
0.029625935162094764,0.010771823032850198,
0.029675810473815463,-0.00793112772016526,
0.02972568578553616,0.014525043297873364,
0.029775561097256858,-0.006415390254674477,
0.029825436408977557,-0.016019795261090333,
0.029875311720698253,-0.027883695868922847,
0.029925187032418952,0.010147221429394736,
0.02997506234413965,0.012807728611784567,
0.03002493765586035,0.025408838250749025,
0.030074812967581046,0.012606435405848658,
0.030124688279301745,-0.029811116984320575,
0.030174563591022444,0.002202135928295749,
0.030224438902743143,-0.00035209395722852056,
0.03027431421446384,-0.014385161043019526,
0.03032418952618454,0.010383049054044843,
0.030374064837905237,-0.0013598119596154312,
0.030423940149625937,0.020800016728581654,
0.030473815461346632,0.0225148608096555,
0.03052369077306733,-0.006924595001751129,
0.03057356608478803,0.023007017322980966,
0.03062344139650873,-0.01773474522547307,
0.030673316708229426,-0.014315669677060251,
0.030723192019950125,0.003066557444458669,
0.030773067331670824,-0.024704461011048628,
0.03082294264339152,-0.009159328951963482,
0.03087281795511222,-0.020475180792103073,
0.030922693266832918,-0.018359554738262118,
0.030972568578553617,0.0050561959344458205,
0.031022443890274313,0.004470730193620176,
0.031072319201995012,-0.012259990186318653,
0.03112219451371571,-0.006447808864554192,
0.03117206982543641,-0.019633817178332142,
0.031221945137157106,-0.021850564172401478,
0.03127182044887781,0.02090571000675223,
0.031321695760598504,0.004358425420509262,
0.0313715710723192,-0.03257113948571766,
0.0314214463840399,-0.015948530728130357,
0.0314713216957606,-0.013989217355390444,
0.031521197007481294,0.009727001434359422,
0.031571072319202,0.011752045089010522,
0.03162094763092269,-0.004156541157148787,
0.03167082294264339,0.0009032179847333951,
0.03172069825436409,0.020607182550953403,
0.03177057356608479,-0.018898435123433484,
0.03182044887780549,-0.02881672435370073,
0.031870324189526185,-0.004672477803210697,
0.03192019950124688,4.826903522731768e-05,
0.03197007481296758,-0.016281932028730055,
0.03201995012468828,-0.024176981916590325,
0.032069825436408975,-0.020870519657039486,
0.03211970074812968,-0.014620327441702843,
0.03216957605985037,-0.04280422699681956,
0.032219451371571076,-0.012520898435307211,
0.03226932668329177,-0.024100184879337676,
0.03231920199501247,-0.017336701904695204,
0.03236907730673317,-0.006065014566850638,
0.032418952618453865,-0.015877453129273647,
0.03246882793017456,-0.03267068557693624,
0.032518703241895264,-0.002221746209251821,
0.03256857855361596,-0.010619938185910833,
0.032618453865336655,0.003339675570706859,
0.03266832917705736,-0.022471986921495143,
0.032718204488778053,-0.013866443548463368,
0.032768079800498756,-0.011417172439711106,
0.03281795511221945,-0.05312690231694762,
0.03286783042394015,-0.004210847268648458,
0.03291770573566085,-0.01591950000082333,
0.032967581047381546,-0.02324999732377523,
0.03301745635910224,0.006957069644977245,
0.033067331670822944,-0.012765036372426083,
0.03311720698254364,-0.01235878067392187,
0.03316708229426434,0.010989065327635064,
0.03321695760598504,-0.02302627071699488,
0.033266832917705734,0.0004118345727954255,
0.03331670822942644,-0.012133568704783222,
0.03336658354114713,-0.004068538371080569,
0.03341645885286783,-0.02517225501058327,
0.03346633416458853,0.01834240350896103,
0.033516209476309226,-0.028549265466655364,
0.03356608478802992,-0.014117003211479597,
0.033615960099750625,-0.01194406497445236,
0.03366583541147132,-0.0185787798307149,
0.03371571072319202,-0.027282154290676798,
0.03376558603491272,-0.024004867658642737,
0.033815461346633414,-0.023092823702149094,
0.03386533665835412,-0.020131091311521764,
0.03391521197007481,-0.023114115560821647,
0.03396508728179551,-0.01875005799611138,
0.03401496259351621,-0.005130501078894531,
0.03406483790523691,-0.03461780660585315,
0.0341147132169576,-0.01600862116777389,
0.034164588528678305,-0.03437537167746092,
0.034214463840399,-0.007605940255700326,
0.034264339152119704,-0.038163395022659016,
0.0343142144638404,-0.05442979256617943,
0.034364089775561095,-0.01310955243247848,
0.0344139650872818,-0.05317341044663802,
0.03446384039900249,-0.015549327405412062,
0.03451371571072319,0.01187374654998452,
0.03456359102244389,-0.00524262182818718,
0.03461346633416459,-0.0226666191380757,
0.03466334164588529,0.011667346408320282,
0.034713216957605986,-0.02648085821464933,
0.03476309226932668,-0.021812352658778976,
0.034812967581047384,-0.009638518743020203,
0.03486284289276808,0.01301449842067192,
0.034912718204488775,-0.024960828127631132,
0.03496259351620948,-0.004375050552672519,
0.035012468827930174,-0.04191779313987183,
0.03506234413965087,-0.0014405633992157253,
0.03511221945137157,-0.027343291907652976,
0.03516209476309227,-0.01293196411457189,
0.03521197007481297,-0.007893383836061918,
0.035261845386533666,-0.020745268521401447,
0.03531172069825436,-0.013163745171478643,
0.035361596009975065,-0.018109280548046048,
0.03541147132169576,-0.01393606033758535,
0.035461346633416456,-0.024454141488007567,
0.03551122194513716,-0.00366094007201051,
0.035561097256857854,-0.003764164308948109,
0.03561097256857856,-0.019424826317826504,
0.03566084788029925,-0.012987892016678344,
0.03571072319201995,-0.05985636268175096,
0.03576059850374065,0.012067239405253713,
0.03581047381546135,-0.030004098480293014,
0.03586034912718204,-0.021279935088408163,
0.035910224438902745,-0.017574060863022115,
0.03596009975062344,-0.03046895193049478,
0.036009975062344136,-0.004980143445437211,
0.03605985037406484,-0.03415176112947668,
0.036109725685785535,-0.03971422651671625,
0.03615960099750624,0.0009292111057057836,
0.03620947630922693,-0.012131447396393555,
0.03625935162094763,-0.014505611291713608,
0.03630922693266833,-0.03331865906796972,
0.03635910224438903,0.006204758316784803,
0.03640897755610972,-0.007683655809059012,
0.036458852867830426,0.0062219762598660164,
0.03650872817955112,-0.023126249065503635,
0.036558603491271824,-0.013465858301455282,
0.03660847880299252,-0.00738085552665367,
0.036658354114713215,-0.010766493163709541,
0.03670822942643392,-0.016362821791872748,
0.036758104738154614,-0.014184729821331992,
0.03680798004987531,0.010316380423174239,
0.03685785536159601,-0.02832267486524859,
0.03690773067331671,-0.008753504619314087,
0.0369576059850374,-0.043260171864762706,
0.037007481296758106,-0.0013156190644210905,
0.0370573566084788,0.007188304202456447,
0.037107231920199504,-0.002850785934973593,
0.0371571072319202,-0.023623800498885836,
0.037206982543640896,-0.022752680103677682,
0.0372568578553616,-0.023596906276175538,
0.037306733167082294,-0.0225060745085734,
0.03735660847880299,-0.043319821921529514,
0.03740648379052369,0.006735745017814702,
0.03745635910224439,-0.01096872972278003,
0.037506234413965084,-0.0014018468099383091,
0.037556109725685786,-0.03551825738346103,
0.03760598503740648,-0.05402689210019198,
0.037655860349127185,0.0023963241090225913,
0.03770573566084788,0.018569546447057963,
0.037755610972568576,-0.01422689176018301,
0.03780548628428928,-0.004531915206572534,
0.037855361596009975,0.0011735355360346332,
0.03790523690773067,0.0018047775069785915,
0.03795511221945137,0.003914215382593098,
0.03800498753117207,-0.02385647490796511,
0.03805486284289277,-0.01640465526633481,
0.03810473815461347,-0.0191705558897141,
0.03815461346633416,-0.004620726243213337,
0.038204488778054865,0.020285129580684284,
0.03825436408977556,0.0012928393316525288,
0.03830423940149626,0.027111562640540265,
0.03835411471321696,-0.0015802804029789218,
0.038403990024937655,-0.013799679046701149,
0.03845386533665835,0.0003543918191011887,
0.03850374064837905,-0.02617665419070829,
0.03855361596009975,-0.012102654490593591,
0.03860349127182045,-0.009536561867479908,
0.03865336658354115,-0.02765616254992466,
0.03870324189526184,-0.022420485171136352,
0.038753117206982546,0.017448108611334747,
0.03880299251870324,-0.0007960774155574071,
0.03885286783042394,0.007516998287426944,
0.03890274314214464,-0.002798676447776976,
0.038952618453865336,0.010722363321392404,
0.03900249376558604,0.00745889366568973,
0.039052369077306734,0.015127911632183116,
0.03910224438902743,-0.0013003489459987427,
0.03915211970074813,0.03510315322902659,
0.03920199501246883,-0.019649627254699535,
0.039251870324189524,4.460661142148992e-05,
0.039301745635910226,-0.002832360300524973,
0.03935162094763092,0.006726884678026393,
0.03940149625935162,0.008240774222018339,
0.03945137157107232,-0.0005964781592269811,
0.039501246882793016,-0.01394309034606745,
0.03955112219451372,0.0038662945051998274,
0.039600997506234414,-0.006764624265138113,
0.03965087281795511,-0.007781596306820228,
0.03970074812967581,0.02786414717906682,
0.03975062344139651,-0.01413830366785366,
0.039800498753117204,0.012095823824352455,
0.03985037406483791,0.004043194272035824,
0.0399002493765586,-0.00503276880906672,
0.039950124688279305,0.00863070165025773,
0.04,-0.0008142576310342566,
0.0400498753117207,0.02031128494947345,
0.0400997506234414,-0.006967725629881181,
0.040149625935162095,0.016752630318353952,
0.04019950124688279,0.0076555619593526684,
0.04024937655860349,-1.592744645706988e-06,
0.04029925187032419,0.005647402106648698,
0.040349127182044885,-0.005929601069706728,
0.04039900249376559,0.013133300424694022,
0.04044887780548628,0.01940893729198983,
0.040498753117206986,0.016513010418616154,
0.04054862842892768,0.0007496436653925981,
0.04059850374064838,0.019390652646464647,
0.04064837905236908,0.009651967577301536,
0.040698254364089775,-0.009247267902110678,
0.04074812967581047,0.03329814289929983,
0.040798004987531174,0.03233701960799836,
0.04084788029925187,0.03791669726466497,
0.040897755610972565,0.02794917120499972,
0.04094763092269327,-0.0034226083908923694,
0.04099750623441396,0.016435665216585606,
0.041047381546134666,0.020290989747887067,
0.04109725685785536,0.02917182722800301,
0.04114713216957606,0.03153065674616212,
0.04119700748129676,-0.002939039348590416,
0.041246882793017456,0.021223237643490205,
0.04129675810473815,0.008894390774521458,
0.041346633416458854,0.04536406380697973,
0.04139650872817955,0.03811333679899936,
0.04144638403990025,0.016592911338195102,
0.04149625935162095,0.007514167960506114,
0.041546134663341644,0.0013946603721127684,
0.04159600997506235,-0.011207297419692869,
0.04164588528678304,0.002557415474126721,
0.04169576059850374,0.017615448146808335,
0.04174563591022444,0.029373624532377234,
0.041795511221945136,0.007929233142881643,
0.04184538653366583,-0.0006014918546224518,
0.041895261845386535,-0.0012204309095413916,
0.04194513715710723,0.006538890757594814,
0.04199501246882793,-0.0026638657668414216,
0.04204488778054863,0.015157269433839294,
0.042094763092269324,0.04447461583705718,
0.04214463840399003,0.015741873622383447,
0.04219451371571072,0.009305858841196772,
0.04224438902743142,0.010293989103019884,
0.04229426433915212,0.002477373814042465,
0.04234413965087282,0.01340232780348885,
0.04239401496259352,0.026988220971896647,
0.042443890274314215,0.01025323583211632,
0.04249376558603491,0.012307538947783081,
0.042543640897755614,0.025237148059391003,
0.04259351620947631,0.028105291675143335,
0.042643391521197005,0.01363412112635602,
0.04269326683291771,0.020003785746159995,
0.0427431421446384,0.022760839491196106,
0.0427930174563591,0.03950839191105937,
0.0428428927680798,0.03594400356915249,
0.0428927680798005,0.01239972164099526,
0.0429426433915212,0.028928506407881516,
0.042992518703241896,0.0003288772061198625,
0.04304239401496259,-0.0017342392968833914,
0.043092269326683294,0.0353876284910887,
0.04314214463840399,0.014040162322676051,
0.043192019950124685,0.04695142865915937,
0.04324189526184539,0.03757910699904138,
0.043291770573566084,0.03476468702015016,
0.043341645885286786,0.00356323250701103,
0.04339152119700748,0.019004020649481236,
0.04344139650872818,0.00596571223410043,
0.04349127182044888,-0.0004220629809659135,
0.043541147132169576,0.00712222412742263,
0.04359102244389027,0.021830717268763736,
0.043640897755610975,0.004541915255268831,
0.04369077306733167,0.04839791150530169,
0.043740648379052366,0.014284757543404795,
0.04379052369077307,0.019012869510532174,
0.043840399002493764,0.03420999391533999,
0.04389027431421447,0.02435413908041418,
0.04394014962593516,0.011328778293605653,
0.04399002493765586,0.002551507149475541,
0.04403990024937656,0.009938123290687079,
0.04408977556109726,0.02924517476561629,
0.04413965087281795,0.03977970374690515,
0.044189526184538655,0.03695621237231955,
0.04423940149625935,0.007182333040244845,
0.04428927680798005,0.0056944750196168785,
0.04433915211970075,0.0069073504778964095,
0.044389027431421445,0.014102966286454058,
0.04443890274314215,0.014570721164625546,
0.04448877805486284,0.015494196418139837,
0.04453865336658354,0.039761132454145844,
0.04458852867830424,0.016289670150189173,
0.04463840399002494,0.013759156853105371,
0.04468827930174563,0.04341247683876173,
0.044738154613466335,0.0024261599817398637,
0.04478802992518703,0.008935980205723747,
0.044837905236907734,0.02577641025178914,
0.04488778054862843,0.0546524759227076,
0.044937655860349125,0.0032615339671950086,
0.04498753117206983,0.04179747784884645,
0.045037406483790524,0.020268731389970086,
0.04508728179551122,0.02311394148114294,
0.04513715710723192,0.030923699012611765,
0.04518703241895262,0.031021083826453306,
0.04523690773067331,0.04966828884900969,
0.045286783042394016,0.008280830192807677,
0.04533665835411471,0.010395813990854793,
0.045386533665835414,0.03678094939387269,
0.04543640897755611,0.008965985229196137,
0.045486284289276806,0.020967336199938406,
0.04553615960099751,0.018005085043491777,
0.045586034912718204,0.03420142898162587,
0.0456359102244389,0.03321929317758572,
0.0456857855361596,0.030529519940798784,
0.0457356608478803,0.0106495952181437,
0.045785536159601,0.031133851734088825,
0.045835411471321696,0.0134661154827513,
0.04588528678304239,0.01421871459688822,
0.045935162094763095,0.011001286002900325,
0.04598503740648379,0.02375249603787587,
0.046034912718204486,0.04859826514650244,
0.04608478802992519,-0.0004446616538184289,
0.046134663341645885,0.00230202698286534,
0.04618453865336658,0.004647468973478345,
0.04623441396508728,0.021041497538025977,
0.04628428927680798,0.010830769056313659,
0.04633416458852868,0.02954387887481657,
0.04638403990024938,0.01495829433041838,
0.04643391521197007,0.038060526159734515,
0.046483790523690775,0.04055598495034632,
0.04653366583541147,0.037651941729098984,
0.04658354114713217,0.034941112554901795,
0.04663341645885287,0.039876368558822664,
0.046683291770573565,-0.004084010651277614,
0.04673316708229427,0.02023178629822642,
0.04678304239401496,0.030609483835689177,
0.04683291770573566,0.028270778657704457,
0.04688279301745636,0.01196564653036347,
0.04693266832917706,0.0326104493065105,
0.04698254364089775,0.03996959686951493,
0.047032418952618456,0.02046076410305332,
0.04708229426433915,0.005051107238902246,
0.04713216957605985,0.009240503379197443,
0.04718204488778055,0.009665501722663611,
0.047231920199501246,0.02265802681463863,
0.04728179551122195,0.006816317544859696,
0.047331670822942644,0.019670600803459993,
0.04738154613466334,0.011935011323200968,
0.04743142144638404,0.007218649960658579,
0.04748129675810474,0.019739043554910976,
0.047531172069825434,0.016776084248744775,
0.047581047381546136,0.009354885049222847,
0.04763092269326683,0.02706982228470335,
0.047680798004987535,0.002871564769514612,
0.04773067331670823,0.002137948182779556,
0.047780548628428926,0.013552965117380526,
0.04783042394014963,0.008539152239974696,
0.047880299251870324,0.05024723122335623,
0.04793017456359102,0.023586937450600774,
0.04798004987531172,0.01697489270906208,
0.04802992518703242,0.012141046517792041,
0.048079800498753114,0.01778173266401854,
0.04812967581047382,0.006586781472035726,
0.04817955112219451,-0.0032753618800204533,
0.048229426433915215,0.020107011184084193,
0.04827930174563591,-0.004003320819271773,
0.048329177057356607,0.02669554964515567,
0.04837905236907731,0.026745763314489655,
0.048428927680798005,0.013734459493713408,
0.0484788029925187,-0.010476176367454768,
0.0485286783042394,-0.001163397697190132,
0.0485785536159601,-0.003851118639852368,
0.048628428927680795,0.015821914753294718,
0.0486783042394015,0.035795724844647735,
0.04872817955112219,0.01100171160173695,
0.048778054862842896,0.015636924202954865,
0.04882793017456359,0.04155988726919352,
0.04887780548628429,0.009195413415527305,
0.04892768079800499,0.0021712477105675842,
0.048977556109725685,0.03244415849043231,
0.04902743142144638,0.0115552118174634,
0.049077306733167084,0.0012685118329491644,
0.04912718204488778,0.01608085235865348,
0.04917705735660848,0.016310927736499975,
0.04922693266832918,0.017836135452341383,
0.04927680798004987,-0.0010627642146632636,
0.049326683291770576,-0.0011941993171622218,
0.04937655860349127,0.016429120689178518,
0.04942643391521197,0.011552448544073755,
0.04947630922693267,0.02519996594697623,
0.049526184538653366,-0.0015437216941523021,
0.04957605985037406,0.015296394705524189,
0.049625935162094764,0.026630209156112833,
0.04967581047381546,-0.0018079926277824402,
0.04972568578553616,0.012225692473922935,
0.04977556109725686,-0.01347555969128944,
0.049825436408977554,0.017706930751522187,
0.04987531172069826,0.010570564600775673,
0.04992518703241895,0.023020562536972357,
0.04997506234413965,-0.008144022888220855,
0.05002493765586035,0.013881394007572873,
0.050074812967581046,0.0062120455930020305,
0.05012468827930175,-0.022317329935992825,
0.050174563591022445,0.014065691725852252,
0.05022443890274314,0.016132596483403972,
0.05027431421446384,0.011821403492754219,
0.05032418952618454,-0.029500436337434027,
0.050374064837905234,0.005626842530868533,
0.05042394014962594,0.01894880304717773,
0.05047381546134663,0.020327239598621847,
0.05052369077306733,0.005706575915069578,
0.05057356608478803,0.006187557804789584,
0.05062344139650873,0.0025778435952326932,
0.05067331670822943,-0.0065499262269822865,
0.050723192019950125,-0.002733908154012117,
0.05077306733167082,-0.013004587075445922,
0.050822942643391524,0.008370529277468442,
0.05087281795511222,0.017260976343809794,
0.050922693266832915,-0.005245268928063951,
0.05097256857855362,-0.022592338794135334,
0.05102244389027431,-0.0029064382549910026,
0.051072319201995016,0.02081412584745435,
0.05112219451371571,-0.009670409470649538,
0.05117206982543641,0.022399358618653997,
0.05122194513715711,0.012781090547684318,
0.051271820448877806,0.012092891572066132,
0.0513216957605985,0.00783112579428997,
0.051371571072319204,-0.04449116915758728,
0.0514214463840399,-0.010372620685467678,
0.051471321695760595,-0.007962652256231566,
0.0515211970074813,-0.046733690532563384,
0.051571072319201994,0.002429202488177285,
0.051620947630922696,-0.028993890354172977,
0.05167082294264339,-0.021135400272693942,
0.05172069825436409,-0.015801955077553387,
0.05177057356608479,-0.039404311984541224,
0.051820448877805486,-0.01589573219914587,
0.05187032418952618,0.0059837684307081345,
0.051920199501246884,-0.020490344758616705,
0.05197007481296758,0.0030118711807451716,
0.052019950124688276,-0.01110269267353265,
0.05206982543640898,0.010490135523060662,
0.052119700748129674,-0.03197244716401562,
0.05216957605985038,0.005022266380502925,
0.05221945137157107,-0.0027255987685540946,
0.05226932668329177,-0.0299179627243744,
0.05231920199501247,-0.017187170280715015,
0.05236907730673317,-0.005101539075683022,
0.05241895261845386,-0.01494151392854053,
0.052468827930174565,-0.015585712047187445,
0.05251870324189526,0.0035989177945809706,
0.05256857855361596,-0.03768038665689641,
0.05261845386533666,0.005357132289862489,
0.052668329177057355,-0.016072484523602958,
0.05271820448877806,-0.003369057110143644,
0.05276807980049875,-0.003928937806159327,
0.05281795511221945,0.013633567751375895,
0.05286783042394015,-0.022119333039570352,
0.05291770573566085,-0.005523895689944885,
0.05296758104738154,-0.017611734368495786,
0.053017456359102245,-0.027578012524696764,
0.05306733167082294,-0.03542468083849484,
0.053117206982543644,-0.002617860677010239,
0.05316708229426434,-0.015466133103657489,
0.053216957605985035,-0.03221897854002077,
0.05326683291770574,0.013265196201888142,
0.053316708229426434,0.006338738218074144,
0.05336658354114713,-0.0344844383747668,
0.05341645885286783,-0.021500224303860505,
0.05346633416458853,-0.010323128725240544,
0.05351620947630923,0.0069650617981570455,
0.053566084788029926,-0.022853351989426226,
0.05361596009975062,-0.028582760573012227,
0.053665835411471324,-0.0016813085486706205,
0.05371571072319202,-0.006670142901915442,
0.053765586034912716,0.011202168225709283,
0.05381546134663342,-0.02250822172487205,
0.053865336658354114,0.002554322950456026,
0.05391521197007481,-0.022420352820878973,
0.05396508728179551,-0.012003289406216231,
0.05401496259351621,-0.006470399483332638,
0.05406483790523691,-0.01510224495375623,
0.054114713216957606,-0.02905680136937864,
0.0541645885286783,-0.02281019484836954,
0.054214463840399005,-0.016029951427092317,
0.0542643391521197,-0.013692758453475007,
0.054314214463840396,-0.005936441528437938,
0.0543640897755611,0.006357573658991308,
0.054413965087281795,-0.007960532166898623,
0.0544638403990025,-0.029087327735558582,
0.05451371571072319,-0.011050920139694234,
0.05456359102244389,-0.0036762582422401636,
0.05461346633416459,-0.0519269669624995,
0.05466334164588529,-0.02727318290890225,
0.05471321695760598,0.014342133351875303,
0.054763092269326685,-0.033608962735792815,
0.05481296758104738,-0.0058253635986045375,
0.05486284289276808,-0.0026430564158650537,
0.05491271820448878,-0.018848090885062067,
0.054962593516209475,-0.017883142138704105,
0.05501246882793018,-0.015527961581885399,
0.05506234413965087,-0.016347877132122147,
0.05511221945137157,0.014505395749657847,
0.05516209476309227,-0.05577581056569952,
0.05521197007481297,-0.009538170722196579,
0.05526184538653366,-0.010326724893888306,
0.055311720698254366,-0.042188396842179544,
0.05536159600997506,0.008044295399066056,
0.05541147132169576,-0.013539679635893871,
0.05546134663341646,-0.0010804526591447657,
0.055511221945137156,-0.008958947201423064,
0.05556109725685786,-0.010531596819654423,
0.055610972568578554,-0.04322690385479425,
0.05566084788029925,-0.023758426003682456,
0.05571072319201995,0.0025696310220368317,
0.05576059850374065,0.009355244354449828,
0.055810473815461344,-0.002957846662807415,
0.055860349127182046,-0.0390858547886799,
0.05591022443890274,-0.015000361380714589,
0.055960099750623445,-0.017033543162557462,
0.05600997506234414,-0.016812855022529962,
0.056059850374064836,-0.006186687939554075,
0.05610972568578554,-0.02045139534471519,
0.056159600997506234,-0.00814345535663371,
0.05620947630922693,-0.008976833809021862,
0.05625935162094763,-0.0187507125927099,
0.05630922693266833,-0.016641284050822575,
0.056359102244389024,-0.012407698295428295,
0.05640897755610973,-0.01757209728582347,
0.05645885286783042,-0.011853593063570901,
0.056508728179551125,-0.0018683458883079988,
0.05655860349127182,-0.0331283921252721,
0.056608478802992516,-0.006216004867958221,
0.05665835411471322,-0.016584922951598566,
0.056708229426433915,-0.015943488375701174,
0.05675810473815461,-0.02758010284445773,
0.05680798004987531,-0.011761782975527454,
0.05685785536159601,0.011831986206545884,
0.05690773067331671,-0.016625123186768103,
0.05695760598503741,-0.007354327729019895,
0.0570074812967581,0.0020794258186001523,
0.057057356608478806,-0.001950398600639303,
0.0571072319201995,-0.038259335383751175,
0.0571571072319202,0.0022198179602037783,
0.0572069825436409,-0.013659436008261267,
0.057256857855361595,0.004189824544077578,
0.05730673316708229,0.004944484740365747,
0.057356608478802994,-0.01462723871214498,
0.05740648379052369,-0.017936401124463094,
0.05745635910224439,-0.0266586860407762,
0.05750623441396509,-0.017914328742705515,
0.05755610972568578,-0.006461816166791278,
0.057605985037406486,-0.019103011541949343,
0.05765586034912718,-0.00040739521130455595,
0.05770573566084788,0.0025917106901562053,
0.05775561097256858,0.006826417141538082,
0.057805486284289276,-0.012283277467905172,
0.05785536159600998,0.009306518988974829,
0.057905236907730674,0.0007153219519698889,
0.05795511221945137,-0.020554086726257435,
0.05800498753117207,-0.04634530829912717,
0.05805486284289277,0.017154182780016302,
0.058104738154613464,-0.015974742757682757,
0.05815461346633417,-0.013557912853852898,
0.05820448877805486,0.0015166584461156632,
0.05825436408977556,0.022217884149790035,
0.05830423940149626,-0.0004951938517590449,
0.058354114713216956,0.013705076063311013,
0.05840399002493766,-0.010351761402657266,
0.058453865336658355,0.004116923221402802,
0.05850374064837905,0.008291827219027537,
0.05855361596009975,0.030312347640584023,
0.05860349127182045,0.001041511922233014,
0.058653366583541144,-0.012772397145466123,
0.05870324189526185,0.00879524220873582,
0.05875311720698254,-0.002118702091860778,
0.05880299251870324,0.0050243160018561,
0.05885286783042394,-0.01612285343917272,
0.05890274314214464,0.0052899251819721535,
0.05895261845386534,-0.016609603014332768,
0.059002493765586035,0.01651084495298288,
0.05905236907730673,-0.017444136985231912,
0.059102244389027433,-0.006282106282830085,
0.05915211970074813,0.01619357689148744,
0.059201995012468825,0.014415475138519013,
0.05925187032418953,0.02701405176309895,
0.05930174563591022,0.026991176678177374,
0.059351620947630926,-0.006694634906149148,
0.05940149625935162,-0.0028019514387860136,
0.05945137157107232,-0.015051695403604525,
0.05950124688279302,0.011756321460199238,
0.059551122194513716,-0.005411247847372845,
0.05960099750623441,0.01318081161249117,
0.059650872817955114,0.0009965284127698864,
0.05970074812967581,0.00062105908557688,
0.059750623441396505,0.0072498458090822,
0.05980049875311721,0.0005468522920578254,
0.059850374064837904,-0.011133119988671007,
0.059900249376558606,0.03311640635455791,
0.0599501246882793,0.004265588462296277,
0.06,0.0070040973570714895,
0.0600498753117207,-0.010108142537917517,
0.060099750623441396,0.00620463813969,
0.06014962593516209,-0.004109105424534811,
0.060199501246882794,0.04228151666200785,
0.06024937655860349,0.026559626587136627,
0.06029925187032419,0.026849848352035393,
0.06034912718204489,0.014285242210838846,
0.060399002493765584,-0.010736889798694891,
0.06044887780548629,0.03628037850292577,
0.06049875311720698,0.017398588160471243,
0.06054862842892768,-0.0026922082132049587,
0.06059850374064838,0.009349771794647719,
0.06064837905236908,0.01006533244978837,
0.06069825436408977,0.01192207719304587,
0.060748129675810475,0.028450903313300753,
0.06079800498753117,0.001861079497676412,
0.06084788029925187,-0.0019037664443631013,
0.06089775561097257,-0.019000864417244655,
0.060947630922693265,0.009558411153400281,
0.06099750623441397,0.030243478339400092,
0.06104738154613466,0.005058561094007406,
0.06109725685785536,0.01672946515112265,
0.06114713216957606,0.029070824342471577,
0.06119700748129676,0.008827550409354644,
0.06124688279301746,0.016406014889269818,
0.061296758104738155,0.020005187309381868,
0.06134663341645885,0.013534324630377176,
0.061396508728179554,0.01741806085212184,
0.06144638403990025,0.02636217893356433,
0.061496259351620945,0.025195872994247547,
0.06154613466334165,0.009260161280503741,
0.061596009975062344,0.0044505033814217655,
0.06164588528678304,0.00255055216544451,
0.06169576059850374,0.03294553585381918,
0.06174563591022444,0.029512207552966054,
0.06179551122194514,-0.007866797976864005,
0.061845386533665836,0.05295516342457747,
0.06189526184538653,-0.013279353909813475,
0.061945137157107234,-0.008860220505381707,
0.06199501246882793,-0.002428385714584598,
0.062044887780548626,0.008101913008351887,
0.06209476309226933,0.008709306583385408,
0.062144638403990024,0.023083357198892145,
0.06219451371571072,0.02712544916510593,
0.06224438902743142,0.0472153359476548,
0.06229426433915212,0.0019622704502570004,
0.06234413965087282,0.024132247111556298,
0.062394014962593516,0.04270358738449506,
0.06244389027431421,0.03481167388993356,
0.062493765586034915,0.04053008486843617,
0.06254364089775562,0.02142051253406697,
0.06259351620947631,0.02194153412210038,
0.06264339152119701,0.013524546082329484,
0.0626932668329177,0.03405324632819373,
0.0627431421446384,0.027254502455303302,
0.0627930174563591,-0.008993513680762604,
0.0628428927680798,0.02696636078417378,
0.0628927680798005,0.007619646852898333,
0.0629426433915212,0.016492857676214983,
0.06299251870324189,0.025513148507561735,
0.06304239401496259,0.029679345698614676,
0.0630922693266833,0.014803206973182655,
0.063142144638404,0.048049359717312265,
0.06319201995012469,0.03743864293285037,
0.06324189526184539,0.03546160434780103,
0.06329177057356608,0.022791608803033447,
0.06334164588528678,0.028163606338599236,
0.06339152119700749,0.02640835129400286,
0.06344139650872818,-0.001092766405289939,
0.06349127182044888,0.024552362815763534,
0.06354114713216957,0.013052149956898325,
0.06359102244389027,0.00982069307197724,
0.06364089775561098,0.04987818294083154,
0.06369077306733167,0.0573827412204441,
0.06374064837905237,0.015612780875816702,
0.06379052369077307,0.02519098924833025,
0.06384039900249376,0.049194145623833146,
0.06389027431421446,0.030535475971612602,
0.06394014962593517,0.030336156053119994,
0.06399002493765586,0.018297548852500536,
0.06403990024937656,0.024806256971796385,
0.06408977556109725,0.020870278685148593,
0.06413965087281795,0.009131704344522103,
0.06418952618453866,0.0018217428845010292,
0.06423940149625935,0.04913042651300455,
0.06428927680798005,0.046707339233727205,
0.06433915211970075,0.041697200745477864,
0.06438902743142144,0.013555887400820933,
0.06443890274314215,0.01445032148629437,
0.06448877805486285,0.03373695142909751,
0.06453865336658354,0.03570127237067023,
0.06458852867830424,0.018165256759916416,
0.06463840399002493,0.040854083987500865,
0.06468827930174563,0.04642748903979124,
0.06473815461346634,0.02451280961098645,
0.06478802992518704,0.004984836839344784,
0.06483790523690773,0.027296708087927262,
0.06488778054862843,0.023380609778950064,
0.06493765586034912,0.014609743789629868,
0.06498753117206983,0.03320329083211691,
0.06503740648379053,0.021983429824509584,
0.06508728179551122,0.033990780045934275,
0.06513715710723192,-0.006685129705695736,
0.06518703241895261,0.028890278068855763,
0.06523690773067331,0.02716752535084054,
0.06528678304239402,0.022181907350360172,
0.06533665835411472,0.039198796590990355,
0.06538653366583541,0.02833479611902344,
0.06543640897755611,0.010970179208895602,
0.0654862842892768,0.006597889536987537,
0.06553615960099751,0.012393019935100977,
0.06558603491271821,0.03092585917368294,
0.0656359102244389,0.05259094480104133,
0.0656857855361596,-0.00396913756477086,
0.0657356608478803,-0.004368410112548699,
0.06578553615960099,0.013435725013577248,
0.0658354114713217,0.012224893323907558,
0.0658852867830424,0.029212698988261808,
0.06593516209476309,0.011671487802453412,
0.06598503740648379,0.06016538467446558,
0.06603491271820448,-0.0020838312037872453,
0.06608478802992519,0.03788448329791087,
0.06613466334164589,0.01229149273023885,
0.06618453865336658,0.008157784904613849,
0.06623441396508728,0.015508723569700966,
0.06628428927680798,0.01354462376927876,
0.06633416458852869,0.021692318004334462,
0.06638403990024938,0.02704035368579683,
0.06643391521197008,0.017367248662658562,
0.06648379052369077,0.027816760453295147,
0.06653366583541147,0.01191882385901677,
0.06658354114713216,-0.0063026776577143374,
0.06663341645885287,0.02359000551523971,
0.06668329177057357,0.01727592051395854,
0.06673316708229426,0.03446954289133954,
0.06678304239401496,0.00849364719117829,
0.06683291770573566,-0.012068103439390972,
0.06688279301745637,0.014088960108733138,
0.06693266832917706,0.04318711895816045,
0.06698254364089776,0.012228335733806085,
0.06703241895261845,0.02655108510770706,
0.06708229426433915,0.03834590970446955,
0.06713216957605984,0.01941255094583304,
0.06718204488778055,0.019399605983467585,
0.06723192019950125,0.021087652734127688,
0.06728179551122195,0.023045961131653827,
0.06733167082294264,0.02305843335940523,
0.06738154613466334,0.011937161230708798,
0.06743142144638405,0.02920743402309276,
0.06748129675810474,-0.01380744070825228,
0.06753117206982544,0.011818977889077972,
0.06758104738154613,0.00983253717599017,
0.06763092269326683,0.002112759037774881,
0.06768079800498752,-0.0057055410751464045,
0.06773067331670823,0.002960763400507896,
0.06778054862842893,0.021977460239596146,
0.06783042394014963,0.04472272360007269,
0.06788029925187032,0.014818908053479964,
0.06793017456359102,-0.0006634931092209598,
0.06798004987531173,-0.007358137817855454,
0.06802992518703242,0.029372239518998415,
0.06807980049875312,0.025283673698816553,
0.06812967581047381,0.023467569000210978,
0.06817955112219451,0.015102924183963485,
0.0682294264339152,0.007829994477172168,
0.06827930174563591,0.013143802316598558,
0.06832917705735661,0.03326882287593894,
0.0683790523690773,0.02324069399314089,
0.068428927680798,0.018089656954401692,
0.0684788029925187,0.029092676369315385,
0.06852867830423941,0.03815928383510296,
0.0685785536159601,0.006027429764926345,
0.0686284289276808,0.018985842428506254,
0.0686783042394015,0.021448137349217758,
0.06872817955112219,0.021948318312185244,
0.0687780548628429,0.022499430828163972,
0.0688279301745636,0.0025138060069730284,
0.06887780548628429,0.013831777015057976,
0.06892768079800499,0.015114023900275171,
0.06897755610972568,0.02243330428474071,
0.06902743142144638,0.0046853176945278975,
0.06907730673316709,0.008747819517109498,
0.06912718204488778,-0.014609903076932855,
0.06917705735660848,0.017718146547441707,
0.06922693266832917,0.034176812109474264,
0.06927680798004987,0.005122337338061316,
0.06932668329177058,0.011851754990289695,
0.06937655860349128,0.03413715860971776,
0.06942643391521197,0.010932605212581093,
0.06947630922693267,-0.014661192845690353,
0.06952618453865336,-0.015882100669778375,
0.06957605985037406,0.0076235442732275095,
0.06962593516209477,0.01563386546197329,
0.06967581047381546,-0.020351859307221217,
0.06972568578553616,0.005172644343551859,
0.06977556109725686,0.03945344859847265,
0.06982543640897755,-0.006133435980680277,
0.06987531172069826,0.01522254601345272,
0.06992518703241896,0.02801760815614327,
0.06997506234413965,-0.002871303861307237,
0.07002493765586035,0.018798420064205144,
0.07007481296758104,0.03337695294667277,
0.07012468827930174,0.01884518022800086,
0.07017456359102245,0.0038496089692257223,
0.07022443890274314,0.02856948096329674,
0.07027431421446384,0.005441126637872875,
0.07032418952618454,0.006241326675279709,
0.07037406483790523,-0.0063483473141224996,
0.07042394014962594,-0.0255841963293323,
0.07047381546134664,0.01218766870791719,
0.07052369077306733,0.006433888887943808,
0.07057356608478803,-0.008102091894192275,
0.07062344139650872,0.004675618331520737,
0.07067331670822943,-0.03469273286192298,
0.07072319201995013,-0.0260437698965786,
0.07077306733167082,-0.01734277855788479,
0.07082294264339152,-0.0023223173585292,
0.07087281795511222,0.021633420120758515,
0.07092269326683291,0.010072650694809816,
0.07097256857855362,-0.01453117179966377,
0.07102244389027432,-0.017196954050065744,
0.07107231920199501,0.03240661996753346,
0.07112219451371571,-0.017578758178474638,
0.0711720698254364,-0.010784821475944409,
0.07122194513715711,0.012483149612653035,
0.07127182044887781,0.0036666504845069654,
0.0713216957605985,-0.00604357559363361,
0.0713715710723192,-0.02276537042696147,
0.0714214463840399,0.016806014631913196,
0.07147132169576059,0.011565801259827202,
0.0715211970074813,-0.008924211759575064,
0.071571072319202,-0.012589720599432282,
0.0716209476309227,-0.00219280522671556,
0.07167082294264339,0.009753276193636948,
0.07172069825436408,0.0014553785040336206,
0.0717705735660848,-0.0157734930935804,
0.07182044887780549,-0.009708520041391241,
0.07187032418952619,0.011538086064674382,
0.07192019950124688,0.020891443612624,
0.07197007481296758,0.01571509909303865,
0.07201995012468827,-0.023483817966890686,
0.07206982543640898,-0.01850919684125083,
0.07211970074812968,-0.017574219453767297,
0.07216957605985037,-0.008167190515440905,
0.07221945137157107,-0.011841005435478759,
0.07226932668329177,0.012421044429852486,
0.07231920199501247,-0.015181804046614657,
0.07236907730673317,-0.008874102614879927,
0.07241895261845387,-0.012627500869438998,
0.07246882793017456,0.01991276550582237,
0.07251870324189526,-0.007546600657280995,
0.07256857855361595,0.008531592852208043,
0.07261845386533666,0.0010724152437726984,
0.07266832917705736,-0.008987681179440035,
0.07271820448877805,-0.015626988525093418,
0.07276807980049875,-0.006111973446494943,
0.07281795511221945,-0.0035034338645647777,
0.07286783042394016,0.012325504471587447,
0.07291770573566085,-0.01344204744372773,
0.07296758104738155,-0.004849471935333284,
0.07301745635910224,-0.019804348960538287,
0.07306733167082294,0.001365583842653539,
0.07311720698254365,-0.026689001104780983,
0.07316708229426434,0.007909525091504636,
0.07321695760598504,-0.003467575011056259,
0.07326683291770573,-0.01207936325400604,
0.07331670822942643,-0.007673005339431326,
0.07336658354114713,-0.037219083264885225,
0.07341645885286784,-0.024582847638413764,
0.07346633416458853,-0.02286398360571462,
0.07351620947630923,-0.013410977307343764,
0.07356608478802992,0.010643646560508837,
0.07361596009975062,8.386718058809965e-05,
0.07366583541147133,-0.008148700993422495,
0.07371571072319202,0.016208964102355696,
0.07376558603491272,-0.0021553372075472574,
0.07381546134663342,-0.021346480732352575,
0.07386533665835411,-0.028503777991475597,
0.0739152119700748,-0.008537264733551507,
0.07396508728179552,-0.04408343219847344,
0.07401496259351621,-0.004061111090780707,
0.07406483790523691,0.012739110178470472,
0.0741147132169576,-0.02997915661917771,
0.0741645885286783,-0.00585689360389389,
0.07421446384039901,-0.01860517960158496,
0.0742643391521197,-0.007103730397792376,
0.0743142144638404,-0.0007583192752136422,
0.0743640897755611,-0.030737820627730478,
0.07441396508728179,0.007953911758452828,
0.07446384039900249,-0.0019071697315669062,
0.0745137157107232,0.02704099903417271,
0.07456359102244389,-0.009310596689767251,
0.07461346633416459,-0.023834909486495817,
0.07466334164588528,-0.026525326555575587,
0.07471321695760598,-0.026396049614363877,
0.07476309226932669,-0.011937127627976793,
0.07481296758104738,-0.03248893979232388,
0.07486284289276808,-0.013277977515600512,
0.07491271820448878,-0.015199398454110186,
0.07496259351620947,-0.031166847080338334,
0.07501246882793017,-0.02722682502263922,
0.07506234413965088,-0.01776471409458429,
0.07511221945137157,0.0019900682302594046,
0.07516209476309227,-0.014333638671685116,
0.07521197007481296,0.004434017414976083,
0.07526184538653366,-0.02580458296466231,
0.07531172069825437,0.002682169381306578,
0.07536159600997507,-0.016685548585465785,
0.07541147132169576,-0.011293856262887408,
0.07546134663341646,-0.012989490108219783,
0.07551122194513715,-0.025868657095239646,
0.07556109725685786,-0.014094137433024194,
0.07561097256857856,-0.0019556624861243356,
0.07566084788029925,-0.0032461340279665227,
0.07571072319201995,-0.018628837265572417,
0.07576059850374064,-0.02800884347173483,
0.07581047381546134,0.027757601968754743,
0.07586034912718205,-0.0262392383726283,
0.07591022443890275,-0.011112629415018605,
0.07596009975062344,-0.0268705861998528,
0.07600997506234414,-0.009308126607294537,
0.07605985037406483,-0.0004453801699559005,
0.07610972568578554,-0.020229362667319922,
0.07615960099750624,-0.004556738258137828,
0.07620947630922693,-0.02504346727187652,
0.07625935162094763,-0.006235427626890135,
0.07630922693266833,-0.018921393652898657,
0.07635910224438902,-0.012365414476858114,
0.07640897755610973,-0.02138138037188845,
0.07645885286783043,-0.025684130029469468,
0.07650872817955112,-0.0241326770504406,
0.07655860349127182,0.010204546184821275,
0.07660847880299251,-0.0108897688511371,
0.07665835411471322,0.010599332564651643,
0.07670822942643392,-0.029092213175650684,
0.07675810473815461,-0.023883975331711008,
0.07680798004987531,-0.002690946566962656,
0.076857855361596,-0.02384873849589394,
0.0769077306733167,-0.042306903983626874,
0.07695760598503741,0.016121915218237706,
0.0770074812967581,-0.03544650009262138,
0.0770573566084788,-0.02561865908072251,
0.0771072319201995,-0.01396489091828602,
0.0771571072319202,-0.015491587794837818,
0.0772069825436409,0.0006625855603735135,
0.0772568578553616,-0.024867956326957708,
0.0773067331670823,0.002994682263332984,
0.07735660847880299,-0.009512121090998958,
0.07740648379052369,-0.01191728604161044,
0.0774563591022444,0.0037943618662060422,
0.07750623441396509,-0.010950428208107267,
0.07755610972568579,0.014599144488947998,
0.07760598503740648,-0.001662615687181808,
0.07765586034912718,-0.007635466056363122,
0.07770573566084787,0.000908221163952414,
0.07775561097256858,0.007463941094176896,
0.07780548628428928,0.00021047403701790392,
0.07785536159600998,-0.02417860298197582,
0.07790523690773067,-0.010001084423227951,
0.07795511221945137,-0.010145381287924124,
0.07800498753117208,-0.0025466974338854086,
0.07805486284289277,-0.006443581812223667,
0.07810473815461347,-0.019201484817562387,
0.07815461346633416,0.0001249155301981282,
0.07820448877805486,0.02069337595283137,
0.07825436408977555,-0.0012257082165480077,
0.07830423940149626,-0.004417034874069607,
0.07835411471321696,-0.024729952554724717,
0.07840399002493766,-0.01594175776224706,
0.07845386533665835,0.013039382792701053,
0.07850374064837905,-0.017526278739991533,
0.07855361596009976,0.025152891005964562,
0.07860349127182045,0.010106770667871398,
0.07865336658354115,-0.008048617419873123,
0.07870324189526184,0.0032988329053856257,
0.07875311720698254,-0.016939070447733864,
0.07880299251870324,0.006886471078892369,
0.07885286783042394,-0.010011622316431077,
0.07890274314214464,0.030301494851245045,
0.07895261845386534,0.005585456575306105,
0.07900249376558603,0.005318330486215701,
0.07905236907730673,0.003246783038316305,
0.07910224438902744,-0.00803547250504517,
0.07915211970074813,0.00022836280137264898,
0.07920199501246883,-0.003945182096897033,
0.07925187032418952,-0.008046756548805675,
0.07930174563591022,0.008094728293735531,
0.07935162094763092,-0.001726140908695222,
0.07940149625935163,0.00933741036022291,
0.07945137157107232,0.009615910608718359,
0.07950124688279302,-0.004102922934848714,
0.07955112219451371,-0.012471721748827831,
0.07960099750623441,0.013533911268119155,
0.07965087281795512,-0.0067240014518719655,
0.07970074812967581,-0.025535192041704482,
0.07975062344139651,0.0253189267483464,
0.0798004987531172,-0.01018729093517659,
0.0798503740648379,0.008777176916063905,
0.07990024937655861,-0.0029357134502220987,
0.0799501246882793,0.010316650883143985,
0.08,-0.016215156762422217,
0.0800498753117207,0.014516443555033787,
0.0800997506234414,0.033025058919720886,
0.08014962593516209,0.025888757171528123,
0.0801995012468828,0.003931467639940084,
0.0802493765586035,0.04099124239195767,
0.08029925187032419,0.012607036353057249,
0.08034912718204489,-0.0006652592392057122,
0.08039900249376558,0.022029503034104544,
0.08044887780548629,0.01417051822793307,
0.08049875311720699,0.007392582038664147,
0.08054862842892768,0.01522676684685778,
0.08059850374064838,-0.00535301357644029,
0.08064837905236907,0.009259012367016255,
0.08069825436408977,-0.00034286431415323816,
0.08074812967581048,-0.003574551429324375,
0.08079800498753117,0.0137935039052758,
0.08084788029925187,0.013779447990339226,
0.08089775561097257,-0.004720460283984686,
0.08094763092269326,-0.0071542385228558995,
0.08099750623441397,0.005818369287356865,
0.08104738154613467,0.03567865146245624,
0.08109725685785536,0.048533907546258394,
0.08114713216957606,0.024056120160994975,
0.08119700748129675,0.02968870591065817,
0.08124688279301745,0.020952540369384702,
0.08129675810473816,0.027617895628814507,
0.08134663341645886,0.0011092974873702314,
0.08139650872817955,0.004930065633818483,
0.08144638403990025,0.018500430626084932,
0.08149625935162094,0.022392175072619952,
0.08154613466334165,0.014871503282894183,
0.08159600997506235,0.014199707184361001,
0.08164588528678304,0.022578616453784978,
0.08169576059850374,0.0353167681528925,
0.08174563591022443,0.0033504681321135984,
0.08179551122194513,0.010390658707474012,
0.08184538653366584,0.005023776234661662,
0.08189526184538654,0.042409542837929054,
0.08194513715710723,0.040516558890153015,
0.08199501246882793,0.04101724459653272,
0.08204488778054862,-0.011269988254987894,
0.08209476309226933,0.011798860730540525,
0.08214463840399003,0.027820555600313372,
0.08219451371571072,0.016373789660170814,
0.08224438902743142,0.04982258684738572,
0.08229426433915212,0.04163210581785886,
0.08234413965087282,0.03538941447765068,
0.08239401496259352,0.022354522440235995,
0.08244389027431422,0.013287708231038784,
0.08249376558603491,0.00942988947167619,
0.08254364089775561,0.021625907545244755,
0.0825935162094763,0.009921509853533895,
0.08264339152119701,0.04316605092920869,
0.08269326683291771,0.027655660550979486,
0.0827431421446384,0.006177285014705113,
0.0827930174563591,0.008981429727102983,
0.0828428927680798,0.022561275949397476,
0.0828927680798005,0.010672600471053532,
0.0829426433915212,0.039727831048961576,
0.0829925187032419,-0.003361472314087663,
0.08304239401496259,0.01909422224793673,
0.08309226932668329,0.017787782262969964,
0.08314214463840398,0.037124046414994206,
0.0831920199501247,0.05627970791768824,
0.08324189526184539,-0.0072328569295936306,
0.08329177057356608,0.04064217677856644,
0.08334164588528678,0.06606174011361614,
0.08339152119700748,-0.0037322634747511546,
0.08344139650872819,0.031953468950577366,
0.08349127182044888,0.03141561430683849,
0.08354114713216958,0.030569062932235738,
0.08359102244389027,0.06423376525132114,
0.08364089775561097,0.04143708699105933,
0.08369077306733166,0.03625638588589586,
0.08374064837905237,0.050730692267852304,
0.08379052369077307,0.03316994626324366,
0.08384039900249377,0.010730102016447328,
0.08389027431421446,0.0077868028902292885,
0.08394014962593516,0.03486967439783392,
0.08399002493765587,0.026126077731380152,
0.08403990024937656,0.030362049373511106,
0.08408977556109726,0.02036670005721679,
0.08413965087281795,0.03710618242946082,
0.08418952618453865,0.040285745797637926,
0.08423940149625936,0.03062811970648305,
0.08428927680798005,0.022979494426505428,
0.08433915211970075,0.029674350405684394,
0.08438902743142145,0.005743773518581706,
0.08443890274314214,0.03435853748582034,
0.08448877805486284,0.03921739412039538,
0.08453865336658355,0.02639991724888259,
0.08458852867830424,0.024145331660985935,
0.08463840399002494,0.006096434911021298,
0.08468827930174563,0.0102998025149963,
0.08473815461346633,0.012203287407483998,
0.08478802992518704,0.04046200552282712,
0.08483790523690773,0.02481535440091994,
0.08488778054862843,0.025603376987427037,
0.08493765586034913,0.02206303523749883,
0.08498753117206982,0.047589247971123794,
0.08503740648379052,0.028566534175362507,
0.08508728179551123,0.017994503714717267,
0.08513715710723192,-0.0008692023576314482,
0.08518703241895262,0.004778239331314174,
0.08523690773067331,0.029754372223274404,
0.08528678304239401,0.025181849580933082,
0.08533665835411472,0.03846692063399991,
0.08538653366583542,0.04424093853025536,
0.08543640897755611,0.00017459760262208968,
0.0854862842892768,0.04750066467293546,
0.0855361596009975,0.024436653415645087,
0.0855860349127182,0.010547625548539047,
0.08563591022443891,0.03830391426237715,
0.0856857855361596,0.029420868245112905,
0.0857356608478803,0.01028312375286168,
0.085785536159601,0.0373359019191072,
0.08583541147132169,0.031861683928301195,
0.0858852867830424,0.03855010298903563,
0.0859351620947631,0.040920694377968886,
0.08598503740648379,0.04801054466632388,
0.08603491271820449,0.026643936684178828,
0.08608478802992518,0.036979286724632916,
0.08613466334164588,0.0038945250648489763,
0.08618453865336659,-0.007260980722300463,
0.08623441396508728,0.021846377482677867,
0.08628428927680798,0.036228465945023075,
0.08633416458852868,0.029296862924884898,
0.08638403990024937,-0.002359274636229442,
0.08643391521197008,0.019743863637340858,
0.08648379052369078,-0.0018659182064825197,
0.08653366583541147,0.005780463466250763,
0.08658354114713217,0.013203224584977994,
0.08663341645885286,0.025844440615542946,
0.08668329177057357,0.01308956416395091,
0.08673316708229427,0.03020445886169461,
0.08678304239401496,0.026234939174932064,
0.08683291770573566,0.015247915788254018,
0.08688279301745636,0.020535856071374228,
0.08693266832917705,0.03016953882686469,
0.08698254364089776,0.029797218466746284,
0.08703241895261846,0.012902233682631995,
0.08708229426433915,0.02368413706276892,
0.08713216957605985,0.022427169985428506,
0.08718204488778054,0.04126487254891237,
0.08723192019950125,0.014344156623376951,
0.08728179551122195,0.020593403258199503,
0.08733167082294264,0.038089835573413666,
0.08738154613466334,-0.004554158482138387,
0.08743142144638404,0.02711390815230281,
0.08748129675810473,0.0025914874400066387,
0.08753117206982544,-0.009586677373816181,
0.08758104738154614,0.0496361549688243,
0.08763092269326683,0.013865498595146642,
0.08768079800498753,0.02661654822666063,
0.08773067331670822,0.0421932698737922,
0.08778054862842893,-0.00572118660472485,
0.08783042394014963,0.0255626140262066,
0.08788029925187033,0.002571908468326757,
0.08793017456359102,0.031717690098065715,
0.08798004987531172,0.0187425466400159,
0.08802992518703241,0.04159804961537187,
0.08807980049875312,0.05300316878004681,
0.08812967581047382,0.0014848322384170744,
0.08817955112219451,-0.0008287751058382309,
0.08822942643391521,0.035593420543885826,
0.0882793017456359,-0.02694238671435953,
0.08832917705735661,0.022271732079667223,
0.08837905236907731,0.015360486691302537,
0.088428927680798,0.0239566641963403,
0.0884788029925187,0.026008373961334166,
0.0885286783042394,0.03279307461363704,
0.0885785536159601,0.028804399055142746,
0.0886284289276808,0.028911003813332108,
0.0886783042394015,0.012642327203537695,
0.0887281795511222,0.03306709029324574,
0.08877805486284289,0.016306932907401088,
0.08882793017456359,0.007583339971097661,
0.0888778054862843,0.0023819951404971187,
0.08892768079800499,0.036817246836398275,
0.08897755610972569,-0.014115605520393287,
0.08902743142144638,-0.00898775834991817,
0.08907730673316708,0.017078463675533097,
0.08912718204488779,-0.008242418753592974,
0.08917705735660848,0.03764631489045036,
0.08922693266832918,0.0073242999721786425,
0.08927680798004987,-0.01652164726442874,
0.08932668329177057,-0.006844886358011063,
0.08937655860349127,-0.013232995394769173,
0.08942643391521198,0.0037615458166289735,
0.08947630922693267,0.011448448866693857,
0.08952618453865337,0.042796203247297895,
0.08957605985037406,-0.004214996161087706,
0.08962593516209476,0.0007041513061924421,
0.08967581047381547,-0.01291382079160348,
0.08972568578553616,0.0029041780337743022,
0.08977556109725686,0.0027160755925943305,
0.08982543640897755,0.003258954327293495,
0.08987531172069825,0.01000402444325047,
0.08992518703241895,-0.0018189008186253108,
0.08997506234413966,0.011037597908743667,
0.09002493765586035,-0.01077843360775828,
0.09007481296758105,-0.025040592046384556,
0.09012468827930174,-0.013914492876637175,
0.09017456359102244,-0.0012905812439441677,
0.09022443890274315,0.0028539768355424844,
0.09027431421446384,0.0008768482055029037,
0.09032418952618454,0.03623587223529359,
0.09037406483790524,0.022599878943841217,
0.09042394014962593,0.0145918385537418,
0.09047381546134663,0.015437391132569062,
0.09052369077306734,0.022595233570031164,
0.09057356608478803,-0.01283599258612108,
0.09062344139650873,-0.005312892608638585,
0.09067331670822942,-0.021639651262949776,
0.09072319201995012,0.015064445514963434,
0.09077306733167083,0.0028046971031765594,
0.09082294264339152,0.03481200616938554,
0.09087281795511222,0.018811062629011447,
0.09092269326683292,-0.0015595606339260369,
0.09097256857855361,0.01925947306899783,
0.09102244389027432,-0.010097680251579554,
0.09107231920199502,-0.014493371219481471,
0.09112219451371571,0.0005988134948035919,
0.09117206982543641,-0.0030480123721755674,
0.0912219451371571,0.025083490766560326,
0.0912718204488778,0.0016310375549856509,
0.09132169576059851,0.004229857180161299,
0.0913715710723192,-0.01900388271520296,
0.0914214463840399,-0.022497893374879008,
0.0914713216957606,0.013783245944596486,
0.09152119700748129,0.008335429145782964,
0.091571072319202,0.004152699886457551,
0.0916209476309227,-0.011887420593156233,
0.09167082294264339,-0.009427311457228922,
0.09172069825436409,-0.0439198690905481,
0.09177057356608478,-0.00785158976898561,
0.09182044887780548,-0.02116116874783688,
0.09187032418952619,0.020124921313780596,
0.09192019950124689,-0.0029497326795984613,
0.09197007481296758,-0.017996480292688057,
0.09201995012468828,-0.011263181710062131,
0.09206982543640897,-0.013961702766848974,
0.09211970074812968,-0.007798602336010978,
0.09216957605985038,0.02069636947052895,
0.09221945137157107,0.007032592424781721,
0.09226932668329177,0.0017348692406707915,
0.09231920199501246,-0.0021601708112923305,
0.09236907730673316,-0.020328803620563673,
0.09241895261845387,-0.0017708562074267046,
0.09246882793017457,-0.018050902477905098,
0.09251870324189526,-0.03570733061876824,
0.09256857855361596,-0.029329970874635895,
0.09261845386533665,-0.025605669694761427,
0.09266832917705736,-0.012818739451905191,
0.09271820448877806,-0.01219514906967048,
0.09276807980049875,0.0029590976648076837,
0.09281795511221945,-0.020509381735493715,
0.09286783042394015,0.013836196712377749,
0.09291770573566084,-0.018537795429566406,
0.09296758104738155,-0.023029337258805984,
0.09301745635910225,0.015066687454180695,
0.09306733167082294,-0.01916516697156956,
0.09311720698254364,-0.005744634573746755,
0.09316708229426433,-0.0014368766583067669,
0.09321695760598504,-0.02064805394096253,
0.09326683291770574,-0.034542560601900606,
0.09331670822942643,-0.009074761712500363,
0.09336658354114713,0.010526499278389504,
0.09341645885286783,-0.005987603463056856,
0.09346633416458854,-0.020396567361536798,
0.09351620947630923,-0.032851244667429544,
0.09356608478802993,-0.010509394356597205,
0.09361596009975062,0.0031463667336213037,
0.09366583541147132,-0.0030087877675939283,
0.09371571072319201,0.008566921233156884,
0.09376558603491272,-0.005647878524806909,
0.09381546134663342,-0.007835110900261632,
0.09386533665835411,-0.013881573602960263,
0.09391521197007481,-0.037783975244021925,
0.0939650872817955,-0.017639303050121753,
0.09401496259351622,0.016915955887290075,
0.09406483790523691,-0.02290853403253036,
0.09411471321695761,-0.006442023642181746,
0.0941645885286783,0.0053959453688823406,
0.094214463840399,-0.0025345462401318124,
0.0942643391521197,-0.013702415461900994,
0.0943142144638404,-0.02998841754536846,
0.0943640897755611,-0.024634446562829305,
0.0944139650872818,-0.0035166823416304237,
0.09446384039900249,-0.006998476986251344,
0.09451371571072319,-0.030008982478836457,
0.0945635910224439,0.0023367911937376695,
0.09461346633416459,-0.002489087616437546,
0.09466334164588529,0.002220087384666768,
0.09471321695760598,0.0008036459751646335,
0.09476309226932668,-0.01685320727281861,
0.09481296758104737,-0.01851079223488647,
0.09486284289276808,-0.011780085838042229,
0.09491271820448878,-0.04220599313862381,
0.09496259351620948,0.0014380280996177976,
0.09501246882793017,-0.006743045535466509,
0.09506234413965087,0.0019825812741063892,
0.09511221945137158,0.009064041740397065,
0.09516209476309227,0.0025002061280252445,
0.09521197007481297,-0.0021197956823282085,
0.09526184538653366,-0.00047247626708437837,
0.09531172069825436,-0.01603284085746647,
0.09536159600997507,-0.01787071596079736,
0.09541147132169576,-0.040452312110941226,
0.09546134663341646,0.01110650779682509,
0.09551122194513716,-0.021184781951378257,
0.09556109725685785,-0.03814461337342935,
0.09561097256857855,-0.005568486146396417,
0.09566084788029926,-0.028495854726996193,
0.09571072319201995,-0.017021007936094183,
0.09576059850374065,0.010321800644334193,
0.09581047381546134,-0.010964000950018149,
0.09586034912718204,-0.009759744627201774,
0.09591022443890275,-0.021094715123922428,
0.09596009975062345,-0.021513127896242233,
0.09600997506234414,-0.004553679610991515,
0.09605985037406484,0.0028281441702824803,
0.09610972568578553,-0.0029696345754073785,
0.09615960099750623,-0.0029995830348567443,
0.09620947630922694,0.010221615476791032,
0.09625935162094763,0.01555030304128436,
0.09630922693266833,-0.010303285083187175,
0.09635910224438902,0.006001047876085769,
0.09640897755610972,-0.0028342781210723422,
0.09645885286783043,-0.004860219188005429,
0.09650872817955113,-0.022218739457179195,
0.09655860349127182,-0.01699255492995107,
0.09660847880299252,-0.04977266563580217,
0.09665835411471321,0.0016863631444019398,
0.09670822942643391,0.004996968999374058,
0.09675810473815462,-0.0008021065957545988,
0.09680798004987531,-0.027808064181598192,
0.09685785536159601,0.0004365352088052058,
0.0969077306733167,0.0006133523405732737,
0.0969576059850374,-0.012860529409683717,
0.09700748129675811,-0.008783873400161403,
0.0970573566084788,0.009340985228588755,
0.0971072319201995,-0.019327373023703343,
0.0971571072319202,-0.012896540373835107,
0.0972069825436409,-0.04510696033785001,
0.09725685785536159,-0.03156616243020676,
0.0973067331670823,-0.005403914071528815,
0.097356608478803,-0.029107745655851752,
0.09740648379052369,-0.004008204478578172,
0.09745635910224439,-0.03372194059008955,
0.09750623441396508,0.004495569296648911,
0.09755610972568579,-0.05350062938331629,
0.09760598503740649,-0.021569959484208655,
0.09765586034912718,-0.014233557044002396,
0.09770573566084788,0.0029848847009524126,
0.09775561097256857,0.027988036034453233,
0.09780548628428928,-0.01775413844504491,
0.09785536159600998,0.00724708978798995,
0.09790523690773068,-0.005169409951418761,
0.09795511221945137,0.019632035538237003,
0.09800498753117207,0.005350822671892799,
0.09805486284289276,-0.030363462234323655,
0.09810473815461347,0.01082810081552877,
0.09815461346633417,0.01337127974341456,
0.09820448877805486,-0.012393274790747592,
0.09825436408977556,-0.002072615246247677,
0.09830423940149625,0.014329242389091883,
0.09835411471321696,-0.01848179944144012,
0.09840399002493766,0.008168747553548414,
0.09845386533665836,0.009226000655703944,
0.09850374064837905,0.016291078734610945,
0.09855361596009975,0.012038445592435762,
0.09860349127182044,0.005456824691326723,
0.09865336658354115,0.00981806449513963,
0.09870324189526185,0.03162412300475728,
0.09875311720698254,0.013408384668393577,
0.09880299251870324,0.01355162040540777,
0.09885286783042393,0.030477775380105245,
0.09890274314214464,0.02433984935466059,
0.09895261845386534,0.009500808765465846,
0.09900249376558604,-0.014327034557900912,
0.09905236907730673,-0.004999033270095363,
0.09910224438902743,-0.007519994880201714,
0.09915211970074812,0.012047930818377368,
0.09920199501246883,0.015014187688209186,
0.09925187032418953,0.011862996357387521,
0.09930174563591022,0.008210193320343494,
0.09935162094763092,-0.0011913501732085056,
0.09940149625935162,-0.001443974156998068,
0.09945137157107233,-0.02122088855762482,
0.09950124688279302,-0.009374478428631563,
0.09955112219451372,0.003922047107773259,
0.09960099750623441,0.0020301734218534113,
0.09965087281795511,0.005791122624090629,
0.0997007481296758,0.0011629136048756,
0.09975062344139651,-0.013582425529181952,
0.09980049875311721,0.013118719021620744,
0.0998503740648379,0.005712861229135493,
0.0999002493765586,0.016745440854835213,
0.0999501246882793,-0.011264365704817038,
0.1,0.0108328057412458,
0.1000498753117207,-0.019628943720379603,
0.1000997506234414,0.007600982832302976,
0.10014962593516209,0.01180385447238867,
0.10019950124688279,-0.0030859377937193563,
0.1002493765586035,0.005488912624256209,
0.1002992518703242,-0.0028019568872465674,
0.10034912718204489,0.015205829210012277,
0.10039900249376559,-0.005849273070892627,
0.10044887780548628,0.0005519019813847864,
0.10049875311720698,0.001123194024213901,
0.10054862842892769,0.009831281561900196,
0.10059850374064838,0.02079898007562347,
0.10064837905236908,0.04482968563962188,
0.10069825436408977,0.011768725142880673,
0.10074812967581047,-0.0002497321378217444,
0.10079800498753118,0.015030136893897811,
0.10084788029925187,0.009072328664735299,
0.10089775561097257,0.026224929796227953,
0.10094763092269327,0.006656759190094664,
0.10099750623441396,0.0030073323108523575,
0.10104738154613466,-0.006605200430372823,
0.10109725685785537,0.01141500033685322,
0.10114713216957606,0.0404559802866751,
0.10119700748129676,0.030734270727625294,
0.10124688279301745,0.009511371087976925,
0.10129675810473815,0.031650460126280644,
0.10134663341645886,0.01970961980095759,
0.10139650872817955,0.023246573389329103,
0.10144638403990025,-0.007614161374497001,
0.10149625935162095,0.02889227214808794,
0.10154613466334164,0.012514016440191782,
0.10159600997506234,0.004279185477195005,
0.10164588528678305,0.009769554863322283,
0.10169576059850374,0.01053640737259605,
0.10174563591022444,0.025987708497959554,
0.10179551122194513,0.028290053063063505,
0.10184538653366583,0.014448347414437727,
0.10189526184538654,0.013182084320136615,
0.10194513715710724,0.01829052708675149,
0.10199501246882793,0.00914137535189775,
0.10204488778054863,-0.0031031088621986044,
0.10209476309226932,0.019272741747194663,
0.10214463840399003,0.015163733316756271,
0.10219451371571073,0.026078774121803146,
0.10224438902743142,-0.019641981295862494,
0.10229426433915212,0.004594415661163472,
0.10234413965087281,0.027598853774787765,
0.10239401496259351,0.015304967900755336,
0.10244389027431422,0.02555874265941292,
0.10249376558603492,0.02448884649822625,
0.10254364089775561,0.025009111475413348,
0.10259351620947631,0.01839477212404725,
0.102643391521197,0.011054982925736114,
0.10269326683291771,0.021472819034235934,
0.10274314214463841,0.01600085521780712,
0.1027930174563591,0.04084468150016726,
0.1028428927680798,0.03970893498132955,
0.1028927680798005,0.03962553877203846,
0.10294264339152119,0.010610082082856994,
0.1029925187032419,0.029639185920394523,
0.1030423940149626,0.019516638089907768,
0.10309226932668329,0.02090150295023757,
0.10314214463840399,0.0253960741337034,
0.10319201995012468,0.01959427029648663,
0.10324189526184539,0.013253951235560795,
0.10329177057356609,0.034831575437694884,
0.10334164588528678,0.023912622186048473,
0.10339152119700748,0.06255569358007042,
0.10344139650872818,0.02029835609944813,
0.10349127182044887,0.0011695655941361544,
0.10354114713216958,0.030066773034731178,
0.10359102244389028,0.03257129902899444,
0.10364089775561097,0.03707632944114858,
0.10369077306733167,0.029247449343241867,
0.10374064837905236,0.008854367182842469,
0.10379052369077307,0.016297777851529506,
0.10384039900249377,0.028103196979414206,
0.10389027431421446,0.014464089014275986,
0.10394014962593516,0.040504053146474525,
0.10399002493765586,0.0765405693393865,
0.10403990024937655,0.01785923568785778,
0.10408977556109726,0.026398251481031556,
0.10413965087281796,0.014273672715715844,
0.10418952618453865,0.044435583070380466,
0.10423940149625935,0.01834807650052222,
0.10428927680798004,0.020450666404486346,
0.10433915211970075,0.017398001814980045,
0.10438902743142145,0.014034360798461636,
0.10443890274314215,0.038834359704087135,
0.10448877805486284,0.036389155708116086,
0.10453865336658354,0.02638397832361172,
0.10458852867830425,0.035682313122676154,
0.10463840399002494,0.024820675059546174,
0.10468827930174564,0.00010040375510281599,
0.10473815461346633,0.02714310132474525,
0.10478802992518703,0.01873070664486192,
0.10483790523690772,0.04144736685764213,
0.10488778054862843,0.024105976924278058,
0.10493765586034913,0.02202813900691325,
0.10498753117206983,0.022742354685773465,
0.10503740648379052,0.023323602452942932,
0.10508728179551122,0.05379379155110259,
0.10513715710723193,0.04072862017688094,
0.10518703241895262,0.06318337610675032,
0.10523690773067332,0.0477233028519891,
0.10528678304239401,0.04271825313235044,
0.10533665835411471,0.016796033190410963,
0.1053865336658354,0.03071738491575279,
0.10543640897755611,0.01725265044897762,
0.10548628428927681,0.018070991760216717,
0.1055361596009975,0.027794172249970054,
0.1055860349127182,0.03367880221478647,
0.1056359102244389,0.032420946685318974,
0.10568578553615961,0.018378953104910133,
0.1057356608478803,0.02805357084167843,
0.105785536159601,0.04183205133428823,
0.1058354114713217,0.0026648104428487404,
0.10588528678304239,0.028169226610616747,
0.10593516209476309,0.02036763534731948,
0.1059850374064838,0.015941100479686877,
0.10603491271820449,0.03154740854854001,
0.10608478802992519,0.04036716465022147,
0.10613466334164588,0.03198976415509694,
0.10618453865336658,0.02873418507744339,
0.10623441396508729,0.03953877709440494,
0.10628428927680798,0.02267754811797135,
0.10633416458852868,0.01936247174221522,
0.10638403990024937,0.02038017416343931,
0.10643391521197007,0.021433141596243363,
0.10648379052369077,-0.016031179419625508,
0.10653366583541148,0.030415001126432792,
0.10658354114713217,0.019850087558959947,
0.10663341645885287,0.028492676055936285,
0.10668329177057356,0.038411569967064955,
0.10673316708229426,0.015029719359572034,
0.10678304239401497,-0.001998426959855526,
0.10683291770573566,0.010981350615460003,
0.10688279301745636,0.024665086915442558,
0.10693266832917706,0.015037844851494455,
0.10698254364089775,0.03959674970775892,
0.10703241895261846,0.03052728086960468,
0.10708229426433916,0.0243724983377517,
0.10713216957605985,0.002470758128592071,
0.10718204488778055,0.05241655475615892,
0.10723192019950124,0.05149080720457343,
0.10728179551122194,0.010401748378505578,
0.10733167082294265,0.021316591169238435,
0.10738154613466334,0.03473411936012842,
0.10743142144638404,0.011542871029232913,
0.10748129675810474,0.015869874421430074,
0.10753117206982543,0.011862503801479981,
0.10758104738154614,0.03232479962863226,
0.10763092269326684,0.024148079914757634,
0.10768079800498753,0.01341719514584316,
0.10773067331670823,0.03643169826591981,
0.10778054862842892,-0.006539788834388816,
0.10783042394014962,0.030933633565286705,
0.10788029925187033,0.05522608612162008,
0.10793017456359102,0.0009862984259641008,
0.10798004987531172,0.006909368803331553,
0.10802992518703242,0.029379961692462705,
0.10807980049875311,0.02860662264013422,
0.10812967581047382,0.016525420361644776,
0.10817955112219452,0.032738645985147814,
0.10822942643391521,0.013995332556022562,
0.10827930174563591,0.02737390094720663,
0.1083291770573566,0.02398541903575729,
0.1083790523690773,0.006749465115916712,
0.10842892768079801,0.005137101738702417,
0.1084788029925187,0.039305905626313066,
0.1085286783042394,0.019132192932320956,
0.1085785536159601,0.022070626019290288,
0.10862842892768079,0.00941261011962076,
0.1086783042394015,0.023513349806913462,
0.1087281795511222,0.03173424173136943,
0.1087780548628429,0.03160494480345125,
0.10882793017456359,0.03254870061326497,
0.10887780548628428,0.037951695787069,
0.108927680798005,0.028592673231289452,
0.10897755610972569,0.014532616602879977,
0.10902743142144639,0.027565929610696708,
0.10907730673316708,0.04590699937190858,
0.10912718204488778,0.020439809779335974,
0.10917705735660847,0.038646523034573346,
0.10922693266832918,-0.0040930416584468565,
0.10927680798004988,0.011589745929366579,
0.10932668329177057,0.004975535755188387,
0.10937655860349127,0.0013331415486471012,
0.10942643391521197,-0.007626164610224719,
0.10947630922693267,0.01648515621893691,
0.10952618453865337,0.024955976929384747,
0.10957605985037407,0.0008858091579268083,
0.10962593516209476,0.010251030680153216,
0.10967581047381546,-0.00945042655434767,
0.10972568578553615,0.01638947291284946,
0.10977556109725686,0.021078653333584198,
0.10982543640897756,-0.0022652141711204422,
0.10987531172069825,0.02259637468127687,
0.10992518703241895,0.0023489266507607546,
0.10997506234413965,-0.004771295892634463,
0.11002493765586036,-0.021747690675904315,
0.11007481296758105,-0.007516957948190609,
0.11012468827930175,0.013336582126072475,
0.11017456359102244,0.02446985819325235,
0.11022443890274314,0.019555649028325565,
0.11027431421446383,0.0027217644976999245,
0.11032418952618454,-0.010154756999504239,
0.11037406483790524,0.028318604132991334,
0.11042394014962593,0.016699266815787206,
0.11047381546134663,-0.010558316575931596,
0.11052369077306733,-0.008925880324310895,
0.11057356608478804,-0.006550512131742682,
0.11062344139650873,0.01540599633366473,
0.11067331670822943,0.004062216045837649,
0.11072319201995012,-0.00437022264059938,
0.11077306733167082,0.007163901847166534,
0.11082294264339151,0.020383834044979163,
0.11087281795511222,-0.009474208229797733,
0.11092269326683292,-0.0019692188408656085,
0.11097256857855362,0.026854795390849173,
0.11102244389027431,0.005855418960929594,
0.111072319201995,-0.001352108288503573,
0.11112219451371572,0.009596675172368127,
0.11117206982543641,-0.00903135823118315,
0.11122194513715711,0.009346321184335303,
0.1112718204488778,0.009630937841395338,
0.1113216957605985,0.011611660387984519,
0.11137157107231921,0.0037312433103174466,
0.1114214463840399,-0.0014975699851399447,
0.1114713216957606,0.0040216805494005916,
0.1115211970074813,-0.02562242477865881,
0.11157107231920199,0.014227282244765738,
0.11162094763092269,-0.0022287160949811054,
0.1116708229426434,-0.0014364667493010008,
0.11172069825436409,0.009107275595233924,
0.11177057356608479,0.0062024127829068115,
0.11182044887780548,-0.019466465250726546,
0.11187032418952618,-0.006410010441855891,
0.11192019950124689,0.004042147996894662,
0.11197007481296758,-0.04146226940043164,
0.11201995012468828,-0.006501837049811561,
0.11206982543640898,-0.03675773269043302,
0.11211970074812967,-0.01638647015524381,
0.11216957605985037,-0.011408637860652718,
0.11221945137157108,-0.01668946086572918,
0.11226932668329177,-0.02249476971221707,
0.11231920199501247,-0.0042908378580896085,
0.11236907730673316,0.030329330663312178,
0.11241895261845386,0.015909146139547574,
0.11246882793017457,-0.02036880695829913,
0.11251870324189527,-0.02516876147451954,
0.11256857855361596,-0.013681244580312788,
0.11261845386533666,-0.02741911670650754,
0.11266832917705735,0.005049220240036996,
0.11271820448877805,-0.01310410760784603,
0.11276807980049876,0.004512185286918782,
0.11281795511221945,-0.005902263379431418,
0.11286783042394015,-0.012664971452471228,
0.11291770573566084,0.0007081151885091081,
0.11296758104738154,0.03036112117841998,
0.11301745635910225,0.014204607249576194,
0.11306733167082295,-0.025350441281732417,
0.11311720698254364,-0.007081965231772036,
0.11316708229426434,0.0009922532152786216,
0.11321695760598503,-0.0012066842468048677,
0.11326683291770574,-0.01919128315022963,
0.11331670822942644,-0.001035745280541487,
0.11336658354114713,-0.014136793254125358,
0.11341645885286783,-0.0296413556064258,
0.11346633416458853,-0.04252681492476376,
0.11351620947630922,0.003849352884492523,
0.11356608478802993,-0.016232963536201826,
0.11361596009975063,-0.008258951004936546,
0.11366583541147132,-0.02181443483001501,
0.11371571072319202,-0.019072759564349718,
0.11376558603491271,-0.01637048250950293,
0.11381546134663342,-0.03720445775138426,
0.11386533665835412,-0.01037781789794324,
0.11391521197007481,-0.01501740328684402,
0.11396508728179551,-0.024692763619161295,
0.1140149625935162,-0.01336292418559188,
0.1140648379052369,-0.007092678827773821,
0.11411471321695761,-0.02514326916492695,
0.1141645885286783,0.010342337485373247,
0.114214463840399,-0.00994246465630487,
0.1142643391521197,-0.009299383072728432,
0.1143142144638404,0.00860102491210156,
0.1143640897755611,-0.020808766271545695,
0.1144139650872818,-0.03213311049442208,
0.1144638403990025,0.0011280410920718898,
0.11451371571072319,-0.01451413570779599,
0.11456359102244389,-0.04110068936639452,
0.11461346633416458,-0.02911980412739463,
0.11466334164588529,-0.034623597151544706,
0.11471321695760599,0.0037385571593736826,
0.11476309226932668,-0.021079545865399,
0.11481296758104738,-0.0033665792391501578,
0.11486284289276807,-0.024908026428663216,
0.11491271820448878,-0.005595402667439914,
0.11496259351620948,0.008987752427120126,
0.11501246882793018,0.020380548323442264,
0.11506234413965087,-0.018991633853071045,
0.11511221945137157,-0.009641993335892217,
0.11516209476309226,-0.005162980294726168,
0.11521197007481297,-0.009271575820905653,
0.11526184538653367,-0.016939626754531034,
0.11531172069825436,0.0037528459495513693,
0.11536159600997506,-0.012458634553819369,
0.11541147132169575,-0.009803887215621244,
0.11546134663341646,-0.02693590962673676,
0.11551122194513716,-0.016243107699051764,
0.11556109725685786,-0.01709994901822005,
0.11561097256857855,-0.007022844446701234,
0.11566084788029925,-0.029918683348077218,
0.11571072319201996,-0.016972023863772452,
0.11576059850374065,0.01522129901270077,
0.11581047381546135,-0.02070002518284198,
0.11586034912718204,-0.01528579108395989,
0.11591022443890274,-0.0019698222498533667,
0.11596009975062344,-0.021611054061288697,
0.11600997506234415,-0.0038151196319396495,
0.11605985037406484,0.010295931451013344,
0.11610972568578554,8.544340297787431e-06,
0.11615960099750623,0.01906412901664411,
0.11620947630922693,0.004834290087094776,
0.11625935162094764,-0.011391032956439093,
0.11630922693266833,0.006340290304089367,
0.11635910224438903,-0.004157912176387474,
0.11640897755610972,0.01593131877950963,
0.11645885286783042,-0.008353714737570775,
0.11650872817955112,-0.006910293182341246,
0.11655860349127183,-0.0004544446559337136,
0.11660847880299252,0.007513460904850918,
0.11665835411471322,-0.013437154137346486,
0.11670822942643391,-0.0001491437451427687,
0.11675810473815461,-0.005039276893804166,
0.11680798004987532,-0.014327165847060576,
0.11685785536159601,-0.012499187702857,
0.11690773067331671,-0.014190786497426874,
0.1169576059850374,-0.010010435898295277,
0.1170074812967581,-0.003006471903406744,
0.1170573566084788,-0.013017653269416996,
0.1171072319201995,-0.017569611080788597,
0.1171571072319202,-0.023096061326421273,
0.1172069825436409,0.0050061136725266814,
0.1172568578553616,-0.019908877689051696,
0.11730673316708229,0.028055178138684075,
0.117356608478803,0.0004995757945918536,
0.1174064837905237,0.0002469844725678837,
0.11745635910224439,0.010186554431477,
0.11750623441396509,-0.013195882318473382,
0.11755610972568578,0.01157789959591813,
0.11760598503740648,-0.014934443750806369,
0.11765586034912719,-0.012303360397953048,
0.11770573566084788,0.010556429121757818,
0.11775561097256858,-0.01280607017369642,
0.11780548628428927,0.0016649399878313287,
0.11785536159600997,0.013827413328021433,
0.11790523690773068,0.0035263633310249733,
0.11795511221945137,-0.004625248637291746,
0.11800498753117207,0.01098752780653827,
0.11805486284289277,-0.02662506687955425,
0.11810473815461346,0.0002975465882437971,
0.11815461346633417,0.022681557218494398,
0.11820448877805487,-0.002515776740176565,
0.11825436408977556,-0.006176042433058197,
0.11830423940149626,-0.0008545863162922329,
0.11835411471321695,0.01143990680720775,
0.11840399002493765,-0.028740813051265527,
0.11845386533665836,-0.0009030085553883072,
0.11850374064837906,-0.011602225711255094,
0.11855361596009975,-0.004025314867948814,
0.11860349127182045,0.010832078933671906,
0.11865336658354114,-0.017821256767079543,
0.11870324189526185,-0.0019519260494460303,
0.11875311720698255,0.008174606244004828,
0.11880299251870324,-0.0018898041646925661,
0.11885286783042394,0.020682201038261756,
0.11890274314214463,0.0019033990404844455,
0.11895261845386533,0.013145976532053806,
0.11900249376558604,-0.0056529545469939085,
0.11905236907730674,0.00389544567388726,
0.11910224438902743,0.01972129650806707,
0.11915211970074813,0.024141619789270315,
0.11920199501246882,0.026991040868457515,
0.11925187032418953,-0.010518650386415699,
0.11930174563591023,-0.002807495482841966,
0.11935162094763092,0.0036647429637586314,
0.11940149625935162,0.02323601717841388,
0.11945137157107232,-0.0035722253391825146,
0.11950124688279301,-0.014990740051136717,
0.11955112219451372,-0.019546645317991652,
0.11960099750623442,0.0022421312892345942,
0.11965087281795511,0.018439585205550692,
0.11970074812967581,0.02662919156874869,
0.1197506234413965,-0.004312153424057533,
0.11980049875311721,0.0005155839733338753,
0.11985037406483791,-0.01086758474844413,
0.1199002493765586,0.013064971342274972,
0.1199501246882793,0.014573542173093151,
0.12,-0.000680805751857607,
0.1200498753117207,0.021484617702502387,
0.1200997506234414,-0.01304815334106001,
0.1201496259351621,0.01040362298923217,
0.12019950124688279,-0.001088686930005741,
0.12024937655860349,0.004896230008756483,
0.12029925187032418,-0.006227255638925795,
0.1203491271820449,0.019496112745271594,
0.12039900249376559,0.028735583542204,
0.12044887780548628,0.0032722500715599723,
0.12049875311720698,0.03833808070529521,
0.12054862842892768,0.04875062135212066,
0.12059850374064839,0.013582847478273154,
0.12064837905236908,-0.012849143025235503,
0.12069825436408978,-0.007320037286324528,
0.12074812967581047,0.007482219691533944,
0.12079800498753117,0.012683969554176028,
0.12084788029925186,0.014988697870429593,
0.12089775561097257,0.046470492404004624,
0.12094763092269327,-0.004564607434291969,
0.12099750623441397,0.025459766057318277,
0.12104738154613466,0.019093454613974825,
0.12109725685785536,0.025507840516677427,
0.12114713216957607,0.01298345135754652,
0.12119700748129676,0.020433474131770626,
0.12124688279301746,0.019709358394359874,
0.12129675810473815,0.010359023458250087,
0.12134663341645885,0.014909919599937906,
0.12139650872817954,0.03573645073999286,
0.12144638403990025,-0.010484152184208183,
0.12149625935162095,0.03124726138160274,
0.12154613466334165,0.025646550065846322,
0.12159600997506234,0.022964331141080572,
0.12164588528678304,0.029334672042045866,
0.12169576059850375,0.017395173059398323,
0.12174563591022444,0.006916285257969451,
0.12179551122194514,0.022945364162793764,
0.12184538653366583,0.002483653009719807,
0.12189526184538653,-0.005538690762266686,
0.12194513715710723,0.038787451740987994,
0.12199501246882793,-0.006335377029547194,
0.12204488778054863,0.024286005423688296,
0.12209476309226933,0.013660325414559851,
0.12214463840399002,-0.009159945393194882,
0.12219451371571072,0.02664851667683195,
0.12224438902743143,0.017498613050251435,
0.12229426433915212,0.008371270862490211,
0.12234413965087282,0.04100864587155529,
0.12239401496259351,0.02047735265415573,
0.12244389027431421,0.031055368728518568,
0.12249376558603492,0.0010896984924651555,
0.12254364089775562,0.010519611325646027,
0.12259351620947631,0.0244139324936433,
0.122643391521197,0.04788105096127736,
0.1226932668329177,0.03045808330971613,
0.1227431421446384,0.014251511288423509,
0.12279301745635911,0.02743060852751058,
0.1228428927680798,0.026266442458976306,
0.1228927680798005,0.036723063995273614,
0.1229426433915212,0.007962526480463885,
0.12299251870324189,0.027450256531711344,
0.1230423940149626,0.0019605159750795166,
0.1230922693266833,0.007080554630838922,
0.12314214463840399,0.029470203033825488,
0.12319201995012469,0.009843158764942895,
0.12324189526184538,0.02061409713549326,
0.12329177057356608,-0.01439997434464739,
0.12334164588528679,0.02348354351313605,
0.12339152119700748,0.027932481706274572,
0.12344139650872818,0.04670886474975488,
0.12349127182044888,0.020160662029644463,
0.12354114713216957,0.05648593141085411,
0.12359102244389028,0.044624035457401456,
0.12364089775561098,0.05504403662868838,
0.12369077306733167,0.04801434006974782,
0.12374064837905237,0.01975405464903905,
0.12379052369077306,0.050610167147612045,
0.12384039900249376,0.03221617810758056,
0.12389027431421447,0.01684348526391713,
0.12394014962593516,0.03223297475416572,
0.12399002493765586,0.03174455672188597,
0.12403990024937656,0.028515668568626928,
0.12408977556109725,0.027452631294732792,
0.12413965087281796,0.047191751352935074,
0.12418952618453866,0.04302189214462467,
0.12423940149625935,0.0310162269951149,
0.12428927680798005,0.01835166449637167,
0.12433915211970074,0.011388727782108511,
0.12438902743142144,0.03045848484778312,
0.12443890274314215,0.039874026045713995,
0.12448877805486284,0.01680536939574997,
0.12453865336658354,0.03163237228978276,
0.12458852867830424,0.05823181202789854,
0.12463840399002493,0.022652047815759448,
0.12468827930174564,0.030102257347432593,
0.12473815461346634,0.008150541488373835,
0.12478802992518703,0.04962925150515744,
0.12483790523690773,0.014171608065295915,
0.12488778054862842,0.02822859757135254,
0.12493765586034913,0.041302881050949536,
0.12498753117206983,0.02333901869373721,
0.12503740648379053,0.03532077493072439,
0.12508728179551123,0.0054103699385835875,
0.12513715710723192,0.04240623642719771,
0.12518703241895263,0.013775187265503832,
0.1252369077306733,0.06467715063462606,
0.12528678304239402,0.010367695939443467,
0.1253366583541147,0.028865777588557736,
0.1253865336658354,0.026703902804331516,
0.12543640897755612,0.02867730980580859,
0.1254862842892768,0.039757380206765794,
0.1255361596009975,0.019616455351161563,
0.1255860349127182,-0.007946803703169053,
0.1256359102244389,0.028107128339197898,
0.1256857855361596,0.049687661230552876,
0.1257356608478803,0.015247519791335656,
0.125785536159601,0.049177993723146074,
0.12583541147132168,0.02548808215803759,
0.1258852867830424,0.008435493531789268,
0.1259351620947631,0.02563953262962591,
0.12598503740648379,0.01767594796515935,
0.1260349127182045,0.027628082481394055,
0.12608478802992518,0.008771892271318343,
0.1261346633416459,0.024337156118485356,
0.1261845386533666,0.01769764914839734,
0.12623441396508728,0.025398714934518774,
0.126284289276808,0.0366876498652132,
0.12633416458852867,0.022260501869742134,
0.12638403990024938,0.015907538919572348,
0.1264339152119701,0.011315807320858491,
0.12648379052369077,0.026995217032149958,
0.12653366583541148,0.02875157458452937,
0.12658354114713216,0.01532150631579443,
0.12663341645885287,0.009847929836633212,
0.12668329177057355,0.042645427568650876,
0.12673316708229426,0.03830501781430111,
0.12678304239401497,0.041585674547479023,
0.12683291770573565,0.0045233734173988766,
0.12688279301745636,0.023431513104173584,
0.12693266832917705,0.010659822442132871,
0.12698254364089775,0.038678317538537905,
0.12703241895261846,0.01613368238014925,
0.12708229426433915,0.05283350083166166,
0.12713216957605986,0.04898670845741829,
0.12718204488778054,0.031086764623141576,
0.12723192019950125,0.05800747144671482,
0.12728179551122196,0.029153932101130486,
0.12733167082294264,0.02278571257402629,
0.12738154613466335,0.034137869549279914,
0.12743142144638403,0.036638380427184994,
0.12748129675810474,-0.005976875006206382,
0.12753117206982545,-0.0023203579074218134,
0.12758104738154613,0.01350924668531533,
0.12763092269326684,0.010711816097585371,
0.12768079800498752,0.014947409288460164,
0.12773067331670823,0.010119246004940971,
0.1277805486284289,0.01565225598433368,
0.12783042394014962,0.052140391372243355,
0.12788029925187033,0.011830271442829809,
0.12793017456359101,0.007463072145235198,
0.12798004987531172,0.00941006672072484,
0.1280299251870324,0.041824532922180184,
0.12807980049875312,0.007420142757323478,
0.12812967581047383,0.038425169860699396,
0.1281795511221945,-0.0050989221580853665,
0.12822942643391522,0.00749464338441168,
0.1282793017456359,0.03670962106665662,
0.1283291770573566,0.029055240775082876,
0.12837905236907732,0.0015067608088089358,
0.128428927680798,0.03340937535957152,
0.1284788029925187,-0.00757602888544396,
0.1285286783042394,0.010787363155585485,
0.1285785536159601,-0.022532099956531704,
0.1286284289276808,0.008618262828999341,
0.1286783042394015,0.023070988863083,
0.1287281795511222,0.05144615654853602,
0.12877805486284288,0.0247376252111212,
0.1288279301745636,0.021925790973521434,
0.1288778054862843,-0.015306217042446089,
0.12892768079800498,0.014912683573444606,
0.1289775561097257,0.015294666653895386,
0.12902743142144638,-0.005721824324180882,
0.12907730673316709,0.02608606177489393,
0.12912718204488777,0.01621642617597323,
0.12917705735660848,0.011515690524170091,
0.1292269326683292,0.020123365169753795,
0.12927680798004987,0.01797429123515795,
0.12932668329177058,0.026665290923533872,
0.12937655860349126,-0.009767971945005907,
0.12942643391521197,0.008347406955695445,
0.12947630922693268,-0.007125824836791727,
0.12952618453865336,-0.000330871329764627,
0.12957605985037407,0.04208121834882353,
0.12962593516209475,0.013813281394184553,
0.12967581047381546,0.004424817049389109,
0.12972568578553617,-0.0051870144668520815,
0.12977556109725685,-0.006275605922155427,
0.12982543640897756,0.03482853066989916,
0.12987531172069824,0.0037775871747391934,
0.12992518703241895,0.0005503051136676994,
0.12997506234413966,-0.007083255225911309,
0.13002493765586035,0.019771546131861727,
0.13007481296758105,-0.007020514982690516,
0.13012468827930174,-0.014378085275752385,
0.13017456359102245,0.009008842172431943,
0.13022443890274316,0.012537455385548726,
0.13027431421446384,-0.0036657869136986748,
0.13032418952618455,0.021907080005478335,
0.13037406483790523,0.02427633683262364,
0.13042394014962594,-0.0005438361777853886,
0.13047381546134662,0.011715232769410808,
0.13052369077306733,0.0022152684764012876,
0.13057356608478804,0.0034006689885083615,
0.13062344139650872,-0.006345017405100608,
0.13067331670822943,0.023173253453586538,
0.1307231920199501,0.013647304805558466,
0.13077306733167082,0.0038991308906692274,
0.13082294264339153,0.016841142780637492,
0.13087281795511221,0.017383658002191126,
0.13092269326683292,0.04003447139263164,
0.1309725685785536,0.003340007749366897,
0.13102244389027431,-0.010062148823144688,
0.13107231920199502,0.013640470220399381,
0.1311221945137157,0.015462844040852273,
0.13117206982543642,0.027832332012710535,
0.1312219451371571,0.0011598687365802353,
0.1312718204488778,2.543988363983517e-05,
0.13132169576059852,0.0011660005524055752,
0.1313715710723192,-0.020837458766925922,
0.1314214463840399,-0.012822405094904276,
0.1314713216957606,-0.025708471815091984,
0.1315211970074813,-0.01566415625849662,
0.13157107231920198,0.026411522580314796,
0.1316209476309227,0.008300742074683174,
0.1316708229426434,0.01093655862580442,
0.13172069825436408,-0.012893312701588286,
0.1317705735660848,0.00028064275370132986,
0.13182044887780547,0.028534561269669814,
0.13187032418952618,0.009374455313946676,
0.1319201995012469,-0.003991961284428778,
0.13197007481296757,-0.0018179144359699415,
0.13201995012468828,0.008980170157576762,
0.13206982543640897,0.012719186057104058,
0.13211970074812968,0.007093975948013524,
0.13216957605985039,-0.017894865114208798,
0.13221945137157107,-0.013379591400640621,
0.13226932668329178,-0.03585140427978483,
0.13231920199501246,-0.0290957217631891,
0.13236907730673317,-0.025966407619585845,
0.13241895261845388,0.000904592392983166,
0.13246882793017456,-0.0018957684126313795,
0.13251870324189527,0.004997275390635533,
0.13256857855361595,0.017697892770136874,
0.13261845386533666,0.004320266675676924,
0.13266832917705737,-0.012029953392696146,
0.13271820448877805,-0.016564394904617155,
0.13276807980049876,0.016806816616190816,
0.13281795511221944,0.007570210882347543,
0.13286783042394015,-0.040649397783256914,
0.13291770573566083,0.008615525101282972,
0.13296758104738154,-0.004121891467908296,
0.13301745635910225,-0.0182074046780398,
0.13306733167082294,-0.01576422491948421,
0.13311720698254365,-0.0370637198388787,
0.13316708229426433,-0.006392561891646232,
0.13321695760598504,0.005148049325182745,
0.13326683291770575,-0.030070248610092498,
0.13331670822942643,0.009106643654592517,
0.13336658354114714,0.004517296902128976,
0.13341645885286782,0.006039182939292053,
0.13346633416458853,0.002513417016128181,
0.13351620947630924,-0.0034582491113975995,
0.13356608478802992,0.012584489085704424,
0.13361596009975063,0.010565361778062088,
0.1336658354114713,-0.03380021041795812,
0.13371571072319202,-0.00048786249680003203,
0.13376558603491273,-0.01999126041749336,
0.1338154613466334,-0.0031932387778763303,
0.13386533665835412,0.017353262512903096,
0.1339152119700748,0.00894475595840719,
0.13396508728179551,-0.026267977085954353,
0.1340149625935162,0.02267232032276901,
0.1340648379052369,-0.013921672149624732,
0.13411471321695762,-0.02235259047703555,
0.1341645885286783,-0.03465960663207846,
0.134214463840399,-0.013592423689742042,
0.1342643391521197,-0.04478199199167254,
0.1343142144638404,-0.00916640730582275,
0.1343640897755611,-0.024488879055309602,
0.1344139650872818,-0.00735215848595473,
0.1344638403990025,0.014004979788055918,
0.13451371571072318,-0.03417269188790732,
0.1345635910224439,0.0005377807127495259,
0.1346134663341646,-0.017088284527641988,
0.13466334164588528,-0.04630087478173513,
0.134713216957606,0.012939227023456932,
0.13476309226932667,-0.011474233305988839,
0.13481296758104738,-0.014555735587194302,
0.1348628428927681,-0.01823761007739696,
0.13491271820448877,-0.003404669854551317,
0.13496259351620948,0.010693994202038393,
0.13501246882793017,-0.017049048389981017,
0.13506234413965088,-0.021497003091091475,
0.13511221945137158,0.01804075951810745,
0.13516209476309227,0.007222689726097234,
0.13521197007481298,-0.038164650135607686,
0.13526184538653366,-0.010821851818399356,
0.13531172069825437,-0.0003118727597646465,
0.13536159600997505,-0.0036698501183727115,
0.13541147132169576,-0.02461786190435771,
0.13546134663341647,0.022671131855544563,
0.13551122194513715,-0.016058265726738193,
0.13556109725685786,0.004936590522933878,
0.13561097256857854,0.011947195572875862,
0.13566084788029925,-0.006447678422965286,
0.13571072319201996,0.005710424099441461,
0.13576059850374064,0.0001291456753038777,
0.13581047381546135,-0.036027053045482545,
0.13586034912718203,-0.01939642874646315,
0.13591022443890274,0.010521609897281556,
0.13596009975062345,-0.026634354228473996,
0.13600997506234414,-0.017636578563476172,
0.13605985037406484,-0.003111795911558018,
0.13610972568578553,0.006401317349007606,
0.13615960099750624,-0.002381426935961762,
0.13620947630922695,-0.0018625784435865227,
0.13625935162094763,0.011066523175898207,
0.13630922693266834,-0.01923816100950669,
0.13635910224438902,-0.02888865465754395,
0.13640897755610973,-0.017137802882790612,
0.1364588528678304,-0.007354372203176676,
0.13650872817955112,0.011527172552955094,
0.13655860349127183,-0.011296088212789084,
0.1366084788029925,-0.001860129346302965,
0.13665835411471322,-0.014409732316938012,
0.1367082294264339,-0.012164653554789767,
0.1367581047381546,-0.0008338891396277156,
0.13680798004987532,0.022026248878373574,
0.136857855361596,0.015872089099588614,
0.1369077306733167,0.01172207796389459,
0.1369576059850374,-0.014166148261717838,
0.1370074812967581,0.007755102718006505,
0.13705735660847881,-0.04717965762570822,
0.1371072319201995,-0.0009554151618325862,
0.1371571072319202,-0.007587025515513131,
0.1372069825436409,-0.005609639587092483,
0.1372568578553616,-0.004278776423828276,
0.1373067331670823,0.0034898937437695017,
0.137356608478803,0.005775493941940655,
0.1374064837905237,-0.006919462597317461,
0.13745635910224438,0.01738835065007701,
0.1375062344139651,-0.016491983076029886,
0.1375561097256858,-0.003012998675600944,
0.13760598503740648,-0.005177731240524437,
0.1376558603491272,0.0073282835369621255,
0.13770573566084787,0.01676301195562655,
0.13775561097256858,-0.028876677544495598,
0.13780548628428926,0.0032185870032480886,
0.13785536159600997,0.019041709119962873,
0.13790523690773068,-0.04423118367098107,
0.13795511221945136,0.004142780529257423,
0.13800498753117207,0.009635591966360445,
0.13805486284289276,0.009446363371730975,
0.13810473815461347,0.011789675935369873,
0.13815461346633418,0.0005781581961182964,
0.13820448877805486,-0.016280740317326355,
0.13825436408977557,0.0057207548730071845,
0.13830423940149625,-0.00807368852339337,
0.13835411471321696,-0.0027970713253732977,
0.13840399002493767,0.0006211648433590013,
0.13845386533665835,0.00032155941685476524,
0.13850374064837906,0.04876120687479871,
0.13855361596009974,0.018197230068013184,
0.13860349127182045,0.019456128275758662,
0.13865336658354116,-0.006590715802720242,
0.13870324189526184,-0.0042257626167150055,
0.13875311720698255,0.002544777366641781,
0.13880299251870323,0.007428988529234445,
0.13885286783042394,-0.007114489833757282,
0.13890274314214462,-0.024725528083659173,
0.13895261845386533,0.02679166057750089,
0.13900249376558604,0.02215983386938005,
0.13905236907730673,-0.001614890362273286,
0.13910224438902744,0.029905879878355305,
0.13915211970074812,0.0015033076812447713,
0.13920199501246883,0.011539921349932399,
0.13925187032418954,-0.010095719056294488,
0.13930174563591022,0.022127573459597587,
0.13935162094763093,0.004243578957170516,
0.1394014962593516,-0.008337569134111409,
0.13945137157107232,-0.0124279247409426,
0.13950124688279303,0.019554927699370173,
0.1395511221945137,-0.0008823527219849123,
0.13960099750623442,0.011508921158220973,
0.1396508728179551,0.0030726451159176224,
0.1397007481296758,-0.017188342979345177,
0.13975062344139652,-0.005476616377227612,
0.1398004987531172,0.01719099541656693,
0.1398503740648379,0.021320233500763598,
0.1399002493765586,0.030659339056574628,
0.1399501246882793,0.02267399406166119,
0.14,0.02924282168426206,
0.1400498753117207,0.026481514716579203,
0.1400997506234414,0.006409638492827077,
0.1401496259351621,0.01371042496721171,
0.1401995012468828,0.018507455435232363,
0.14024937655860348,0.009832528966020772,
0.1402992518703242,0.027844597269447553,
0.1403491271820449,0.029232403259348665,
0.14039900249376558,0.014164530677974869,
0.1404488778054863,-0.002009062208448223,
0.14049875311720697,0.0021909255443728817,
0.14054862842892768,0.015475895505191819,
0.1405985037406484,-0.003531613492435439,
0.14064837905236907,0.02319286398644829,
0.14069825436408978,0.016448999732135424,
0.14074812967581046,0.008226763247875473,
0.14079800498753117,0.022165283549145997,
0.14084788029925188,0.018015808718419558,
0.14089775561097256,0.030745550263261007,
0.14094763092269327,0.029916874266001686,
0.14099750623441396,-0.0038579090102872637,
0.14104738154613466,0.02124978099032841,
0.14109725685785537,0.02207637554138201,
0.14114713216957606,0.011403278036853808,
0.14119700748129677,0.023570710215736472,
0.14124688279301745,0.031228104646113263,
0.14129675810473816,0.055718053931705036,
0.14134663341645887,0.009406006990971869,
0.14139650872817955,0.017048999982163273,
