time,amplitude,label
0.0,-0.02976387465023616,
4.987531172069826e-05,0.001092491846903429,
9.975062344139652e-05,-0.0003717420306038659,
0.00014962593516209475,0.0065384505409691535,
0.00019950124688279303,0.007115994534199493,
0.00024937655860349125,-0.003441540249940712,
0.0002992518703241895,-0.015708466711372025,
0.00034912718204488776,0.011527716315890044,
0.00039900249376558606,0.0010439376176379325,
0.0004488778054862843,0.00039156415980633966,
0.0004987531172069825,-0.002129156821024272,
0.0005486284289276808,0.006835657842324313,
0.000598503740648379,0.020676296843335436,
0.0006483790523690773,-0.005183799328975777,
0.0006982543640897755,-0.026729748018033846,
0.0007481296758104738,-0.00901841644909,
0.0007980049875311721,0.013856098356323458,
0.0008478802992518703,-0.016905332404894013,
0.0008977556109725686,-0.012294060879037026,
0.0009476309226932668,-1.2179202025209244e-05,
0.000997506234413965,-0.024838485647859163,
0.0010473815461346633,0.013005647061747085,
0.0010972568578553616,0.006546426310242634,
0.00114713216957606,-0.0014759260887525997,
0.001197007481296758,0.008326642199760138,
0.0012468827930174563,-0.015286361187219513,
0.0012967581047381546,0.006380472338665198,
0.001346633416458853,1.6024204372577788e-05,
0.001396508728179551,-0.004979066416929512,
0.0014463840399002493,-0.04353662673752646,
0.0014962593516209476,0.002904441689735327,
0.001546134663341646,0.009812509387531611,
0.0015960099750623442,0.008571360218391178,
0.0016458852867830423,0.013835628365289355,
0.0016957605985037406,-0.007938187147707885,
0.001745635910224439,0.018992573701558026,
0.0017955112219451373,-0.022331023799762508,
0.0018453865336658353,-0.047514120945069356,
0.0018952618453865336,-0.010840073995797384,
0.001945137157107232,0.014116293975898761,
0.00199501246882793,-0.015433080142033718,
0.0020448877805486283,-0.038318074867363515,
0.0020947630922693266,0.00034942510955099024,
0.002144638403990025,-0.026817257899579783,
0.0021945137157107233,0.004991344065415312,
0.0022443890274314216,-0.044573827466182624,
0.00229426433915212,-0.004077393235645712,
0.0023441396508728177,-0.024241829261442527,
0.002394014962593516,-0.0015964079196283,
0.0024438902743142144,0.003442717211764543,
0.0024937655860349127,-0.05093489017632343,
0.002543640897755611,-0.0016451371683019606,
0.0025935162094763093,-0.03407139519215881,
0.0026433915211970076,-0.025388463106073546,
0.002693266832917706,-0.0027115876793118252,
0.002743142144638404,-0.010658000797373925,
0.002793017456359102,-0.026371277929021726,
0.0028428927680798004,0.0017725426755333343,
0.0028927680798004987,-0.025902805712270372,
0.002942643391521197,-0.012179305308554869,
0.0029925187032418953,-0.022293480842323816,
0.0030423940149625936,-0.007657432719105137,
0.003092269326683292,-0.036493423860182624,
0.00314214463840399,-0.03239592773860406,
0.0031920199501246885,-0.017164550966499055,
0.0032418952618453864,-0.01068155467086245,
0.0032917705735660847,-0.011195833587502167,
0.003341645885286783,-0.0181440045154791,
0.0033915211970074813,-0.030272200197221568,
0.0034413965087281796,-0.03244351727822277,
0.003491271820448878,-0.014759967580245708,
0.003541147132169576,-0.01469062052521436,
0.0035910224438902745,0.03445222658950368,
0.0036408977556109724,-0.005329638745197594,
0.0036907730673316707,-0.02318965261919001,
0.003740648379052369,0.00723052735197301,
0.0037905236907730673,-0.027980857069626795,
0.0038403990024937656,-0.030115906835604132,
0.003890274314214464,-0.030638666466873174,
0.003940149625935162,-0.0011286889219072858,
0.00399002493765586,-0.027878618005357618,
0.004039900249376558,-0.022442716584342336,
0.004089775561097257,-0.02650768738969299,
0.004139650872817955,-0.028518572802157256,
0.004189526184538653,-0.04764962649817932,
0.004239401496259352,-0.06970068998295974,
0.00428927680798005,-0.012315232680907388,
0.004339152119700748,-0.026887302395716874,
0.0043890274314214465,0.011323569986925353,
0.004438902743142145,-0.025157957632873852,
0.004488778054862843,-0.039393251046857425,
0.004538653366583541,-0.01322805013533941,
0.00458852867830424,0.002396621560142396,
0.004638403990024938,-0.022476012305048202,
0.0046882793017456355,-0.03788300679892737,
0.004738154613466334,-0.007046138464852936,
0.004788029925187032,-0.010755296269956749,
0.00483790523690773,-0.03036966796193387,
0.004887780548628429,-0.029065861951733732,
0.004937655860349127,0.00799420369754935,
0.004987531172069825,-0.01635528337432927,
0.005037406483790524,-0.028056378990267597,
0.005087281795511222,-0.032080309885237315,
0.00513715710723192,-0.006960402347959164,
0.0051870324189526185,-0.0234563284791994,
0.005236907730673317,-0.02922315308642884,
0.005286783042394015,-0.017521978261957824,
0.0053366583541147134,0.0010218593923466551,
0.005386533665835412,-0.024771777084744154,
0.00543640897755611,-0.033895066941265845,
0.005486284289276808,-0.009289353504597178,
0.005536159600997507,0.0018552361215812309,
0.005586034912718204,-0.022065945306385677,
0.005635910224438902,-0.027787737537909887,
0.005685785536159601,-0.003221983726387382,
0.005735660847880299,-0.03114356670513243,
0.005785536159600997,-0.03166091521336988,
0.005835411471321696,-0.015242018596720596,
0.005885286783042394,-0.017454720905549625,
0.005935162094763092,-0.022849634465355352,
0.0059850374064837905,0.006606281767923203,
0.006034912718204489,-0.02793258432407702,
0.006084788029925187,-0.018688843748635355,
0.0061346633416458855,-0.014168125590536118,
0.006184538653366584,-0.016313514059303855,
0.006234413965087282,-0.009658044727458176,
0.00628428927680798,-0.028996248302224522,
0.006334164588528679,-0.021332291807341145,
0.006384039900249377,-0.03795305258384174,
0.006433915211970074,-0.0030394815811570046,
0.006483790523690773,-0.030987294953109076,
0.006533665835411471,-0.023277180676389134,
0.006583541147132169,-0.02196508561377348,
0.006633416458852868,-0.0014360795343022204,
0.006683291770573566,-0.0010747011067419286,
0.006733167082294264,-0.007165304217549941,
0.0067830423940149626,-0.012130539689388795,
0.006832917705735661,-0.04201201792287483,
0.006882793017456359,-0.03187259696381136,
0.0069326683291770575,-0.011469955523180482,
0.006982543640897756,-0.02946592242461215,
0.007032418952618454,-0.024619902552918092,
0.007082294264339152,-0.017966997241624018,
0.007132169576059851,-0.00565886662380562,
0.007182044887780549,-0.04775897049479839,
0.007231920199501247,-0.0367412993518134,
0.007281795511221945,-0.026872667950970874,
0.007331670822942643,-0.006183707601312247,
0.007381546134663341,0.01772534454283266,
0.00743142144638404,-0.019455482150645548,
0.007481296758104738,-0.01071150722701592,
0.007531172069825436,-0.043907225729935884,
0.007581047381546135,-0.010704616327097259,
0.007630922693266833,0.0005399202898129785,
0.007680798004987531,-0.009730011121480385,
0.0077306733167082295,-0.03591359021796225,
0.007780548628428928,-0.020050280695776083,
0.007830423940149626,-0.004477999560283212,
0.007880299251870324,-0.012534676453416008,
0.007930174563591023,-0.012475632552290537,
0.00798004987531172,-0.034787767879459044,
0.00802992518703242,0.011497486644013767,
0.008079800498753117,0.003001228705022412,
0.008129675810473816,-0.007505481582832808,
0.008179551122194513,-0.011546479961969983,
0.008229426433915213,-0.005910682857558854,
0.00827930174563591,-0.015173788388481615,
0.00832917705735661,-0.007076706037498666,
0.008379052369077307,-0.012133858301433688,
0.008428927680798006,-0.045599900650601835,
0.008478802992518703,-0.03687843920995454,
0.0085286783042394,-0.02203892157825261,
0.0085785536159601,-0.03403995914222028,
0.008628428927680797,-0.010981845753683866,
0.008678304239401496,-0.025352658751505594,
0.008728179551122194,0.005842990679261795,
0.008778054862842893,-0.020934849371158602,
0.00882793017456359,-0.026077778504712774,
0.00887780548628429,-0.018927457348748143,
0.008927680798004987,-0.011044614369185562,
0.008977556109725686,0.000976524747572833,
0.009027431421446384,-0.01271325742032282,
0.009077306733167083,-0.01655167155901748,
0.00912718204488778,0.013411675958605786,
0.00917705735660848,-0.0034204073895740647,
0.009226932668329177,-0.001125502305520794,
0.009276807980049876,-0.006251065244990308,
0.009326683291770574,-0.014407554378287332,
0.009376558603491271,-0.014855221599311132,
0.00942643391521197,-0.008479003063189768,
0.009476309226932668,0.004778360354850315,
0.009526184538653367,-0.029879085547116307,
0.009576059850374064,-0.007797565789818293,
0.009625935162094763,-0.01992535891133642,
0.00967581047381546,-0.018679219205693747,
0.00972568578553616,0.016910848559658624,
0.009775561097256857,-0.00017617502598777748,
0.009825436408977557,0.009915192344583296,
0.009875311720698254,-0.011194978292101277,
0.009925187032418953,0.007095946815787904,
0.00997506234413965,-0.002927436860100742,
0.01002493765586035,-0.0003874229133961607,
0.010074812967581047,-0.01260781586904374,
0.010124688279301746,0.035925156728178795,
0.010174563591022444,-0.011674108792176747,
0.010224438902743141,-0.0043403147412882336,
0.01027431421446384,0.03131242486189209,
0.010324189526184538,-0.00016747631242325107,
0.010374064837905237,-0.006202052317109375,
0.010423940149625935,0.006877287480557334,
0.010473815461346634,-0.002707701233689612,
0.010523690773067331,-0.04046402273544842,
0.01057356608478803,-0.007200831958269738,
0.010623441396508728,0.015017270019853864,
0.010673316708229427,0.006027762427248765,
0.010723192019950124,0.006407962475417218,
0.010773067331670824,0.0039151919000221524,
0.010822942643391521,0.01679884164150508,
0.01087281795511222,-0.0016966119772266796,
0.010922693266832918,0.05008035819987529,
0.010972568578553617,0.006017853828561627,
0.011022443890274314,-0.015389761397165014,
0.011072319201995013,-0.002194040328433235,
0.01112219451371571,0.0029849411663124877,
0.011172069825436408,-0.0022941393065607895,
0.011221945137157107,0.027471390687253048,
0.011271820448877805,0.010717391021198919,
0.011321695760598504,-0.013838972633989362,
0.011371571072319201,0.023708806034399756,
0.0114214463840399,-0.007231603831786839,
0.011471321695760598,0.017691976107499167,
0.011521197007481297,0.012098530631543244,
0.011571072319201995,-0.010355555201520069,
0.011620947630922694,0.010129284275370255,
0.011670822942643391,-0.00026948551858974913,
0.01172069825436409,0.0294244625186437,
0.011770573566084788,0.008657142027568952,
0.011820448877805487,0.007479469310560389,
0.011870324189526184,0.018968758221268006,
0.011920199501246884,-0.006743216439565561,
0.011970074812967581,-0.0006412971748195814,
0.012019950124688279,-0.010630897907252584,
0.012069825436408978,0.025448974857654738,
0.012119700748129675,-0.002525975948993224,
0.012169576059850374,0.006003313789251773,
0.012219451371571072,0.01891622896874619,
0.012269326683291771,0.012406263368945446,
0.012319201995012468,0.04198000618944301,
0.012369077306733168,-0.017562278247577633,
0.012418952618453865,0.017382379996992107,
0.012468827930174564,0.021696790651531146,
0.012518703241895262,0.037356770160074174,
0.01256857855361596,-0.006610029806822251,
0.012618453865336658,0.007546418821849889,
0.012668329177057357,0.004263102798987025,
0.012718204488778055,0.03368338381868656,
0.012768079800498754,0.014502732326737156,
0.012817955112219451,0.024869981004731048,
0.012867830423940149,0.03245181116599746,
0.012917705735660848,0.005334182416353639,
0.012967581047381545,0.02346600270910223,
0.013017456359102245,0.0021608189348524733,
0.013067331670822942,0.01561956974058787,
0.013117206982543641,0.03807841534231851,
0.013167082294264339,0.03960303420576319,
0.013216957605985038,0.0033382945512147946,
0.013266832917705735,0.021135493223568995,
0.013316708229426434,0.023103274567457702,
0.013366583541147132,0.041005238008359174,
0.013416458852867831,0.023009541086388877,
0.013466334164588529,0.014505653444581728,
0.013516209476309228,0.025292497785697227,
0.013566084788029925,0.014258880813560318,
0.013615960099750624,0.01068121357080093,
0.013665835411471322,0.01993637454173249,
0.01371571072319202,0.028040463392262446,
0.013765586034912718,0.027687362461538745,
0.013815461346633416,0.0163228214511284,
0.013865336658354115,0.028626731093623015,
0.013915211970074812,0.010319096143482075,
0.013965087281795512,0.0405540673397137,
0.014014962593516209,0.028516940836063157,
0.014064837905236908,0.017958348876785598,
0.014114713216957606,0.00409521218695981,
0.014164588528678305,0.042539011287470375,
0.014214463840399002,0.018636739488063638,
0.014264339152119701,0.04099828427184214,
0.014314214463840399,0.02988303161223561,
0.014364089775561098,0.04243393124466138,
0.014413965087281795,0.01636290170952902,
0.014463840399002495,0.008231800181451282,
0.014513715710723192,0.030893984160428052,
0.01456359102244389,0.03436376964966431,
0.014613466334164589,0.01820238317353269,
0.014663341645885286,-0.0006335508844282703,
0.014713216957605985,0.028445702456363454,
0.014763092269326683,0.03807276263870697,
0.014812967581047382,0.0248526776608577,
0.01486284289276808,0.02926997799340725,
0.014912718204488778,0.03453361854896145,
0.014962593516209476,0.02846183862678334,
0.015012468827930175,0.014011317174830878,
0.015062344139650873,0.008794327342058657,
0.015112219451371572,0.05296581537576413,
0.01516209476309227,0.010131912297623877,
0.015211970074812968,0.03734161461514976,
0.015261845386533666,0.03498445360228023,
0.015311720698254365,0.020839834368877007,
0.015361596009975062,0.023527695528678658,
0.01541147132169576,0.025641097492266264,
0.015461346633416459,0.017400369999938138,
0.015511221945137156,0.016983982042481943,
0.015561097256857856,0.009185261103312987,
0.015610972568578553,0.0040320296839071595,
0.015660847880299252,0.016853497284459902,
0.01571072319201995,0.03235534657699281,
0.015760598503740647,0.04418560360496132,
0.015810473815461346,0.01025053849454453,
0.015860349127182045,0.04106467269960733,
0.015910224438902745,0.030532824300344485,
0.01596009975062344,-0.00424425629237539,
0.01600997506234414,0.03084771035048498,
0.01605985037406484,0.013535840900346471,
0.016109725685785538,0.02654555585000037,
0.016159600997506234,0.030751938476162578,
0.016209476309226933,0.016047303585497517,
0.016259351620947632,0.04077730932773284,
0.016309226932668328,0.006323892133580171,
0.016359102244389027,0.015969547063002285,
0.016408977556109726,0.024615814022267354,
0.016458852867830425,0.02015125934089317,
0.01650872817955112,0.0005406848286203976,
0.01655860349127182,0.012812163479758013,
0.01660847880299252,0.025330793609361957,
0.01665835411471322,0.020379503625541435,
0.016708229426433914,0.004030599476302004,
0.016758104738154613,0.013541329164967607,
0.016807980049875312,-0.007128209236652652,
0.01685785536159601,0.012067380789639546,
0.016907730673316707,0.031050059250945547,
0.016957605985037406,-0.0073305278975395564,
0.017007481296758106,0.011406006832340873,
0.0170573566084788,0.009110228714660665,
0.0171072319201995,0.013262569773942965,
0.0171571072319202,0.006005767517049768,
0.0172069825436409,0.011556091902973818,
0.017256857855361595,0.0038841551981666535,
0.017306733167082294,0.00449841265344663,
0.017356608478802993,0.012778958576018537,
0.017406483790523692,0.016924315978260912,
0.017456359102244388,0.021105311408909623,
0.017506234413965087,0.03497227485252379,
0.017556109725685786,-0.002317448110276994,
0.017605985037406485,0.0019479571801047577,
0.01765586034912718,0.008988187596568501,
0.01770573566084788,0.027218391425420298,
0.01775561097256858,0.034531968668065495,
0.01780548628428928,0.03489760037568301,
0.017855361596009974,0.0485256503308642,
0.017905236907730673,-0.014445794138871693,
0.017955112219451373,-0.0034198329566294556,
0.018004987531172068,0.022544502211165048,
0.018054862842892767,0.016010915329099446,
0.018104738154613467,-0.013610516514460517,
0.018154613466334166,-0.0041467553696764095,
0.01820448877805486,-0.00013203719648463737,
0.01825436408977556,0.04283052128539326,
0.01830423940149626,0.02826884200714769,
0.01835411471321696,0.01849135081818985,
0.018403990024937655,0.01568882168312094,
0.018453865336658354,0.011207990537274363,
0.018503740648379053,0.022942939292915087,
0.018553615960099752,0.016478453669720696,
0.018603491271820448,0.012066019324849414,
0.018653366583541147,0.016074643810759112,
0.018703241895261846,0.01736097231052304,
0.018753117206982542,0.01299068343039535,
0.01880299251870324,0.01874185893555286,
0.01885286783042394,0.009161209354572836,
0.01890274314214464,0.023060058251015952,
0.018952618453865335,-0.0025426921766691975,
0.019002493765586034,0.0027969072325829507,
0.019052369077306733,0.022112939007887654,
0.019102244389027433,0.02718523680477785,
0.01915211970074813,-0.0034719239797049214,
0.019201995012468828,0.030769184025011335,
0.019251870324189527,0.03102976451220657,
0.019301745635910226,-0.01615520255390761,
0.01935162094763092,0.014858509112596695,
0.01940149625935162,0.030785295502639237,
0.01945137157107232,0.006583006984423956,
0.01950124688279302,-0.0007754732021914802,
0.019551122194513715,0.003459734336012872,
0.019600997506234414,0.02047131324074292,
0.019650872817955113,0.019259030962896717,
0.01970074812967581,0.0013519503030067854,
0.019750623441396508,0.010633414030110522,
0.019800498753117207,-0.01923633047820241,
0.019850374064837906,0.009146197592172048,
0.019900249376558602,0.024451996111583264,
0.0199501246882793,0.006196043808765626,
0.02,0.008716516333943276,
0.0200498753117207,-0.027453282561559662,
0.020099750623441395,0.007127885538432513,
0.020149625935162094,0.01101582176241106,
0.020199501246882794,-0.016723814601573034,
0.020249376558603493,-0.004176172797997856,
0.02029925187032419,-0.0009610669947978697,
0.020349127182044888,0.009307973499897563,
0.020399002493765587,-0.032877521281132846,
0.020448877805486283,-0.03733588222811091,
0.02049875311720698,-0.02565463527397873,
0.02054862842892768,-0.0052222694998449205,
0.02059850374064838,0.015263277797493167,
0.020648379052369076,0.014894253679435771,
0.020698254364089775,0.02929337638400431,
0.020748129675810474,-0.0026121548620506303,
0.020798004987531173,0.01715289338085319,
0.02084788029925187,-0.005313989392536437,
0.020897755610972568,-0.0018393657741484267,
0.020947630922693267,-0.0022583079614596725,
0.020997506234413967,-0.007796960883226461,
0.021047381546134662,-0.026550334935648137,
0.02109725685785536,-0.010770074405860964,
0.02114713216957606,-0.0031402839117864127,
0.02119700748129676,-0.03274514098890788,
0.021246882793017455,-0.01189265562652523,
0.021296758104738155,-0.008674440525677526,
0.021346633416458854,-0.01459359168998705,
0.02139650872817955,0.0009768813781482512,
0.02144638403990025,-0.01127838779193174,
0.021496259351620948,-0.013264211368202976,
0.021546134663341647,0.001412296949795614,
0.021596009975062343,0.024577664339624515,
0.021645885286783042,-0.025737788406822247,
0.02169576059850374,0.0035600944036424265,
0.02174563591022444,-0.045590713527252226,
0.021795511221945136,-0.020589112864992324,
0.021845386533665835,-0.022988105826175463,
0.021895261845386534,-0.010049477948024113,
0.021945137157107233,-0.03625970298596155,
0.02199501246882793,-0.014894643724259844,
0.02204488778054863,-0.01809112828848858,
0.022094763092269327,0.017846214846123986,
0.022144638403990027,0.004378062234028413,
0.022194513715710722,0.003788481799897917,
0.02224438902743142,-0.02351081165825683,
0.02229426433915212,-0.017670990946046326,
0.022344139650872816,-0.007752093648793256,
0.022394014962593516,-0.013122819423286585,
0.022443890274314215,-0.004884532656681068,
0.022493765586034914,-0.022314990700877026,
0.02254364089775561,-0.03959260284286283,
0.02259351620947631,0.003599725590164778,
0.022643391521197008,-0.003492662594927559,
0.022693266832917707,-0.03777780889355626,
0.022743142144638403,-0.000967165255459132,
0.022793017456359102,-0.03372607268618569,
0.0228428927680798,0.0027902685849634026,
0.0228927680798005,-0.013283156404771988,
0.022942643391521196,-0.015390648182031978,
0.022992518703241895,-0.02590077140010965,
0.023042394014962594,-0.046691319450283625,
0.02309226932668329,0.0014287593429354196,
0.02314214463840399,-0.004976923894072307,
0.02319201995012469,-0.010966793830457365,
0.023241895261845388,-0.040600068086026085,
0.023291770573566083,-0.010265970565822742,
0.023341645885286783,-0.033748699242120206,
0.02339152119700748,-0.018763786951400196,
0.02344139650872818,-0.02962220784770033,
0.023491271820448877,-0.014033002591897908,
0.023541147132169576,-0.00017448596230347155,
0.023591022443890275,-0.028055933974950206,
0.023640897755610974,-0.03767050095230106,
0.02369077306733167,0.001467066530730931,
0.02374064837905237,-0.013487112182850662,
0.023790523690773068,-0.030132017080607084,
0.023840399002493767,-0.031227663661486355,
0.023890274314214463,-0.054192702019204536,
0.023940149625935162,-0.026052599208002472,
0.02399002493765586,-0.009134230790182322,
0.024039900249376557,0.0004272869120006788,
0.024089775561097256,-0.028333121451188423,
0.024139650872817955,-0.006876314761617685,
0.024189526184538655,-0.004088455912183488,
0.02423940149625935,-0.039394580968081454,
0.02428927680798005,-0.03440814416137496,
0.02433915211970075,-0.00432091132875354,
0.024389027431421448,-0.040285501679000565,
0.024438902743142144,-0.0006938885732221296,
0.024488778054862843,-0.048357161671738966,
0.024538653366583542,0.010730287799108774,
0.02458852867830424,0.0011336031956476998,
0.024638403990024937,-0.03444920318406665,
0.024688279301745636,-0.009269507985026666,
0.024738154613466335,-0.010469324199823521,
0.02478802992518703,-0.016802139448001213,
0.02483790523690773,-0.008915378032933208,
0.02488778054862843,0.012169064781345263,
0.02493765586034913,-0.005544509412795913,
0.024987531172069824,0.0010080892028049085,
0.025037406483790523,-0.014753667829814842,
0.025087281795511222,-0.016941746816409302,
0.02513715710723192,0.0026551592961198515,
0.025187032418952617,-0.02131703125580211,
0.025236907730673316,-0.018151170558306347,
0.025286783042394016,-0.04074885492588173,
0.025336658354114715,-0.028979827683773978,
0.02538653366583541,-0.03890181269006822,
0.02543640897755611,-0.003853145331506092,
0.02548628428927681,0.016265092922432875,
0.025536159600997508,0.003381089515468838,
0.025586034912718204,-0.020751333800213215,
0.025635910224438903,-0.014258251329822808,
0.025685785536159602,-0.04986815794059493,
0.025735660847880298,-0.02453248540305594,
0.025785536159600997,-0.039316479595597864,
0.025835411471321696,-0.028217649433201573,
0.025885286783042395,-0.009787994748988952,
0.02593516209476309,-0.016981175587046933,
0.02598503740648379,-0.017683662420390624,
0.02603491271820449,-0.03427792117164777,
0.02608478802992519,-0.030083046254073563,
0.026134663341645884,-0.02360786976519956,
0.026184538653366583,-0.018575892726680168,
0.026234413965087282,-0.00041570262886874224,
0.02628428927680798,-0.023383881458827985,
0.026334164588528677,-0.008597560477668267,
0.026384039900249377,-0.027614328139915545,
0.026433915211970076,-0.021164554623725393,
0.02648379052369077,-0.019660387822736675,
0.02653366583541147,0.004142337350833839,
0.02658354114713217,-0.006364091219103956,
0.02663341645885287,-0.02508442824995223,
0.026683291770573565,-0.029284253275206156,
0.026733167082294264,-0.0015043955745372758,
0.026783042394014963,-0.010874309718344313,
0.026832917705735662,0.005260307192697881,
0.026882793017456358,-0.017056624942863502,
0.026932668329177057,-0.009753845303228505,
0.026982543640897756,-0.022389538809324087,
0.027032418952618455,-0.0031652987376009894,
0.02708229426433915,-0.007804224030019959,
0.02713216957605985,-0.005981474191646472,
0.02718204488778055,-0.0177518483307189,
0.02723192019950125,-0.03512449170829966,
0.027281795511221944,-0.020019903281175592,
0.027331670822942643,-0.00020382787080995383,
0.027381546134663343,-0.004016694520531747,
0.02743142144638404,-0.019448311674382296,
0.027481296758104738,-0.007841158845215773,
0.027531172069825437,-0.00751957327712548,
0.027581047381546136,0.022037977574392437,
0.02763092269326683,-0.03303400666779874,
0.02768079800498753,0.0119162842157149,
0.02773067331670823,-0.02660875589698297,
0.02778054862842893,-0.004720862445588395,
0.027830423940149625,-0.012275861131408106,
0.027880299251870324,-0.027665190463312832,
0.027930174563591023,-0.011748530875521137,
0.027980049875311722,-0.0051502148219778575,
0.028029925187032418,-0.01434718695124242,
0.028079800498753117,-0.03903501136724776,
0.028129675810473816,-0.017969408167185008,
0.028179551122194512,-0.0008274791256800791,
0.02822942643391521,-0.012303317358628,
0.02827930174563591,0.012616084345415102,
0.02832917705735661,0.00679749214811478,
0.028379052369077305,-0.024347625677949063,
0.028428927680798004,0.01981658232022833,
0.028478802992518704,-0.005650142961931645,
0.028528678304239403,-0.021503786470273446,
0.0285785536159601,0.01282088609617404,
0.028628428927680798,0.013394359597321546,
0.028678304239401497,0.00835442075730289,
0.028728179551122196,0.020429998966299368,
0.02877805486284289,0.005050236944124395,
0.02882793017456359,-0.025672952234278804,
0.02887780548628429,-0.018871791087174107,
0.02892768079800499,0.0076389818624336345,
0.028977556109725685,-0.0010652111919030533,
0.029027431421446384,-0.020457838068772275,
0.029077306733167083,0.010809919865917495,
0.02912718204488778,0.027786021229312244,
0.029177057356608478,-0.007109803521855369,
0.029226932668329177,0.002436077618004881,
0.029276807980049877,0.024309862650727005,
0.029326683291770572,0.0019457455848812615,
0.02937655860349127,-0.01764821825965554,
0.02942643391521197,-0.01725672582548755,
0.02947630922693267,-0.008562999011485103,
0.029526184538653365,-0.02979834943819354,
0.029576059850374065,0.011770718724501951,
0.029625935162094764,-0.03160092672936319,
0.029675810473815463,-0.021728276787680103,
0.02972568578553616,-0.018725249067692407,
0.029775561097256858,-0.012204488639392145,
0.029825436408977557,-0.01606166955877908,
0.029875311720698253,-0.021088356963540052,
0.029925187032418952,0.009034008977288911,
0.02997506234413965,0.028671002944153333,
0.03002493765586035,0.012138855981231256,
0.030074812967581046,0.012446334905780834,
0.030124688279301745,0.020229154118351352,
0.030174563591022444,0.016064847260040704,
0.030224438902743143,-0.029029424682413534,
0.03027431421446384,-0.012618559783660277,
0.03032418952618454,-0.010301762057976794,
0.030374064837905237,0.022012420749699394,
0.030423940149625937,0.0069672745852035235,
0.030473815461346632,-0.0014352081391413706,
0.03052369077306733,-0.002997286101049273,
0.03057356608478803,-0.01428726801060328,
0.03062344139650873,0.004751337276240301,
0.030673316708229426,0.027006492447826994,
0.030723192019950125,0.008821582236011724,
0.030773067331670824,-0.001594623877641337,
0.03082294264339152,0.013558141276863469,
0.03087281795511222,-0.011170923088615392,
0.030922693266832918,-0.011729337735711142,
0.030972568578553617,-0.009800543012857692,
0.031022443890274313,0.003171904989161524,
0.031072319201995012,0.02716727585703982,
0.03112219451371571,-0.005061018307996488,
0.03117206982543641,0.007925659406546867,
0.031221945137157106,0.031906008533969035,
0.03127182044887781,-0.0009230220309050085,
0.031321695760598504,-0.004703890846834136,
0.0313715710723192,0.014232673024133547,
0.0314214463840399,-0.004286443910492049,
0.0314713216957606,0.02253904320732835,
0.031521197007481294,-0.016384674782669563,
0.031571072319202,0.028512676787692585,
0.03162094763092269,-0.0005286662007514716,
0.03167082294264339,0.002761691311523474,
0.03172069825436409,-0.0018577302074736183,
0.03177057356608479,0.01610215331061745,
0.03182044887780549,0.008198957583679764,
0.031870324189526185,0.01910698418937758,
0.03192019950124688,0.011081954208979845,
0.03197007481296758,0.010841754298691856,
0.03201995012468828,0.015756176542505575,
0.032069825436408975,0.045957769314236924,
0.03211970074812968,0.019066429351137976,
0.03216957605985037,0.024123792867824404,
0.032219451371571076,0.016902332942044764,
0.03226932668329177,0.023848095518006852,
0.03231920199501247,0.012853358389662999,
0.03236907730673317,0.033969561170920454,
0.032418952618453865,0.013289971737320596,
0.03246882793017456,0.01741848872856563,
0.032518703241895264,-0.011338805545835842,
0.03256857855361596,0.02134080472146336,
0.032618453865336655,0.043973870923940936,
0.03266832917705736,0.022189622489044967,
0.032718204488778053,0.012313291325660586,
0.032768079800498756,0.006324765628506533,
0.03281795511221945,-0.012779527199539079,
0.03286783042394015,0.028976421573281178,
0.03291770573566085,0.008466949757897859,
0.032967581047381546,0.016220934956246248,
0.03301745635910224,0.061145134105540636,
0.033067331670822944,0.01204242094402068,
0.03311720698254364,0.03661527359858469,
0.03316708229426434,0.010489204091954776,
0.03321695760598504,0.011843358625268264,
0.033266832917705734,0.029951738995977903,
0.03331670822942644,0.029970705888516528,
0.03336658354114713,0.04159826759366452,
0.03341645885286783,0.019108059882735364,
0.03346633416458853,0.018331321978052106,
0.033516209476309226,0.024029779644722495,
0.03356608478802992,0.0181697495437899,
0.033615960099750625,0.031681161835901556,
0.03366583541147132,0.013071675978097427,
0.03371571072319202,0.049895626271045324,
0.03376558603491272,0.025272958069292972,
0.033815461346633414,-0.007623660858649319,
0.03386533665835412,0.007566346951428117,
0.03391521197007481,0.024141800546653006,
0.03396508728179551,0.02338287998505216,
0.03401496259351621,0.057249122755586426,
0.03406483790523691,0.01948111673874242,
0.0341147132169576,0.027245698024750797,
0.034164588528678305,0.02101053381300876,
0.034214463840399,0.015394630371714646,
0.034264339152119704,0.04722161446746791,
0.0343142144638404,0.001776662012927508,
0.034364089775561095,0.020370649088666936,
0.0344139650872818,-0.0037261621511904125,
0.03446384039900249,0.016252923315124648,
0.03451371571072319,0.029507844068599767,
0.03456359102244389,0.044029164566659375,
0.03461346633416459,0.028098446978674897,
0.03466334164588529,0.015475783523310511,
0.034713216957605986,0.0006820018709247297,
0.03476309226932668,0.029913604538750187,
0.034812967581047384,0.027112052185949025,
0.03486284289276808,0.020721538432359195,
0.034912718204488775,0.011577322453905919,
0.03496259351620948,0.01904978735624086,
0.035012468827930174,0.02106893881234389,
0.03506234413965087,0.03191155488522951,
0.03511221945137157,0.04895599863171437,
0.03516209476309227,-0.006173927901682894,
0.03521197007481297,0.003393098767777873,
0.035261845386533666,0.03649233900625557,
0.03531172069825436,0.037723329370490395,
0.035361596009975065,0.04478085442511144,
0.03541147132169576,0.019423086071818058,
0.035461346633416456,0.03740230117582204,
0.03551122194513716,0.04228842316663091,
0.035561097256857854,0.02904313888544903,
0.03561097256857856,0.010385569168329516,
0.03566084788029925,0.02144995802986545,
0.03571072319201995,0.032636859763198106,
0.03576059850374065,0.03521998748366745,
0.03581047381546135,0.0026800976748451444,
0.03586034912718204,0.02156444145298533,
0.035910224438902745,-0.005799439824787318,
0.03596009975062344,0.045004198297145484,
0.036009975062344136,0.018682451373791042,
0.03605985037406484,0.008084602810916273,
0.036109725685785535,0.022065734899061773,
0.03615960099750624,0.006210386026079755,
0.03620947630922693,0.05203623811035678,
0.03625935162094763,0.036217324550867735,
0.03630922693266833,0.022166612352101985,
0.03635910224438903,-0.001159220486213114,
0.03640897755610972,0.020321545381166126,
0.036458852867830426,-0.003336522799781881,
0.03650872817955112,0.018435471068494073,
0.036558603491271824,0.01596900464968197,
0.03660847880299252,0.0203212790959155,
0.036658354114713215,0.005569924902105668,
0.03670822942643392,-0.008919353521833009,
0.036758104738154614,0.012365305614575293,
0.03680798004987531,-0.0036585933692003143,
0.03685785536159601,0.016245296363565524,
0.03690773067331671,0.0019104761363923882,
0.0369576059850374,0.018781622852927303,
0.037007481296758106,-0.02913417564680411,
0.0370573566084788,0.003470444393311352,
0.037107231920199504,0.013445278892963174,
0.0371571072319202,0.010618509445203915,
0.037206982543640896,-0.0010675765496335546,
0.0372568578553616,0.008375820059499084,
0.037306733167082294,-0.003028341225944673,
0.03735660847880299,-0.003837597549670446,
0.03740648379052369,0.039461963363233446,
0.03745635910224439,0.011715857325982987,
0.037506234413965084,0.02844968054561889,
0.037556109725685786,0.015089887895423502,
0.03760598503740648,0.028174950194705714,
0.037655860349127185,0.04187367150155072,
0.03770573566084788,0.03239840934399098,
0.037755610972568576,0.027367431334745555,
0.03780548628428928,0.03633115664916206,
0.037855361596009975,-0.0008874613839269709,
0.03790523690773067,-0.017662394416161124,
0.03795511221945137,0.003320909862985222,
0.03800498753117207,0.0133799482855162,
0.03805486284289277,0.018320172241570988,
0.03810473815461347,-0.0069494566005576484,
0.03815461346633416,0.009540613280992327,
0.038204488778054865,0.007354786834982888,
0.03825436408977556,-0.009781956779805492,
0.03830423940149626,0.002407691424272865,
0.03835411471321696,0.03197478647940695,
0.038403990024937655,0.03028226800755931,
0.03845386533665835,-0.005568514643778116,
0.03850374064837905,-0.011273883893477069,
0.03855361596009975,0.024451463048820777,
0.03860349127182045,0.018374413199553193,
0.03865336658354115,0.025636194707676148,
0.03870324189526184,0.024073541193986914,
0.038753117206982546,0.031732504837734016,
0.03880299251870324,-0.014618547810911927,
0.03885286783042394,0.013652278518126585,
0.03890274314214464,0.014258106924156673,
0.038952618453865336,0.011950407018037184,
0.03900249376558604,0.007812274453866322,
0.039052369077306734,0.027590159609430766,
0.03910224438902743,0.023905331234706798,
0.03915211970074813,0.013330824972161107,
0.03920199501246883,0.01689366329370339,
0.039251870324189524,0.016453331372013144,
0.039301745635910226,-0.013653375691772796,
0.03935162094763092,0.0050157209941244195,
0.03940149625935162,0.010290581901326389,
0.03945137157107232,-0.023410864740445434,
0.039501246882793016,0.04482020488239051,
0.03955112219451372,0.0035583345169191097,
0.039600997506234414,-0.0011038334345146962,
0.03965087281795511,0.015966839070356516,
0.03970074812967581,-0.0068112808938617046,
0.03975062344139651,0.007969310416729738,
0.039800498753117204,-0.002627522822830676,
0.03985037406483791,0.0013330400877975945,
0.0399002493765586,0.04242757564590117,
0.039950124688279305,0.024868712234451557,
0.04,0.0019422994106647114,
0.0400498753117207,0.007337152467956804,
0.0400997506234414,-0.007374757611056594,
0.040149625935162095,0.02398384837285072,
0.04019950124688279,0.021030968333685552,
0.04024937655860349,0.014719865495203713,
0.04029925187032419,0.014472530780125479,
0.040349127182044885,0.026038285262409148,
0.04039900249376559,0.0003337033825022655,
0.04044887780548628,-0.006836529477150969,
0.040498753117206986,-0.005765175106486568,
0.04054862842892768,-0.011951990926784742,
0.04059850374064838,-0.0091939023339575,
0.04064837905236908,0.0009096889126992036,
0.040698254364089775,-0.012472474255762346,
0.04074812967581047,0.005081985508176788,
0.040798004987531174,-0.006777533556512665,
0.04084788029925187,-0.003344952786561132,
0.040897755610972565,0.01256183628669423,
0.04094763092269327,0.005937637891918351,
0.04099750623441396,-0.022965625957144437,
0.041047381546134666,-0.018028914009914437,
0.04109725685785536,-0.02135777203903621,
0.04114713216957606,-0.03225070783342488,
0.04119700748129676,-0.017496460513960095,
0.041246882793017456,-0.01679743775342237,
0.04129675810473815,-0.016470996654062566,
0.041346633416458854,0.00851172444725868,
0.04139650872817955,0.02170857494952977,
0.04144638403990025,-0.022829419465110166,
0.04149625935162095,-0.0007441560042393868,
0.041546134663341644,-0.0072397308280094785,
0.04159600997506235,-0.018164034541090703,
0.04164588528678304,0.016924892394286038,
0.04169576059850374,-0.0022770093802585685,
0.04174563591022444,0.005052468700002036,
0.041795511221945136,-0.02953923988980904,
0.04184538653366583,-0.006452745063721404,
0.041895261845386535,-0.015534691672425084,
0.04194513715710723,0.005774299914938816,
0.04199501246882793,0.0011105864269895741,
0.04204488778054863,-0.03089308886097524,
0.042094763092269324,0.01464191136668685,
0.04214463840399003,-0.01621200891397797,
0.04219451371571072,-0.008020830835949493,
0.04224438902743142,0.020506415426078936,
0.04229426433915212,-0.0056913664307654275,
0.04234413965087282,0.012557530601061736,
0.04239401496259352,-0.03203204187520076,
0.042443890274314215,-0.011275095006432588,
0.04249376558603491,-0.00628591266879386,
0.042543640897755614,-0.05011855460502201,
0.04259351620947631,-0.04064374677721844,
0.042643391521197005,-0.009642505787221272,
0.04269326683291771,-0.010530691958799888,
0.0427431421446384,-0.0052269127219225185,
0.0427930174563591,-0.011705712697235584,
0.0428428927680798,0.0001873388047898012,
0.0428927680798005,-0.03226716035329715,
0.0429426433915212,-0.034218435082105245,
0.042992518703241896,-0.02814955162179974,
0.04304239401496259,-0.016081218904948208,
0.043092269326683294,0.0010868555934144212,
0.04314214463840399,-0.025949424226191245,
0.043192019950124685,-0.0016864301124098566,
0.04324189526184539,-0.019272061899658008,
0.043291770573566084,-0.03218716850121213,
0.043341645885286786,-0.03025896404993886,
0.04339152119700748,0.006675729904308885,
0.04344139650872818,-0.018127047634922618,
0.04349127182044888,-0.008651571545107989,
0.043541147132169576,0.0075241991507598235,
0.04359102244389027,-0.02405250887850452,
0.043640897755610975,0.002180603375457342,
0.04369077306733167,-0.02657052502334728,
0.043740648379052366,-0.029768918813437233,
0.04379052369077307,-0.008532524992495539,
0.043840399002493764,-0.009526940169872874,
0.04389027431421447,-0.014983199151182106,
0.04394014962593516,-0.021001377347040433,
0.04399002493765586,-0.01325305713582922,
0.04403990024937656,-0.017869800259300978,
0.04408977556109726,-0.0007575055173285796,
0.04413965087281795,-0.0010850788387420356,
0.044189526184538655,-0.02893134959246011,
0.04423940149625935,0.0043967056894884705,
0.04428927680798005,-0.006670461187051977,
0.04433915211970075,-0.028692986131379144,
0.044389027431421445,-0.015465304904119426,
0.04443890274314215,-0.043855776543387175,
0.04448877805486284,0.013735621581134748,
0.04453865336658354,-0.01318501080175827,
0.04458852867830424,0.00953994054521319,
0.04463840399002494,-0.0399293333365255,
0.04468827930174563,0.010714588214324961,
0.044738154613466335,-0.026154839930552686,
0.04478802992518703,-0.016010301393695883,
0.044837905236907734,-0.025230677983267336,
0.04488778054862843,-0.03889161332319259,
0.044937655860349125,-0.01457574675897838,
0.04498753117206983,-0.01302912357697484,
0.045037406483790524,0.0031394356211688554,
0.04508728179551122,-0.028025153377424707,
0.04513715710723192,0.014468648807663475,
0.04518703241895262,-0.001315197567026612,
0.04523690773067331,-0.009527524947682173,
0.045286783042394016,-0.02837156914920542,
0.04533665835411471,-0.00521467584694405,
0.045386533665835414,-0.001003325887681393,
0.04543640897755611,-0.024762275340076023,
0.045486284289276806,-0.03165357169434076,
0.04553615960099751,-0.0321845148455812,
0.045586034912718204,-0.01269084336835955,
0.0456359102244389,-0.0158107979043588,
0.0456857855361596,-0.05605584167659132,
0.0457356608478803,-0.025234683671971986,
0.045785536159601,-0.033097819583518026,
0.045835411471321696,-0.022477167622720902,
0.04588528678304239,-0.01195071744217905,
0.045935162094763095,-0.04235115371358929,
0.04598503740648379,-0.006689535005605639,
0.046034912718204486,-0.03211344890017577,
0.04608478802992519,-0.024738144465493685,
0.046134663341645885,-0.007043294626531622,
0.04618453865336658,-0.005311750034398708,
0.04623441396508728,-0.03023110392263536,
0.04628428927680798,-0.015782386318111564,
0.04633416458852868,-0.019311086627073957,
0.04638403990024938,-0.011020548057184403,
0.04643391521197007,0.013555904794165179,
0.046483790523690775,-0.0008551396299453264,
0.04653366583541147,0.0011661645779385485,
0.04658354114713217,-0.024463629197737632,
0.04663341645885287,-0.036044618923141765,
0.046683291770573565,-0.013321162777288714,
0.04673316708229427,-0.015845672070877663,
0.04678304239401496,-0.0317350646559373,
0.04683291770573566,-0.009050573849497087,
0.04688279301745636,-0.005263008141801606,
0.04693266832917706,-0.002184861339287407,
0.04698254364089775,0.011802402465794181,
0.047032418952618456,-0.009451739963371023,
0.04708229426433915,-0.018685473886668573,
0.04713216957605985,-0.0004331925418820694,
0.04718204488778055,-0.013929606844548954,
0.047231920199501246,0.010287961481585145,
0.04728179551122195,0.0023190765555252367,
0.047331670822942644,-0.03660572634229596,
0.04738154613466334,0.007608265303088004,
0.04743142144638404,-0.013631569081454813,
0.04748129675810474,0.0034128131861335485,
0.047531172069825434,-0.022655869620547928,
0.047581047381546136,-0.017581602147667453,
0.04763092269326683,-0.02860130055378815,
0.047680798004987535,-0.0036751058740132868,
0.04773067331670823,-0.02562288614511738,
0.047780548628428926,-0.02373237702355748,
0.04783042394014963,-0.00159374294200881,
0.047880299251870324,-0.01215576333711008,
0.04793017456359102,-0.011987237077012533,
0.04798004987531172,-0.009025085555202041,
0.04802992518703242,-0.013270340036895232,
0.048079800498753114,-0.0029469981850080897,
0.04812967581047382,-0.01902162302116811,
0.04817955112219451,6.797668576141464e-05,
0.048229426433915215,-0.005502212257200856,
0.04827930174563591,-0.01266431428025021,
0.048329177057356607,-0.006333284374197494,
0.04837905236907731,0.018005680786575752,
0.048428927680798005,0.009448302593731209,
0.0484788029925187,0.00675305570243042,
0.0485286783042394,-0.0041030086959325,
0.0485785536159601,0.008257329010165994,
0.048628428927680795,0.003536328734378479,
0.0486783042394015,0.0106645463475965,
0.04872817955112219,-0.013440861905682626,
0.048778054862842896,0.020585555534683286,
0.04882793017456359,-0.005136522465398322,
0.04887780548628429,-0.007317994634687092,
0.04892768079800499,0.02159077553442503,
0.048977556109725685,0.013250894777966715,
0.04902743142144638,-0.0011082095248124845,
0.049077306733167084,-0.015982963701458904,
0.04912718204488778,0.00549853066259336,
0.04917705735660848,0.0036815874775707608,
0.04922693266832918,0.006998404664527917,
0.04927680798004987,-0.022924416510344475,
0.049326683291770576,0.01594661589408641,
0.04937655860349127,-0.026793475473046384,
0.04942643391521197,-0.004097601639552051,
0.04947630922693267,0.00146267503663768,
0.049526184538653366,0.003357852874932489,
0.04957605985037406,-0.02185545813729188,
0.049625935162094764,-0.01581238465778534,
0.04967581047381546,-0.013076611060254432,
0.04972568578553616,0.008387361878719387,
0.04977556109725686,-0.015998989322215044,
0.049825436408977554,0.020789099844803857,
0.04987531172069826,-0.01078768916088583,
0.04992518703241895,0.004187616985561481,
0.04997506234413965,-0.008935053269619828,
0.05002493765586035,0.012997987462057277,
0.050074812967581046,-0.015375089889805404,
0.05012468827930175,0.034959042494046466,
0.050174563591022445,0.015591613623739498,
0.05022443890274314,0.016171987739445132,
0.05027431421446384,0.005600012719895713,
0.05032418952618454,0.006235393081066163,
0.050374064837905234,-0.01176195858162818,
0.05042394014962594,-0.012737225056840173,
0.05047381546134663,-0.011010501068462507,
0.05052369077306733,0.014259719205332394,
0.05057356608478803,0.009083213022968117,
0.05062344139650873,-0.013760920905724873,
0.05067331670822943,0.02027583140551123,
0.050723192019950125,-0.005952953231230089,
0.05077306733167082,-0.0064663274975675,
0.050822942643391524,0.007476890134187149,
0.05087281795511222,0.02019674569784788,
0.050922693266832915,0.0059772643720027475,
0.05097256857855362,-0.0019369297506215948,
0.05102244389027431,-0.023509674615583082,
0.051072319201995016,0.021132408783984123,
0.05112219451371571,0.036115026082503277,
0.05117206982543641,0.026693827174854294,
0.05122194513715711,0.020193257933731324,
0.051271820448877806,0.030070374446456476,
0.0513216957605985,0.012927654586265687,
0.051371571072319204,0.012612810545055851,
0.0514214463840399,-0.006824288236354465,
0.051471321695760595,0.02048635603286568,
0.0515211970074813,0.012906004813400318,
0.051571072319201994,0.010400369832233677,
0.051620947630922696,-0.0026262516052384718,
0.05167082294264339,0.021948177129702942,
0.05172069825436409,0.014143233548834804,
0.05177057356608479,0.01715966752283548,
0.051820448877805486,0.010742822316890367,
0.05187032418952618,0.027155001278010283,
0.051920199501246884,0.004047677972100615,
0.05197007481296758,0.025397973518898012,
0.052019950124688276,0.02029485789795516,
0.05206982543640898,0.009942512787968084,
0.052119700748129674,0.013062355739083403,
0.05216957605985038,-0.007691038323964481,
0.05221945137157107,0.04019580317168251,
0.05226932668329177,-0.0006534632199315209,
0.05231920199501247,0.01681295135079878,
0.05236907730673317,0.021896120957169495,
0.05241895261845386,0.011932835978732004,
0.052468827930174565,0.012125276267513432,
0.05251870324189526,0.02948809518854569,
0.05256857855361596,0.012074363760344913,
0.05261845386533666,0.046062595409978715,
0.052668329177057355,0.023241046492356702,
0.05271820448877806,0.02250233257404219,
0.05276807980049875,0.010619988924478215,
0.05281795511221945,0.01637068119541239,
0.05286783042394015,0.022126839448599833,
0.05291770573566085,0.033014386748388594,
0.05296758104738154,0.045293347211920576,
0.053017456359102245,0.006840747107299717,
0.05306733167082294,0.019801601474912937,
0.053117206982543644,0.017937133456230256,
0.05316708229426434,0.014295165053597573,
0.053216957605985035,0.03913165313766982,
0.05326683291770574,0.014108883593154535,
0.053316708229426434,0.02429176166760546,
0.05336658354114713,0.03965078515462296,
0.05341645885286783,0.01124007635784147,
0.05346633416458853,0.0012613562753558613,
0.05351620947630923,-0.00280284293010917,
0.053566084788029926,0.01635750435958596,
0.05361596009975062,0.04098467150460018,
0.053665835411471324,0.01842244668520754,
0.05371571072319202,0.037012084411195315,
0.053765586034912716,0.014419876174178878,
0.05381546134663342,0.03034601447965417,
0.053865336658354114,0.024799546187367204,
0.05391521197007481,0.013284491107663055,
0.05396508728179551,0.020171324629615628,
0.05401496259351621,0.027300636472283465,
0.05406483790523691,0.044032681409650096,
0.054114713216957606,0.03359653906176674,
0.0541645885286783,0.013617895457004082,
0.054214463840399005,0.008823651702271434,
0.0542643391521197,0.026119009067492656,
0.054314214463840396,0.027982774678357282,
0.0543640897755611,0.03516572722729065,
0.054413965087281795,0.02038688826775593,
0.0544638403990025,0.017879341369946115,
0.05451371571072319,0.05671325220058228,
0.05456359102244389,0.04300535735687608,
0.05461346633416459,0.031801773429589245,
0.05466334164588529,0.028025991939316177,
0.05471321695760598,0.010824558560918202,
0.054763092269326685,0.006275120460472315,
0.05481296758104738,0.017282632805854264,
0.05486284289276808,0.02485740241838823,
0.05491271820448878,0.04571462343905054,
0.054962593516209475,0.028144951158827047,
0.05501246882793018,0.019094534374601353,
0.05506234413965087,0.05232172840906335,
0.05511221945137157,0.03495949362646758,
0.05516209476309227,0.004165981626235434,
0.05521197007481297,0.0201944537495371,
0.05526184538653366,0.015564884918153754,
0.055311720698254366,0.029112188340847344,
0.05536159600997506,0.03799531093381123,
0.05541147132169576,0.03891067520752396,
0.05546134663341646,0.025416871943857774,
0.055511221945137156,0.022208335039163606,
0.05556109725685786,0.004093059688440641,
0.055610972568578554,0.024258011478659754,
0.05566084788029925,0.04483632135512153,
0.05571072319201995,0.016629665781850128,
0.05576059850374065,0.026885905946025024,
0.055810473815461344,0.029897545626651735,
0.055860349127182046,0.0045956860347800485,
0.05591022443890274,0.0601602075209729,
0.055960099750623445,0.029867125713936862,
0.05600997506234414,0.010391988693618601,
0.056059850374064836,0.02695913401947004,
0.05610972568578554,0.00976809851707079,
0.056159600997506234,0.03141398506729646,
0.05620947630922693,0.059515322128213775,
0.05625935162094763,0.020778195002729212,
0.05630922693266833,0.0051162617398378095,
0.056359102244389024,0.002447105731562725,
0.05640897755610973,0.03430019854966301,
0.05645885286783042,0.0072585835119551665,
0.056508728179551125,0.02188646403460739,
0.05655860349127182,0.017817210775082505,
0.056608478802992516,0.035712751034368745,
0.05665835411471322,0.037684709503385844,
0.056708229426433915,0.016839034034497147,
0.05675810473815461,0.007053105908641768,
0.05680798004987531,0.05693710922709674,
0.05685785536159601,0.023152215731391056,
0.05690773067331671,0.02413371331062055,
0.05695760598503741,0.019594693069495836,
0.0570074812967581,0.0219078178888191,
0.057057356608478806,0.0008153206004049077,
0.0571072319201995,0.0296913406278638,
0.0571571072319202,0.009369035785958988,
0.0572069825436409,0.028494588356492642,
0.057256857855361595,0.01951729664226452,
0.05730673316708229,0.018756066909115767,
0.057356608478802994,0.009694808171970696,
0.05740648379052369,0.019343236446992085,
0.05745635910224439,0.022103086446526955,
0.05750623441396509,0.027580047785860748,
0.05755610972568578,0.03055598147579935,
0.057605985037406486,0.041539472320158394,
0.05765586034912718,-0.0015271378877579588,
0.05770573566084788,0.0323169165285972,
0.05775561097256858,0.033397212644322286,
0.057805486284289276,0.01148655566522928,
0.05785536159600998,0.004227059260326823,
0.057905236907730674,0.012716154335717754,
0.05795511221945137,0.0013697931673532088,
0.05800498753117207,-0.007126498169333004,
0.05805486284289277,0.004714347699321735,
0.058104738154613464,0.010697045526538147,
0.05815461346633417,0.020183151160113537,
0.05820448877805486,0.021299219851702498,
0.05825436408977556,0.0217153189975064,
0.05830423940149626,0.03848524247489338,
0.058354114713216956,0.04550253766747759,
0.05840399002493766,0.0017469736067300071,
0.058453865336658355,-0.006136283189307364,
0.05850374064837905,0.021610435881655968,
0.05855361596009975,-0.0019552356232786297,
0.05860349127182045,0.027529922942578867,
0.058653366583541144,0.028824713440552974,
0.05870324189526185,-0.0042477147385391045,
0.05875311720698254,0.01601729914797305,
0.05880299251870324,0.0275884982180528,
0.05885286783042394,-0.0034668960397671294,
0.05890274314214464,0.02666327935833825,
0.05895261845386534,0.023999676314099404,
0.059002493765586035,0.012184003104357095,
0.05905236907730673,0.027908769986536117,
0.059102244389027433,0.027844190084823018,
0.05915211970074813,-0.0017931775478391403,
0.059201995012468825,0.008975434512735178,
0.05925187032418953,0.022123701275740752,
0.05930174563591022,0.008235999294745226,
0.059351620947630926,0.01488229476577893,
0.05940149625935162,0.024215431819522404,
0.05945137157107232,-0.01877381610806914,
0.05950124688279302,-0.002457189015562241,
0.059551122194513716,0.013492722953662262,
0.05960099750623441,-0.013869365205008373,
0.059650872817955114,1.3173534605613255e-05,
0.05970074812967581,0.0215806804458759,
0.059750623441396505,0.009685743026157073,
0.05980049875311721,-0.006858376471183626,
0.059850374064837904,0.002115788611786538,
0.059900249376558606,0.006233278991992274,
0.0599501246882793,0.0020283540722975174,
0.06,0.0008977889919268515,
0.0600498753117207,-0.02192895034589489,
0.060099750623441396,-0.0031237955147300983,
0.06014962593516209,-0.030994480885624558,
0.060199501246882794,0.0014886310407752406,
0.06024937655860349,0.016024906052070676,
0.06029925187032419,-0.0051103205270092164,
0.06034912718204489,0.01655975168269009,
0.060399002493765584,0.017514926331226224,
0.06044887780548629,0.01178730600633012,
0.06049875311720698,-0.0008939235254552544,
0.06054862842892768,0.009622812412486772,
0.06059850374064838,-0.023910097856295123,
0.06064837905236908,-0.002174712824495808,
0.06069825436408977,-0.014426572201887453,
0.060748129675810475,0.00875693088483219,
0.06079800498753117,-0.03554523649482198,
0.06084788029925187,-0.018815489068594107,
0.06089775561097257,-0.026423644895559213,
0.060947630922693265,0.023590149792450065,
0.06099750623441397,0.005604093036517573,
0.06104738154613466,-0.0030340482696952446,
0.06109725685785536,0.008457143053961648,
0.06114713216957606,-0.027085233344105723,
0.06119700748129676,0.000258850205042579,
0.06124688279301746,0.0014328695404602848,
0.061296758104738155,-0.015999361315414594,
0.06134663341645885,-0.005891064188588294,
0.061396508728179554,-0.009360143067545165,
0.06144638403990025,-0.03039620919056284,
0.061496259351620945,-0.008844226508255844,
0.06154613466334165,-0.032122306361616004,
0.061596009975062344,-0.005776152841377357,
0.06164588528678304,0.0033649164779825796,
0.06169576059850374,-0.011298859701570152,
0.06174563591022444,0.014748002134539834,
0.06179551122194514,0.0028707847646828964,
0.061845386533665836,0.01028434712103443,
0.06189526184538653,-0.011507123506243552,
0.061945137157107234,-0.02023570990107871,
0.06199501246882793,-0.010978826460586065,
0.062044887780548626,-0.041044971036729105,
0.06209476309226933,-0.0024661398983161055,
0.062144638403990024,-0.00784936757473205,
0.06219451371571072,0.019249634652655178,
0.06224438902743142,-0.012138133422883883,
0.06229426433915212,0.005478485567499703,
0.06234413965087282,-0.021560740418557135,
0.062394014962593516,-0.007346932466092191,
0.06244389027431421,-0.01104755170106019,
0.062493765586034915,-0.012100707407056873,
0.06254364089775562,-0.021718534781257855,
0.06259351620947631,0.013811376478538865,
0.06264339152119701,-0.029985190157164106,
0.0626932668329177,-0.013455226961673679,
0.0627431421446384,0.004061338591853083,
0.0627930174563591,-0.030112054351125458,
0.0628428927680798,-0.004991626803287549,
0.0628927680798005,0.005563842480347223,
0.0629426433915212,-0.027125032775709424,
0.06299251870324189,-0.01886893664326565,
0.06304239401496259,-0.024631451287291325,
0.0630922693266833,0.01591467776934832,
0.063142144638404,-0.012149525062966534,
0.06319201995012469,0.0027275956778121425,
0.06324189526184539,-0.004154957265470761,
0.06329177057356608,-0.030098130598912236,
0.06334164588528678,-0.013426791993913102,
0.06339152119700749,-0.027423534800337105,
0.06344139650872818,0.008312207710930709,
0.06349127182044888,-0.017275664446323006,
0.06354114713216957,-0.016582364534197907,
0.06359102244389027,-0.03462289922548467,
0.06364089775561098,-0.00991640201626741,
0.06369077306733167,-0.014774986425775105,
0.06374064837905237,-0.011177905201425494,
0.06379052369077307,-0.02734194372056694,
0.06384039900249376,-0.034551651690331094,
0.06389027431421446,-0.0005834780004501782,
0.06394014962593517,-0.030772932064387873,
0.06399002493765586,-0.012439684931722034,
0.06403990024937656,-0.02465736301089281,
0.06408977556109725,-0.018786502731423734,
0.06413965087281795,-0.03421558463798419,
0.06418952618453866,-0.025919707366530844,
0.06423940149625935,-0.013575461439910282,
0.06428927680798005,-0.019600413767239824,
0.06433915211970075,-0.019458935355701607,
0.06438902743142144,0.0016179481808889472,
0.06443890274314215,-0.025633579654706112,
0.06448877805486285,-0.016974359842189375,
0.06453865336658354,0.012448491198975068,
0.06458852867830424,-0.011283798006501878,
0.06463840399002493,-0.01525881092772249,
0.06468827930174563,0.006303247401864328,
0.06473815461346634,-0.043723928507533566,
0.06478802992518704,0.009059677218682081,
0.06483790523690773,-0.008437650575685542,
0.06488778054862843,-0.020765212302843096,
0.06493765586034912,-0.00034563022859893447,
0.06498753117206983,-0.028780866548458524,
0.06503740648379053,-0.012151213853394103,
0.06508728179551122,-0.011476068424478906,
0.06513715710723192,0.0003248741306664492,
0.06518703241895261,-0.02202542436789068,
0.06523690773067331,0.005261535362641671,
0.06528678304239402,-0.03667774344833475,
0.06533665835411472,-0.010005948576402517,
0.06538653366583541,0.013121404008111837,
0.06543640897755611,-0.002457111574866392,
0.0654862842892768,-0.02705726527279548,
0.06553615960099751,-0.01953290385137607,
0.06558603491271821,-0.004337740912688804,
0.0656359102244389,-0.025764807384902465,
0.0656857855361596,-0.008327418694219203,
0.0657356608478803,-0.04052582265665515,
0.06578553615960099,-0.01666093280708144,
0.0658354114713217,-0.006135062669083171,
0.0658852867830424,-0.0033120191594062705,
0.06593516209476309,-0.0030196280369244113,
0.06598503740648379,0.010927395154134888,
0.06603491271820448,-0.034556223853672074,
0.06608478802992519,0.007751816878303,
0.06613466334164589,-0.00961134332582203,
0.06618453865336658,-0.026058063886169845,
0.06623441396508728,-0.024398169587851442,
0.06628428927680798,-0.026710939050015238,
0.06633416458852869,-0.0076420728356185515,
0.06638403990024938,-0.010542959547834924,
0.06643391521197008,-0.01951027066953022,
0.06648379052369077,0.0042426244807380244,
0.06653366583541147,-0.030392109590198134,
0.06658354114713216,0.02010656869852815,
0.06663341645885287,-0.004478375427204598,
0.06668329177057357,0.020204731029167596,
0.06673316708229426,-0.00750823858811932,
0.06678304239401496,-0.01578661166818723,
0.06683291770573566,-0.01305140736565709,
0.06688279301745637,-0.024973580662860956,
0.06693266832917706,-0.017116882294231833,
0.06698254364089776,-0.027393221200775197,
0.06703241895261845,-0.02473719124735857,
0.06708229426433915,-0.010239948527681904,
0.06713216957605984,-0.010240487064780243,
0.06718204488778055,0.007720047789192747,
0.06723192019950125,-0.027688925552028697,
0.06728179551122195,0.004226011981056942,
0.06733167082294264,0.007340583989247281,
0.06738154613466334,0.0017758443568510335,
0.06743142144638405,-0.008107014884927762,
0.06748129675810474,0.004813941341513963,
0.06753117206982544,-0.008650257380985427,
0.06758104738154613,-0.011139229175046866,
0.06763092269326683,-0.0015885062849886906,
0.06768079800498752,-0.006308806186435388,
0.06773067331670823,-0.021155076995808014,
0.06778054862842893,-0.0069517127173216765,
0.06783042394014963,0.007217945464481359,
0.06788029925187032,-0.006981819131515283,
0.06793017456359102,-0.000586443694676469,
0.06798004987531173,-0.010107765848275992,
0.06802992518703242,-0.014084581650782049,
0.06807980049875312,0.00719896077133845,
0.06812967581047381,0.0178139295907129,
0.06817955112219451,-0.00796865213421501,
0.0682294264339152,0.0033154820908744614,
0.06827930174563591,-0.010769946580921973,
0.06832917705735661,-0.00013540194264812823,
0.0683790523690773,0.004268446122624858,
0.068428927680798,-0.0008120178174690724,
0.0684788029925187,0.015180316597708323,
0.06852867830423941,-0.021296669577210887,
0.0685785536159601,-0.012953922430125109,
0.0686284289276808,0.015317131225559591,
0.0686783042394015,0.0044443951055640335,
0.06872817955112219,-0.009554794380441857,
0.0687780548628429,-0.005820659514504377,
0.0688279301745636,0.007824869677094493,
0.06887780548628429,-0.020277403352611134,
0.06892768079800499,-0.023993572718242255,
0.06897755610972568,0.0023042338619303332,
0.06902743142144638,-0.01079958214198623,
0.06907730673316709,-0.0021620206013469767,
0.06912718204488778,-0.021454121865963467,
0.06917705735660848,0.0216411375188188,
0.06922693266832917,0.008576806629294075,
0.06927680798004987,-0.001956070702545124,
0.06932668329177058,0.011437655723536925,
0.06937655860349128,0.0017905885581696534,
0.06942643391521197,0.001695895772248364,
0.06947630922693267,0.010299240148106023,
0.06952618453865336,-0.00437148624627569,
0.06957605985037406,0.023946088839243714,
0.06962593516209477,-0.0024101064426971836,
0.06967581047381546,0.0054790066551448835,
0.06972568578553616,0.012549335197147567,
0.06977556109725686,-0.011806279773728327,
0.06982543640897755,0.012349423369929856,
0.06987531172069826,0.012664297214822448,
0.06992518703241896,0.002799699315416814,
0.06997506234413965,0.005941991451332698,
0.07002493765586035,0.02093547003916036,
0.07007481296758104,0.022710233430783724,
0.07012468827930174,0.012755494983198,
0.07017456359102245,-0.006445622504494105,
0.07022443890274314,0.009052657656173472,
0.07027431421446384,0.004358096990925793,
0.07032418952618454,0.02240774487668181,
0.07037406483790523,0.013557871980589909,
0.07042394014962594,0.04207650384643204,
0.07047381546134664,-0.009771822040828238,
0.07052369077306733,0.0004079703950068715,
0.07057356608478803,0.004865680960381482,
0.07062344139650872,0.016333947685050296,
0.07067331670822943,0.03346540517970491,
0.07072319201995013,-0.00555251443115818,
0.07077306733167082,0.01455016560498244,
0.07082294264339152,-0.0014338031324809732,
0.07087281795511222,0.01426181154556017,
0.07092269326683291,0.006954395155221755,
0.07097256857855362,0.018252489564706664,
0.07102244389027432,0.00047104100737494284,
0.07107231920199501,-0.010207196456668743,
0.07112219451371571,0.027540723910264214,
0.0711720698254364,0.027270708524644076,
0.07122194513715711,0.02083624944238059,
0.07127182044887781,0.033215656912831557,
0.0713216957605985,0.03163020662032051,
0.0713715710723192,-0.0027022820192500706,
0.0714214463840399,0.02516721968020779,
0.07147132169576059,0.02079246985814792,
0.0715211970074813,0.010187100727017461,
0.071571072319202,0.031092239630521115,
0.0716209476309227,0.02904337932235134,
0.07167082294264339,0.028575027240004026,
0.07172069825436408,0.006781177465998416,
0.0717705735660848,0.01233154348331604,
0.07182044887780549,0.018484438154712218,
0.07187032418952619,0.01970866270754328,
0.07192019950124688,-0.001859448790178228,
0.07197007481296758,0.0261492376197745,
0.07201995012468827,0.01196796438872469,
0.07206982543640898,0.017044343482712384,
0.07211970074812968,0.01023348344084837,
0.07216957605985037,0.02300526735180727,
0.07221945137157107,0.030189973365462162,
0.07226932668329177,0.03453374455744488,
0.07231920199501247,0.003275611080327645,
0.07236907730673317,0.019723556695008235,
0.07241895261845387,0.060892446452218425,
0.07246882793017456,0.036669224612983185,
0.07251870324189526,0.04219833635079523,
0.07256857855361595,-0.005285804943805143,
0.07261845386533666,0.013421092376130955,
0.07266832917705736,0.03749259480682428,
0.07271820448877805,0.0181565596634973,
0.07276807980049875,0.0054604630243387416,
0.07281795511221945,0.01859894912403777,
0.07286783042394016,0.0020844582031459037,
0.07291770573566085,0.07244447527368014,
0.07296758104738155,0.013591642068847762,
0.07301745635910224,0.03008927278112481,
0.07306733167082294,0.0076567226722374475,
0.07311720698254365,0.040712520440301096,
0.07316708229426434,0.023043741896387505,
0.07321695760598504,-0.0010088497882982522,
0.07326683291770573,0.030533234652164804,
0.07331670822942643,0.022786633828229604,
0.07336658354114713,0.036076300934793075,
0.07341645885286784,0.0032647977386786493,
0.07346633416458853,0.020656645716238955,
0.07351620947630923,0.0015300869183221995,
0.07356608478802992,-0.013733990415809555,
0.07361596009975062,0.00761935376102851,
0.07366583541147133,0.016175763707899183,
0.07371571072319202,0.028596794784689877,
0.07376558603491272,0.03541397160628182,
0.07381546134663342,0.02182853909830333,
0.07386533665835411,0.03284264164739361,
0.0739152119700748,0.020449824655406283,
0.07396508728179552,0.04053084095615779,
0.07401496259351621,0.03741835451732562,
0.07406483790523691,0.03145511138741503,
0.0741147132169576,0.014317617335154093,
0.0741645885286783,0.007875040213185028,
0.07421446384039901,0.03845731994911135,
0.0742643391521197,0.026273842878127115,
0.0743142144638404,0.013148290564344299,
0.0743640897755611,0.025540997401467327,
0.07441396508728179,0.016294790919670565,
0.07446384039900249,0.015370415496509377,
0.0745137157107232,0.03583009320986601,
0.07456359102244389,0.026145007728393628,
0.07461346633416459,0.010961402777485007,
0.07466334164588528,0.013811011310513677,
0.07471321695760598,0.010311832904486513,
0.07476309226932669,0.02539343858744573,
0.07481296758104738,0.01400010131561864,
0.07486284289276808,0.02395973106935565,
0.07491271820448878,0.02884229262284236,
0.07496259351620947,0.022635798755640195,
0.07501246882793017,0.004760279082663011,
0.07506234413965088,0.021642447847304944,
0.07511221945137157,0.0661929743389791,
0.07516209476309227,0.035798276646829635,
0.07521197007481296,0.04717869317993188,
0.07526184538653366,0.04417075640039253,
0.07531172069825437,0.02303960353927097,
0.07536159600997507,0.03551313669230263,
0.07541147132169576,0.004929985075635076,
0.07546134663341646,0.02613552061768908,
0.07551122194513715,0.026272730764542788,
0.07556109725685786,0.02750516290444879,
0.07561097256857856,0.021007135466078852,
0.07566084788029925,0.02145171731271662,
0.07571072319201995,0.04645399051951879,
0.07576059850374064,0.022748645522669784,
0.07581047381546134,0.005063274593491169,
0.07586034912718205,0.023527127179825514,
0.07591022443890275,0.04838971478074938,
0.07596009975062344,0.022599009356085924,
0.07600997506234414,0.02141885377137354,
0.07605985037406483,0.029632912943039127,
0.07610972568578554,0.020412438175714274,
0.07615960099750624,0.01726377774468934,
0.07620947630922693,0.02117007310785886,
0.07625935162094763,0.04897430868073957,
0.07630922693266833,0.015493625127047458,
0.07635910224438902,0.030769597667145616,
0.07640897755610973,0.02287577727861341,
0.07645885286783043,0.008674663252675987,
0.07650872817955112,0.01909566339638295,
0.07655860349127182,0.03039458569403167,
0.07660847880299251,0.026115460603073064,
0.07665835411471322,0.018589993762589355,
0.07670822942643392,0.02140448680916943,
0.07675810473815461,0.04747713425654524,
0.07680798004987531,0.04783368880533402,
0.076857855361596,0.023996216843271453,
0.0769077306733167,0.020836082768957823,
0.07695760598503741,0.001549642396783353,
0.0770074812967581,0.042784082653496994,
0.0770573566084788,0.014384417729198786,
0.0771072319201995,0.00948412367140415,
0.0771571072319202,0.025438283067086984,
0.0772069825436409,0.005986101456903415,
0.0772568578553616,0.020003004680289087,
0.0773067331670823,0.024602118362510708,
0.07735660847880299,0.030939078553638484,
0.07740648379052369,0.013557153772234397,
0.0774563591022444,0.003471508548388253,
0.07750623441396509,0.013628883160714443,
0.07755610972568579,0.010032925518704307,
0.07760598503740648,0.027175305138538955,
0.07765586034912718,0.010521643061874052,
0.07770573566084787,0.025155310043498125,
0.07775561097256858,0.026740035291726392,
0.07780548628428928,0.020010702445606945,
0.07785536159600998,0.014713686556530145,
0.07790523690773067,0.017072486185447818,
0.07795511221945137,0.04172267503148107,
0.07800498753117208,0.03412764298918791,
0.07805486284289277,0.011611616050900088,
0.07810473815461347,0.00906174350954686,
0.07815461346633416,0.00048482535117735925,
0.07820448877805486,0.013334600191190635,
0.07825436408977555,0.01973247897412121,
0.07830423940149626,0.020076470672691415,
0.07835411471321696,0.0035025863053622843,
0.07840399002493766,0.0060518459086712564,
0.07845386533665835,0.005547066070680026,
0.07850374064837905,0.02322711785433263,
0.07855361596009976,0.010639253548350878,
0.07860349127182045,0.005731451508730275,
0.07865336658354115,-0.031488471207330664,
0.07870324189526184,0.002094279398903772,
0.07875311720698254,0.0025940426667499933,
0.07880299251870324,0.007408629598006482,
0.07885286783042394,-0.003729669644041606,
0.07890274314214464,0.018169473874196384,
0.07895261845386534,0.015331670420915457,
0.07900249376558603,0.00029139805200727,
0.07905236907730673,0.022781295285275213,
0.07910224438902744,0.015863617010840287,
0.07915211970074813,0.023023734401149035,
0.07920199501246883,0.008613447013172142,
0.07925187032418952,0.014196430894749958,
0.07930174563591022,0.003484556151665044,
0.07935162094763092,0.0200092932369199,
0.07940149625935163,-0.002008163331846932,
0.07945137157107232,-0.004434177425269564,
0.07950124688279302,-0.0001914555361978692,
0.07955112219451371,0.030135966959633623,
0.07960099750623441,-0.0032428083972299536,
0.07965087281795512,-0.02370887622682441,
0.07970074812967581,0.015761987569283122,
0.07975062344139651,-0.009121360801117504,
0.0798004987531172,0.0005936344043166886,
0.0798503740648379,0.02997442395543307,
0.07990024937655861,0.011922986206539265,
0.0799501246882793,-0.014344222375301306,
0.08,0.013690188314021468,
0.0800498753117207,-0.01056697338964737,
0.0800997506234414,0.00999274404214669,
0.08014962593516209,0.01047066478190442,
0.0801995012468828,0.011099456692695249,
0.0802493765586035,0.0028926190635153006,
0.08029925187032419,-0.004093806020380767,
0.08034912718204489,0.004776131317239038,
0.08039900249376558,0.0063358649289621035,
0.08044887780548629,0.01694619145458683,
0.08049875311720699,-0.01039337743966694,
0.08054862842892768,0.010461821430965846,
0.08059850374064838,0.01090795485949168,
0.08064837905236907,0.011513900603933081,
0.08069825436408977,-0.003520725627765127,
0.08074812967581048,-0.010671653527514258,
0.08079800498753117,-0.004322578027292185,
0.08084788029925187,0.018531680397460764,
0.08089775561097257,0.00017974588952231129,
0.08094763092269326,-0.011981517231118184,
0.08099750623441397,-0.003897333851185989,
0.08104738154613467,0.00041231645223336645,
0.08109725685785536,-0.021264810276625606,
0.08114713216957606,0.016878151483259385,
0.08119700748129675,-0.006969478022486138,
0.08124688279301745,0.00890112488983861,
0.08129675810473816,0.019703557914061743,
0.08134663341645886,-0.02593357359473821,
0.08139650872817955,0.015506832862699303,
0.08144638403990025,0.01757543375821801,
0.08149625935162094,-0.010501223734949775,
0.08154613466334165,0.010317444279831958,
0.08159600997506235,0.007213573896543341,
0.08164588528678304,5.843248628467461e-05,
0.08169576059850374,0.019394157074046278,
0.08174563591022443,-0.000472732240096487,
0.08179551122194513,-0.005595665121989235,
0.08184538653366584,-0.005021333379520249,
0.08189526184538654,-0.02276301782689191,
0.08194513715710723,0.0037870455337778745,
0.08199501246882793,0.0026496662151553685,
0.08204488778054862,0.01918808396151277,
0.08209476309226933,-0.008395834108350467,
0.08214463840399003,-0.022880358763199493,
0.08219451371571072,0.0002491186587851302,
0.08224438902743142,-0.020980013476996014,
0.08229426433915212,0.0014149915294413623,
0.08234413965087282,-0.024620358538109607,
0.08239401496259352,0.005704947898991551,
0.08244389027431422,-0.026824358808637115,
0.08249376558603491,-0.00394986725699781,
0.08254364089775561,-0.022520862120886276,
0.0825935162094763,0.0031377419342881723,
0.08264339152119701,0.0033475414228610143,
0.08269326683291771,-0.027971901595097964,
0.0827431421446384,-0.021722169801727545,
0.0827930174563591,-0.0031918996761744044,
0.0828428927680798,-0.02109846505169391,
0.0828927680798005,-0.009716540564538016,
0.0829426433915212,0.002399324095550546,
0.0829925187032419,-0.0204644163283889,
0.08304239401496259,-0.009691294101698602,
0.08309226932668329,0.01086818946879164,
0.08314214463840398,-0.014925344306469334,
0.0831920199501247,-0.02041179399922062,
0.08324189526184539,-0.02955696201224916,
0.08329177057356608,0.016102314908321442,
0.08334164588528678,0.0093844466653498,
0.08339152119700748,-0.05703659210660409,
0.08344139650872819,-0.021874170882768128,
0.08349127182044888,-0.00939496026202813,
0.08354114713216958,-0.008928117555754393,
0.08359102244389027,-0.049462562380153674,
0.08364089775561097,-0.021226979825911624,
0.08369077306733166,0.017194152377542148,
0.08374064837905237,-0.03977406841100662,
0.08379052369077307,-0.007836863599769622,
0.08384039900249377,-0.02089803329817264,
0.08389027431421446,-0.031141578932743618,
0.08394014962593516,0.0008480801293100151,
0.08399002493765587,-0.03315583427135592,
0.08403990024937656,-0.02908363768239638,
0.08408977556109726,-0.03282160218086586,
0.08413965087281795,-0.02546195359700769,
0.08418952618453865,-0.0005719967223749393,
0.08423940149625936,0.005585778857354718,
0.08428927680798005,0.005548910553886642,
0.08433915211970075,-0.04644421269601816,
0.08438902743142145,-0.004956405321860867,
0.08443890274314214,0.009407019571560558,
0.08448877805486284,0.025341533674671395,
0.08453865336658355,-0.00805967395075062,
0.08458852867830424,-0.01639923857023112,
0.08463840399002494,-0.038692850559212566,
0.08468827930174563,-0.014675236127770946,
0.08473815461346633,-0.0069093519738347535,
0.08478802992518704,-0.02378479716377789,
0.08483790523690773,-0.014148724113416616,
0.08488778054862843,-0.027131672516122196,
0.08493765586034913,-0.01925304626436888,
0.08498753117206982,0.0034608113990326414,
0.08503740648379052,-0.018871226767150452,
0.08508728179551123,-0.022835476005956635,
0.08513715710723192,-0.018783488064733605,
0.08518703241895262,-0.0176818917127295,
0.08523690773067331,-0.008607510242009522,
0.08528678304239401,-0.011126322013598271,
0.08533665835411472,-0.0025945488343216087,
0.08538653366583542,0.0010894324814538694,
0.08543640897755611,0.0016711954431669722,
0.0854862842892768,-0.01452261852629919,
0.0855361596009975,-0.002185678771317024,
0.0855860349127182,-0.029945849280190687,
0.08563591022443891,-0.004167285991485234,
0.0856857855361596,-0.016468436149352284,
0.0857356608478803,-0.028636433311880517,
0.085785536159601,-0.0012756711225915887,
0.08583541147132169,-0.020046302521047606,
0.0858852867830424,-0.021374174796201427,
0.0859351620947631,0.0016651518066647195,
0.08598503740648379,-0.005994177854279126,
0.08603491271820449,0.00438663615461107,
0.08608478802992518,-0.00037674092666616955,
0.08613466334164588,-0.012648726135836263,
0.08618453865336659,-0.028481787434943236,
0.08623441396508728,-0.008602821244274575,
0.08628428927680798,-0.018807194357312013,
0.08633416458852868,-0.008959217774710995,
0.08638403990024937,-0.019055017082104726,
0.08643391521197008,-0.024685984117277772,
0.08648379052369078,-0.01748723541940654,
0.08653366583541147,-0.02558354419797437,
0.08658354114713217,-0.006099414609990209,
0.08663341645885286,-0.017744244002131936,
0.08668329177057357,-0.002147172179043694,
0.08673316708229427,-0.032789947794793974,
0.08678304239401496,-0.019273872618138115,
0.08683291770573566,-0.016086745582812388,
0.08688279301745636,-0.038662361923103926,
0.08693266832917705,-0.022649334861228367,
0.08698254364089776,0.010432896924071518,
0.08703241895261846,-0.02040295778568142,
0.08708229426433915,-0.01612560983730573,
0.08713216957605985,-0.0012510556409701295,
0.08718204488778054,-0.017297429687749333,
0.08723192019950125,-0.008909777878672153,
0.08728179551122195,-0.0206355791671815,
0.08733167082294264,-0.015089934329448378,
0.08738154613466334,-0.023280006722830968,
0.08743142144638404,-0.017401896794940606,
0.08748129675810473,-0.02174919590290621,
0.08753117206982544,0.012508594308532784,
0.08758104738154614,-0.03485737037323486,
0.08763092269326683,-0.018736248684248086,
0.08768079800498753,-0.016669655080682477,
0.08773067331670822,0.0029604550924113284,
0.08778054862842893,-0.003709401318974461,
0.08783042394014963,-0.018055203857791427,
0.08788029925187033,-0.0052782944518636075,
0.08793017456359102,-0.04484141603583831,
0.08798004987531172,0.012255606485568029,
0.08802992518703241,-0.002449995732198199,
0.08807980049875312,-0.012270160197187326,
0.08812967581047382,0.004547898893853481,
0.08817955112219451,-0.01692190774319246,
0.08822942643391521,-0.005228051699310902,
0.0882793017456359,0.011371774407470569,
0.08832917705735661,0.0025130297177057446,
0.08837905236907731,-0.006486986477031085,
0.088428927680798,-0.012546202511864472,
0.0884788029925187,-0.008022667415732064,
0.0885286783042394,0.0233600778532117,
0.0885785536159601,0.026446313018931387,
0.0886284289276808,0.016699713054068782,
0.0886783042394015,0.015769352628938093,
0.0887281795511222,0.0015777969030727002,
0.08877805486284289,0.0013944598527220417,
0.08882793017456359,-0.006467896070970879,
0.0888778054862843,0.026848386849533057,
0.08892768079800499,-0.011798232232984734,
0.08897755610972569,-0.025980308190410757,
0.08902743142144638,0.0005678130552292764,
0.08907730673316708,0.015871913729154755,
0.08912718204488779,-0.0021762176551368365,
0.08917705735660848,-0.014137764661303075,
0.08922693266832918,0.0033486203298962658,
0.08927680798004987,0.005498680993693128,
0.08932668329177057,0.030708661920779007,
0.08937655860349127,-0.0219144235204279,
0.08942643391521198,0.01804446109219789,
0.08947630922693267,0.00277792857994212,
0.08952618453865337,-0.014973755499166144,
0.08957605985037406,0.014460962197103895,
0.08962593516209476,-0.016885257833262727,
0.08967581047381547,-0.010505428461846149,
0.08972568578553616,-0.002841069841373507,
0.08977556109725686,0.01199263635846595,
0.08982543640897755,0.0032167410772732993,
0.08987531172069825,-0.0024521377428069514,
0.08992518703241895,0.020668908750211715,
0.08997506234413966,0.031433686970189056,
0.09002493765586035,0.00997679858311368,
0.09007481296758105,0.008385708816395977,
0.09012468827930174,0.003222954661355721,
0.09017456359102244,-0.012821540486126326,
0.09022443890274315,0.0038159577995766237,
0.09027431421446384,0.027919495560280175,
0.09032418952618454,0.012157370090684272,
0.09037406483790524,0.018884816794505117,
0.09042394014962593,-0.04045094304491719,
0.09047381546134663,0.010774109354539112,
0.09052369077306734,0.02809057632337804,
0.09057356608478803,0.004063707384625362,
0.09062344139650873,0.028567545544141502,
0.09067331670822942,0.0021077241962340846,
0.09072319201995012,0.03742674652489522,
0.09077306733167083,0.003271423226889652,
0.09082294264339152,-0.0037650440105988225,
0.09087281795511222,0.009076211918664801,
0.09092269326683292,0.029005609142957113,
0.09097256857855361,0.007818228978537992,
0.09102244389027432,-0.010350743696709434,
0.09107231920199502,0.010452459590862159,
0.09112219451371571,-0.013650230490826813,
0.09117206982543641,0.03724360736913176,
0.0912219451371571,0.016868157969992723,
0.0912718204488778,0.016418769145858634,
0.09132169576059851,-0.015099173831562292,
0.0913715710723192,0.00442175910518477,
0.0914214463840399,0.02667285598984128,
0.0914713216957606,0.008622705576400852,
0.09152119700748129,0.013812968574738982,
0.091571072319202,0.030457720936314624,
0.0916209476309227,0.007330483612216141,
0.09167082294264339,0.004340221719736298,
0.09172069825436409,0.023577938002395424,
0.09177057356608478,0.027656503985048604,
0.09182044887780548,0.005032389738485644,
0.09187032418952619,0.003839038983874511,
0.09192019950124689,-0.008013661749905619,
0.09197007481296758,0.0010531870999611753,
0.09201995012468828,0.017494045440806055,
0.09206982543640897,0.01966366033824271,
0.09211970074812968,0.024557458485235273,
0.09216957605985038,0.01117190789934122,
0.09221945137157107,0.019655598761198975,
0.09226932668329177,0.041796843478404816,
0.09231920199501246,0.04152039886683198,
0.09236907730673316,0.03607328917950903,
0.09241895261845387,0.03190723988592289,
0.09246882793017457,0.013660838162905652,
0.09251870324189526,0.027682868649054976,
0.09256857855361596,0.04772249463157427,
0.09261845386533665,-0.0016727965997970946,
0.09266832917705736,0.05049939290540337,
0.09271820448877806,0.02000230901513248,
0.09276807980049875,0.03654471940045145,
0.09281795511221945,0.017570304444265945,
0.09286783042394015,0.01050747009795996,
0.09291770573566084,0.04353034388713506,
0.09296758104738155,0.03477466269243521,
0.09301745635910225,0.018237758225354984,
0.09306733167082294,0.03756622108385524,
0.09311720698254364,0.018171238550949577,
0.09316708229426433,0.05897874306771251,
0.09321695760598504,0.03163719284152923,
0.09326683291770574,0.0365019772318653,
0.09331670822942643,0.031970395714100236,
0.09336658354114713,0.025623947088277376,
0.09341645885286783,0.03218652487786745,
0.09346633416458854,0.025692501796221897,
0.09351620947630923,0.02497840773398264,
0.09356608478802993,0.057001665793178904,
0.09361596009975062,0.038150016971626524,
0.09366583541147132,0.030552663885968792,
0.09371571072319201,0.042086146618655534,
0.09376558603491272,0.012544038935004477,
0.09381546134663342,0.03674998680371429,
0.09386533665835411,0.054594443714123614,
0.09391521197007481,0.006287400229379972,
0.0939650872817955,-0.0027752746651972353,
0.09401496259351622,0.018697481999402847,
0.09406483790523691,0.022048312603554568,
0.09411471321695761,0.03751844412057865,
0.0941645885286783,0.0028448608905287595,
0.094214463840399,0.04227863819459915,
0.0942643391521197,0.028072606775120162,
0.0943142144638404,0.04740276370544604,
0.0943640897755611,0.026689375305778692,
0.0944139650872818,0.033055853659666005,
0.09446384039900249,0.04346438017482972,
0.09451371571072319,0.023222035282610597,
0.0945635910224439,0.033321127858945955,
0.09461346633416459,-0.0048707389757349645,
0.09466334164588529,0.03992237801498133,
0.09471321695760598,0.013522430408195766,
0.09476309226932668,0.03837626153654,
0.09481296758104737,0.027564202108608868,
0.09486284289276808,0.0280948388828605,
0.09491271820448878,0.006948738287043513,
0.09496259351620948,0.0264624422934355,
0.09501246882793017,0.00931985638525627,
0.09506234413965087,0.0445138294197215,
0.09511221945137158,0.052238136609302814,
0.09516209476309227,0.03965007768858237,
0.09521197007481297,0.030377893399753195,
0.09526184538653366,0.025542899349037782,
0.09531172069825436,0.01309676384853349,
0.09536159600997507,0.02475521729918636,
0.09541147132169576,0.04125529540343877,
0.09546134663341646,0.033361407969798786,
0.09551122194513716,0.02932016338084307,
0.09556109725685785,0.00029937170581592967,
0.09561097256857855,0.047276754235490756,
0.09566084788029926,0.05201991770878496,
0.09571072319201995,0.012293985980456912,
0.09576059850374065,0.04186233454686628,
0.09581047381546134,0.02594988091249754,
0.09586034912718204,0.046063249886990426,
0.09591022443890275,0.017317620914804835,
0.09596009975062345,-0.0071838365880907695,
0.09600997506234414,0.025139606529716134,
0.09605985037406484,0.030439385815670142,
0.09610972568578553,-0.010064753413953808,
0.09615960099750623,0.039163169189634986,
0.09620947630922694,0.019173466724064402,
0.09625935162094763,0.027863861731179235,
0.09630922693266833,0.01853545651844024,
0.09635910224438902,0.011003606498902405,
0.09640897755610972,0.03118604314858584,
0.09645885286783043,0.021241278041546303,
0.09650872817955113,0.047897291912419315,
0.09655860349127182,0.029772074069645632,
0.09660847880299252,0.014815816161319852,
0.09665835411471321,0.04744632518902085,
0.09670822942643391,-0.018079774617728306,
0.09675810473815462,0.028197541947327157,
0.09680798004987531,0.011657687430207158,
0.09685785536159601,0.015484978523939503,
0.0969077306733167,0.026530326302538387,
0.0969576059850374,0.03814118812978276,
0.09700748129675811,0.0135711034674436,
0.0970573566084788,0.020065132685243257,
0.0971072319201995,0.04204517478800826,
0.0971571072319202,0.03677853013080372,
0.0972069825436409,0.020276662617837955,
0.09725685785536159,0.016746928328487672,
0.0973067331670823,0.03939501195647784,
0.097356608478803,0.005066085330390817,
0.09740648379052369,0.006397067346105687,
0.09745635910224439,0.035326315550554994,
0.09750623441396508,0.022744770648060603,
0.09755610972568579,0.004085705157829245,
0.09760598503740649,-0.006319915479304106,
0.09765586034912718,0.024811529965587727,
0.09770573566084788,0.025229414627468014,
0.09775561097256857,0.022793222768388178,
0.09780548628428928,0.014761707025347372,
0.09785536159600998,0.04341028537294958,
0.09790523690773068,0.012387976679364955,
0.09795511221945137,0.02993954885229605,
0.09800498753117207,0.017089435552708716,
0.09805486284289276,0.036894525579368086,
0.09810473815461347,0.02041402573078411,
0.09815461346633417,0.0182843620797592,
0.09820448877805486,0.010271072383139105,
0.09825436408977556,0.0002738798239586178,
0.09830423940149625,0.02463501011856239,
0.09835411471321696,0.021672788943963635,
0.09840399002493766,0.013462379847660324,
0.09845386533665836,0.014711051728635023,
0.09850374064837905,0.04184785539146525,
0.09855361596009975,0.0019814544808987103,
0.09860349127182044,-0.022131353331512543,
0.09865336658354115,0.0171764881152461,
0.09870324189526185,0.013440583491305693,
0.09875311720698254,0.005286510424817849,
0.09880299251870324,0.00946175651561033,
0.09885286783042393,-0.007762421381892037,
0.09890274314214464,0.00826507734998016,
0.09895261845386534,0.017090496527799412,
0.09900249376558604,0.02278903876703111,
0.09905236907730673,-0.008789049933233536,
0.09910224438902743,0.0002568552526357286,
0.09915211970074812,0.0008653121161258884,
0.09920199501246883,0.04539217703044635,
0.09925187032418953,0.010614823654643765,
0.09930174563591022,0.0209348181201783,
0.09935162094763092,-0.017593498452149157,
0.09940149625935162,0.030252010219537183,
0.09945137157107233,0.013021358898957097,
0.09950124688279302,-0.0018176532444388882,
0.09955112219451372,0.005563206325405437,
0.09960099750623441,0.016687077929629434,
0.09965087281795511,0.009064460161383257,
0.0997007481296758,0.006308349573693433,
0.09975062344139651,-0.0006496314609629756,
0.09980049875311721,0.016853926001423204,
0.0998503740648379,0.01994884840476397,
0.0999002493765586,0.014629821619936263,
0.0999501246882793,0.01583641134796784,
0.1,0.0050923629899888405,
0.1000498753117207,0.005802009724662223,
0.1000997506234414,-0.0010358494688337862,
0.10014962593516209,-0.006448938988999151,
0.10019950124688279,0.00876111261068888,
0.1002493765586035,0.010742891339470333,
0.1002992518703242,-0.018007597462295664,
0.10034912718204489,0.018359648659843752,
0.10039900249376559,0.026829073835946852,
0.10044887780548628,0.018189963971254712,
0.10049875311720698,-0.005882823806999208,
0.10054862842892769,0.0074891925181396445,
0.10059850374064838,-0.016208193463232032,
0.10064837905236908,0.001473166990752043,
0.10069825436408977,-0.012308841317641185,
0.10074812967581047,0.009831637497705985,
0.10079800498753118,0.037857740665222676,
0.10084788029925187,0.017322451354791452,
0.10089775561097257,0.0046648108155430985,
0.10094763092269327,0.01867586043204606,
0.10099750623441396,-0.00996312362931375,
0.10104738154613466,0.025545055927379805,
0.10109725685785537,-0.016875827719402,
0.10114713216957606,-0.00956582674239624,
0.10119700748129676,-0.025423268627961043,
0.10124688279301745,0.014261887901856542,
0.10129675810473815,-0.01723817895793764,
0.10134663341645886,-0.011024143962324227,
0.10139650872817955,0.006626792439904759,
0.10144638403990025,0.011061320472987472,
0.10149625935162095,0.02274236678155976,
0.10154613466334164,0.015474940008441336,
0.10159600997506234,-0.002837274362157966,
0.10164588528678305,0.012315712804054864,
0.10169576059850374,0.009634789962598455,
0.10174563591022444,0.005215810344762512,
0.10179551122194513,-0.014361788412977743,
0.10184538653366583,-0.036748131173129396,
0.10189526184538654,-0.0003629120821603293,
0.10194513715710724,-0.016771624676017123,
0.10199501246882793,-0.009698882472819487,
0.10204488778054863,-0.0030148345543424653,
0.10209476309226932,0.01913642745373825,
0.10214463840399003,-0.01880489442331105,
0.10219451371571073,-0.020511973514209206,
0.10224438902743142,-0.02148235084101484,
0.10229426433915212,-0.009660788959375997,
0.10234413965087281,0.00586605040795064,
0.10239401496259351,-0.020991716642383553,
0.10244389027431422,-0.006040054441706704,
0.10249376558603492,0.026162927604466025,
0.10254364089775561,-0.020092449075370923,
0.10259351620947631,-0.03500070748362498,
0.102643391521197,0.006623240264656745,
0.10269326683291771,0.016778223008680128,
0.10274314214463841,-0.032409271167159165,
0.1027930174563591,0.006904807640636475,
0.1028428927680798,-0.003925486143852566,
0.1028927680798005,0.006984729462066849,
0.10294264339152119,-0.002610135272431426,
0.1029925187032419,0.013685506430651487,
0.1030423940149626,-0.014827759834848516,
0.10309226932668329,-0.016093333533699995,
0.10314214463840399,-0.009857458244705547,
0.10319201995012468,-0.012975145537260665,
0.10324189526184539,-0.008965276927695035,
0.10329177057356609,-0.03748862538262371,
0.10334164588528678,-0.0008075845758773285,
0.10339152119700748,-0.0039025997358575993,
0.10344139650872818,0.0003999572782073489,
0.10349127182044887,-0.005511852691360905,
0.10354114713216958,0.0026674918225260656,
0.10359102244389028,0.0009406820476762622,
0.10364089775561097,-0.017413821075410254,
0.10369077306733167,0.016303576429391863,
0.10374064837905236,-0.016848587067824994,
0.10379052369077307,-0.017127387397797077,
0.10384039900249377,0.0013751410287676739,
0.10389027431421446,0.01603791295112737,
0.10394014962593516,-0.027047334450952552,
0.10399002493765586,-0.015687375458925026,
0.10403990024937655,-0.013750018957237636,
0.10408977556109726,0.00757348465399087,
0.10413965087281796,0.0012015210544301415,
0.10418952618453865,0.016161063198793135,
0.10423940149625935,0.002169478883337921,
0.10428927680798004,-0.019767453110361717,
0.10433915211970075,-0.008234139106474588,
0.10438902743142145,-0.027714531592082953,
0.10443890274314215,-0.01238551956268305,
0.10448877805486284,-0.011955880197235246,
0.10453865336658354,-0.01772282471778107,
0.10458852867830425,-0.0019174459278878085,
0.10463840399002494,-0.014062967346341044,
0.10468827930174564,-0.030451170021873843,
0.10473815461346633,-0.02013311353228,
0.10478802992518703,-0.03246317143989094,
0.10483790523690772,-0.027516368298719812,
0.10488778054862843,-0.008987025814305832,
0.10493765586034913,-0.026020930621333913,
0.10498753117206983,-0.016821807352966095,
0.10503740648379052,-0.010431452389637282,
0.10508728179551122,-0.011368803167312026,
0.10513715710723193,-0.03500118640071596,
0.10518703241895262,-0.010379620126659531,
0.10523690773067332,-0.000519446967363231,
0.10528678304239401,0.004319493011148822,
0.10533665835411471,0.0001328115340934414,
0.1053865336658354,-0.013280238889710493,
0.10543640897755611,-0.00840473783937146,
0.10548628428927681,0.0059504963915066374,
0.1055361596009975,-0.01238658665068152,
0.1055860349127182,0.03498681236500507,
0.1056359102244389,0.0036842653058315068,
0.10568578553615961,-0.04319306982181478,
0.1057356608478803,-0.006068748842343904,
0.105785536159601,0.0012281079490219487,
0.1058354114713217,0.0012753816952649419,
0.10588528678304239,-0.016678534592734474,
0.10593516209476309,-0.022256020123394168,
0.1059850374064838,-0.011034009429485937,
0.10603491271820449,-0.00604026068741607,
0.10608478802992519,-0.01145415885427912,
0.10613466334164588,-0.02755428767975811,
0.10618453865336658,-0.002873594327853662,
0.10623441396508729,-0.0059545491485461875,
0.10628428927680798,-0.013998741083048886,
0.10633416458852868,0.007890447391713242,
0.10638403990024937,-0.013182555620643877,
0.10643391521197007,-0.015496544917456926,
0.10648379052369077,-0.012092261790880429,
0.10653366583541148,0.013445891655102824,
0.10658354114713217,-0.004839667483906647,
0.10663341645885287,0.005634915267831327,
0.10668329177057356,-0.014328638315326984,
0.10673316708229426,-0.0073883229291315,
0.10678304239401497,0.008741186241572819,
0.10683291770573566,-0.008549166940787308,
0.10688279301745636,-0.031973901056678036,
0.10693266832917706,-0.027871985275832532,
0.10698254364089775,-0.0068772651771482245,
0.10703241895261846,-0.013810469006082259,
0.10708229426433916,-0.0021120783648343284,
0.10713216957605985,-0.014380648212159952,
0.10718204488778055,-0.01667083839891093,
0.10723192019950124,-0.013527232086116916,
0.10728179551122194,-0.002722406716328042,
0.10733167082294265,-0.01987125497007467,
0.10738154613466334,-0.00935981991535061,
0.10743142144638404,-0.005370538247174161,
0.10748129675810474,-0.0028455748476074153,
0.10753117206982543,-0.03393686692676482,
0.10758104738154614,-0.0018336238125164768,
0.10763092269326684,0.017581853540195015,
0.10768079800498753,-0.025808748242305415,
0.10773067331670823,0.012488054139458048,
0.10778054862842892,-0.00021398067873045715,
0.10783042394014962,-0.0013771650966994966,
0.10788029925187033,0.013904012814295942,
0.10793017456359102,0.0163602647783008,
0.10798004987531172,-0.014196352048520565,
0.10802992518703242,0.008488919093647384,
0.10807980049875311,0.002738028389831881,
0.10812967581047382,0.02858348365052751,
0.10817955112219452,0.006455687348914153,
0.10822942643391521,-0.006612404839655164,
0.10827930174563591,0.007238193796775722,
0.1083291770573566,0.006606200235882542,
0.1083790523690773,0.019839603953093803,
0.10842892768079801,-0.024061504931346085,
0.1084788029925187,0.0010406654357800692,
0.1085286783042394,0.027503099644238586,
0.1085785536159601,-0.015582762154353065,
0.10862842892768079,-0.015240590725014215,
0.1086783042394015,0.008703205600763816,
0.1087281795511222,0.017112747163427217,
0.1087780548628429,-0.03175937827485748,
0.10882793017456359,0.01609419915213951,
0.10887780548628428,-0.02377507432248497,
0.108927680798005,0.007860740885131706,
0.10897755610972569,0.008719766615875185,
0.10902743142144639,0.0069896111182470525,
0.10907730673316708,-0.030712943641669085,
0.10912718204488778,-0.011609265451709636,
0.10917705735660847,-0.017859787381089218,
0.10922693266832918,0.015515205752948763,
0.10927680798004988,0.004864144869209364,
0.10932668329177057,-0.008888717576951432,
0.10937655860349127,0.0036456666694592477,
0.10942643391521197,-0.01801406412390846,
0.10947630922693267,0.002420780882088932,
0.10952618453865337,-0.0025666721678121503,
0.10957605985037407,0.004737922359892125,
0.10962593516209476,0.013937182978676826,
0.10967581047381546,0.010375890349109983,
0.10972568578553615,0.014553194283482902,
0.10977556109725686,0.0004917509500651203,
0.10982543640897756,0.034219410964930634,
0.10987531172069825,0.01572307144724997,
0.10992518703241895,0.018801256080985713,
0.10997506234413965,0.011099654986171784,
0.11002493765586036,0.007812522315703334,
0.11007481296758105,0.027096109801464967,
0.11012468827930175,0.0026020314603919523,
0.11017456359102244,0.013917518355561796,
0.11022443890274314,0.031053478060751573,
0.11027431421446383,0.0032685644272814514,
0.11032418952618454,0.023084598118053752,
0.11037406483790524,0.016931646735717145,
0.11042394014962593,0.014796114647548335,
0.11047381546134663,0.017108193874126976,
0.11052369077306733,-0.019926436142777268,
0.11057356608478804,0.01673024717704606,
0.11062344139650873,0.03999520420403774,
0.11067331670822943,0.012906158252654,
0.11072319201995012,0.01197078785613719,
0.11077306733167082,-0.011781564306048337,
0.11082294264339151,0.027160562362468714,
0.11087281795511222,0.01737514110915178,
0.11092269326683292,0.031019125807520614,
0.11097256857855362,0.03788274878778962,
0.11102244389027431,0.037947175898616695,
0.111072319201995,0.006339115854845784,
0.11112219451371572,0.042725168390478865,
0.11117206982543641,0.03461350489924435,
0.11122194513715711,0.0033386775640696816,
0.1112718204488778,0.024952126538305898,
0.1113216957605985,-0.004520980404704854,
0.11137157107231921,-0.011072742676258917,
0.1114214463840399,0.024699438872454176,
0.1114713216957606,0.009959111729676721,
0.1115211970074813,-0.015022261226057744,
0.11157107231920199,0.031568393184467664,
0.11162094763092269,0.027423978526998766,
0.1116708229426434,0.023248359158880835,
0.11172069825436409,0.015042982380760087,
0.11177057356608479,-0.01611616193022737,
0.11182044887780548,0.019249124416136115,
0.11187032418952618,0.03042754178818753,
0.11192019950124689,0.02702020265018963,
0.11197007481296758,0.007117541803238547,
0.11201995012468828,0.019239195497766304,
0.11206982543640898,0.00022378918814642754,
0.11211970074812967,0.0140265436326731,
0.11216957605985037,0.03046114113000401,
0.11221945137157108,0.02715638331476006,
0.11226932668329177,0.028979700857145827,
0.11231920199501247,-0.00874375454552704,
0.11236907730673316,0.028637816420909793,
0.11241895261845386,0.025456559706764886,
0.11246882793017457,0.03871269872544929,
0.11251870324189527,0.05142256843079389,
0.11256857855361596,0.035070887936346114,
0.11261845386533666,0.01327301862417357,
0.11266832917705735,0.03811626048917113,
0.11271820448877805,0.009111425768872443,
0.11276807980049876,0.01496984323870642,
0.11281795511221945,0.01650042238978279,
0.11286783042394015,0.036203573753010455,
0.11291770573566084,0.005859276033596563,
0.11296758104738154,0.04604303860991309,
0.11301745635910225,0.03176291802211938,
0.11306733167082295,-0.005027010687088863,
0.11311720698254364,0.019823698077070726,
0.11316708229426434,0.021565711411731008,
0.11321695760598503,0.005053866000899826,
0.11326683291770574,0.005824051275666889,
0.11331670822942644,0.008629268457338128,
0.11336658354114713,0.022474510923574206,
0.11341645885286783,0.040729889772465264,
0.11346633416458853,0.024419804456650446,
0.11351620947630922,0.044888100562785783,
0.11356608478802993,0.018345150306895774,
0.11361596009975063,0.027708469764876207,
0.11366583541147132,0.03922900045681818,
0.11371571072319202,0.028037695978884457,
0.11376558603491271,-0.011110071802262707,
0.11381546134663342,0.011011335693591185,
0.11386533665835412,0.013341019397760811,
0.11391521197007481,0.034072650148507126,
0.11396508728179551,0.019951693139684538,
0.1140149625935162,0.0429522744008356,
0.1140648379052369,0.01142364557389667,
0.11411471321695761,0.01763172755408272,
0.1141645885286783,0.030748265517668658,
0.114214463840399,0.04590619850119726,
0.1142643391521197,0.02713919979594651,
0.1143142144638404,0.014472957735288089,
0.1143640897755611,0.022927349975966613,
0.1144139650872818,0.04275448565873099,
0.1144638403990025,0.026960032456479554,
0.11451371571072319,0.028420685225526078,
0.11456359102244389,0.028667682697460714,
0.11461346633416458,0.02760776316295297,
0.11466334164588529,0.012015370172488545,
0.11471321695760599,0.02643942773300978,
0.11476309226932668,0.015573946275948323,
0.11481296758104738,0.025010466401724957,
0.11486284289276807,0.026174213142045016,
0.11491271820448878,0.03565753239831543,
0.11496259351620948,0.03586742852523419,
0.11501246882793018,0.026981239434270624,
0.11506234413965087,0.028520804055513396,
0.11511221945137157,0.035393767611729916,
0.11516209476309226,0.0631242295146477,
0.11521197007481297,0.02769276825098634,
0.11526184538653367,0.03708696020104928,
0.11531172069825436,0.037236395076312385,
0.11536159600997506,0.04313530603031179,
0.11541147132169575,0.044143630383444904,
0.11546134663341646,0.03706337222687813,
0.11551122194513716,0.03980780911157924,
0.11556109725685786,0.03868019998830165,
0.11561097256857855,0.02315985206197727,
0.11566084788029925,0.03492694180066751,
0.11571072319201996,0.015175963052726933,
0.11576059850374065,-0.0043201918917793805,
0.11581047381546135,0.005912784816921108,
0.11586034912718204,-0.00016847025103289975,
0.11591022443890274,0.04866015654040688,
0.11596009975062344,0.012916655146516472,
0.11600997506234415,0.015191696255236604,
0.11605985037406484,0.0409655675415635,
0.11610972568578554,0.0036713020942641013,
0.11615960099750623,0.036727222191423256,
0.11620947630922693,0.0328533358184219,
0.11625935162094764,0.006723474787435155,
0.11630922693266833,0.028206376305084366,
0.11635910224438903,0.059658792282656664,
0.11640897755610972,0.008497040319967945,
0.11645885286783042,-0.0026531751891386533,
0.11650872817955112,0.023208479749626223,
0.11655860349127183,0.023487612518742703,
0.11660847880299252,0.0373804729235447,
0.11665835411471322,0.006971075871013543,
0.11670822942643391,0.013931107245086708,
0.11675810473815461,0.03291843448853044,
0.11680798004987532,0.041263077619417166,
0.11685785536159601,0.040338173915851296,
0.11690773067331671,0.03228427047555339,
0.1169576059850374,0.0060885994576896155,
0.1170074812967581,0.03632687513832964,
0.1170573566084788,-0.0025816682036095308,
0.1171072319201995,0.019695620728589137,
0.1171571072319202,0.03019279463675494,
0.1172069825436409,0.038968099915707585,
0.1172568578553616,0.005854113802743317,
0.11730673316708229,0.0009482149759695649,
0.117356608478803,0.008006496206417578,
0.1174064837905237,0.040565468975498994,
0.11745635910224439,0.011123318808286996,
0.11750623441396509,0.02928618304882734,
0.11755610972568578,0.02103410250278744,
0.11760598503740648,0.03466059940771782,
0.11765586034912719,0.021630524207587546,
0.11770573566084788,0.013368198656915017,
0.11775561097256858,0.026251172657482037,
0.11780548628428927,0.012495973186653849,
0.11785536159600997,0.02203255329895054,
0.11790523690773068,0.01273824007410451,
0.11795511221945137,0.0297153412700298,
0.11800498753117207,0.021771932702137186,
0.11805486284289277,0.027770685472245135,
0.11810473815461346,0.013124000149735741,
0.11815461346633417,-0.003990490311492147,
0.11820448877805487,0.021093169851021543,
0.11825436408977556,0.004426456922841658,
0.11830423940149626,0.02701870759317475,
0.11835411471321695,-0.002801976333203872,
0.11840399002493765,0.02754834035468008,
0.11845386533665836,0.025871254496741006,
0.11850374064837906,0.0367059871383141,
0.11855361596009975,0.026990222439621993,
0.11860349127182045,0.039979422955007005,
0.11865336658354114,0.01806577427131884,
0.11870324189526185,0.018572933163406687,
0.11875311720698255,0.023122439961320924,
0.11880299251870324,0.007319427625067135,
0.11885286783042394,0.017756065481331823,
0.11890274314214463,0.00459672387144602,
0.11895261845386533,0.027228938443143735,
0.11900249376558604,0.032462471614840394,
0.11905236907730674,0.03177028859624057,
0.11910224438902743,0.038484078693231664,
0.11915211970074813,0.05038983463049472,
0.11920199501246882,0.030686865120613444,
0.11925187032418953,0.01297996294196516,
0.11930174563591023,0.01103078406431018,
0.11935162094763092,0.01900401671538999,
0.11940149625935162,0.03474774446964094,
0.11945137157107232,-0.006889969898909706,
0.11950124688279301,0.01227887188324804,
0.11955112219451372,0.0015801511172015958,
0.11960099750623442,0.003525724153997614,
0.11965087281795511,0.006357185686701111,
0.11970074812967581,0.007754819972456188,
0.1197506234413965,0.030104671360943427,
0.11980049875311721,0.00815627518470273,
0.11985037406483791,0.04763167193879106,
0.1199002493765586,0.007127609006435772,
0.1199501246882793,-0.005841087211937213,
0.12,0.015493781800580406,
0.1200498753117207,0.022992041268435272,
0.1200997506234414,-0.00020536624106462856,
0.1201496259351621,0.0037123773902660593,
0.12019950124688279,-0.007133433976964195,
0.12024937655860349,0.010705636090611679,
0.12029925187032418,-0.0003553361548346281,
0.1203491271820449,0.01834907694167283,
0.12039900249376559,0.027036420284031117,
0.12044887780548628,0.036753258727513616,
0.12049875311720698,0.017016701437322444,
0.12054862842892768,-0.0005654932088309831,
0.12059850374064839,-0.0053157054916166254,
0.12064837905236908,0.012239464048012653,
0.12069825436408978,0.019481146986683136,
0.12074812967581047,0.009423745261203431,
0.12079800498753117,0.01802020231372454,
0.12084788029925186,0.007061396583935383,
0.12089775561097257,-0.02543452220700501,
0.12094763092269327,-0.00044396219119868666,
0.12099750623441397,0.026596051752848127,
0.12104738154613466,-0.010354252124296658,
0.12109725685785536,-0.0056877757845022305,
0.12114713216957607,-0.010883204219708302,
0.12119700748129676,-0.015652633111002852,
0.12124688279301746,0.025557688962604505,
0.12129675810473815,-0.01257317451581956,
0.12134663341645885,-0.011448835252259273,
0.12139650872817954,-0.002638563375182226,
0.12144638403990025,-0.004675773714671005,
0.12149625935162095,0.00930868958330685,
0.12154613466334165,-0.012641799763519302,
0.12159600997506234,0.008568145075052968,
0.12164588528678304,-0.026189611709249203,
0.12169576059850375,-0.02118683913514313,
0.12174563591022444,0.018508454012204224,
0.12179551122194514,-0.012479143576480112,
0.12184538653366583,-0.00439195689730725,
0.12189526184538653,0.012029762678354754,
0.12194513715710723,0.013379116387121177,
0.12199501246882793,-0.0052870826380974345,
0.12204488778054863,-0.002985680234239778,
0.12209476309226933,0.014779750901667615,
0.12214463840399002,-0.0005614139822695441,
0.12219451371571072,-0.012082691368885965,
0.12224438902743143,-0.010606641804170557,
0.12229426433915212,-0.02995911874491582,
0.12234413965087282,0.010337402116963297,
0.12239401496259351,-0.0047006746185549435,
0.12244389027431421,0.014554771420121737,
0.12249376558603492,0.02195955320956671,
0.12254364089775562,-0.009225444239147625,
0.12259351620947631,-0.005223539541651849,
0.122643391521197,0.0034119781005012718,
0.1226932668329177,-0.011224480862920664,
0.1227431421446384,-0.02907151602464045,
0.12279301745635911,-0.014247749460893364,
0.1228428927680798,-0.007402561771166287,
0.1228927680798005,0.008393003299624708,
0.1229426433915212,-0.012928870706523123,
0.12299251870324189,0.008733279723145977,
0.1230423940149626,-0.012912740286486531,
0.1230922693266833,-0.016764133070642707,
0.12314214463840399,0.012956643598976662,
0.12319201995012469,-0.01674029891265797,
0.12324189526184538,-0.0365324446522296,
0.12329177057356608,0.011056691276791673,
0.12334164588528679,-0.02997610828270638,
0.12339152119700748,-0.0064601876148320655,
0.12344139650872818,0.00179102663338585,
0.12349127182044888,0.010267380985330529,
0.12354114713216957,-0.007088576688399975,
0.12359102244389028,-0.032957514520440864,
0.12364089775561098,0.0018535086018791162,
0.12369077306733167,0.002987653666222955,
0.12374064837905237,-0.007857095114612694,
0.12379052369077306,-0.043341328733587856,
0.12384039900249376,-0.02913317955743798,
0.12389027431421447,-0.007043685040229178,
0.12394014962593516,0.001955458625594231,
0.12399002493765586,-0.02160469746818788,
0.12403990024937656,0.016356072185831426,
0.12408977556109725,0.013060740733980324,
0.12413965087281796,0.005134053968417767,
0.12418952618453866,-0.010350570972052012,
0.12423940149625935,0.0006269448221461037,
0.12428927680798005,-0.013766237826751362,
0.12433915211970074,-0.03582920989324639,
0.12438902743142144,0.011780220027985231,
0.12443890274314215,-0.006823359423549842,
0.12448877805486284,-0.02063145952843904,
0.12453865336658354,-0.03450277976695058,
0.12458852867830424,0.0017082524970083324,
0.12463840399002493,-0.008914466985618047,
0.12468827930174564,-0.00048502875779042436,
0.12473815461346634,-0.02608715695025291,
0.12478802992518703,-0.006392130292767162,
0.12483790523690773,0.004985421520577921,
0.12488778054862842,0.002178526336274758,
0.12493765586034913,-0.008455610154272116,
0.12498753117206983,-0.018465724519462802,
0.12503740648379053,-0.042159463640632125,
0.12508728179551123,-0.014242769420986411,
0.12513715710723192,-0.02376279599132165,
0.12518703241895263,-0.014985653459145664,
0.1252369077306733,-0.008298958981777366,
0.12528678304239402,-0.007639818701425867,
0.1253366583541147,-0.03356073823408807,
0.1253865336658354,-0.009230535614586345,
0.12543640897755612,-0.02365631688249277,
0.1254862842892768,-0.006502464939920438,
0.1255361596009975,-0.01498244440445252,
0.1255860349127182,-0.006003877027890502,
0.1256359102244389,-0.012746286067593893,
0.1256857855361596,0.008051682947161645,
0.1257356608478803,-0.020141405590619374,
0.125785536159601,-0.018622839403396846,
0.12583541147132168,0.014033708803394725,
0.1258852867830424,-0.020828845638457237,
0.1259351620947631,0.006060776890947981,
0.12598503740648379,-0.01699248245714316,
0.1260349127182045,0.0017980053116020828,
0.12608478802992518,-0.0056199537654370284,
0.1261346633416459,0.0010246204918457798,
0.1261845386533666,-0.020629707598828657,
0.12623441396508728,0.01503727951062744,
0.126284289276808,-0.0022313622094780466,
0.12633416458852867,-0.029205682692748095,
0.12638403990024938,0.00023271568527202628,
0.1264339152119701,-0.021074167450753287,
0.12648379052369077,0.03109333155933458,
0.12653366583541148,-0.04235826073828608,
0.12658354114713216,-0.018366974402947427,
0.12663341645885287,0.012850777570297138,
0.12668329177057355,0.0008306698371517707,
0.12673316708229426,-0.019402354412139642,
0.12678304239401497,-0.012974124178933299,
0.12683291770573565,-0.002400488627000416,
0.12688279301745636,0.004243861439396044,
0.12693266832917705,0.010075977228505385,
0.12698254364089775,-3.640663894347203e-05,
0.12703241895261846,-0.011454844135520004,
0.12708229426433915,-0.0059955999979838664,
0.12713216957605986,-0.0027626450320500156,
0.12718204488778054,-0.02867281724218569,
0.12723192019950125,-0.00333702401657308,
0.12728179551122196,-0.017798334165989697,
0.12733167082294264,0.002900572815022524,
0.12738154613466335,-0.016454893737797738,
0.12743142144638403,-0.010374549228281876,
0.12748129675810474,-0.006801919765176209,
0.12753117206982545,-0.00834272434657344,
0.12758104738154613,-2.9642628137298115e-05,
0.12763092269326684,-0.010511580469673362,
0.12768079800498752,0.0015196094329663267,
0.12773067331670823,-0.029230579852606665,
0.1277805486284289,-0.018268966342940236,
0.12783042394014962,-0.0026088301901842355,
0.12788029925187033,-0.022131976264757026,
0.12793017456359101,0.003934845960189807,
0.12798004987531172,-0.027759353573593302,
0.1280299251870324,0.017475270696047075,
0.12807980049875312,0.010940528719805696,
0.12812967581047383,0.0026130445069228354,
0.1281795511221945,-0.007822592912925322,
0.12822942643391522,0.007498226143186777,
0.1282793017456359,0.010774589941005391,
0.1283291770573566,-0.01391749064009851,
0.12837905236907732,-0.001750720986915411,
0.128428927680798,0.014419241012975568,
0.1284788029925187,-0.010259751852203227,
0.1285286783042394,0.010889005013380115,
0.1285785536159601,0.010601681610060627,
0.1286284289276808,-0.014296729357679592,
0.1286783042394015,-0.0035328007079522186,
0.1287281795511222,-0.005813805457288865,
0.12877805486284288,0.005751212836132568,
0.1288279301745636,-0.005686870258715108,
0.1288778054862843,0.03742487310081402,
0.12892768079800498,0.0035364181476410317,
0.1289775561097257,0.009984627657185679,
0.12902743142144638,-0.0026784028020770158,
0.12907730673316709,-0.0007644143564010603,
0.12912718204488777,0.013142308556486362,
0.12917705735660848,0.012894875298277333,
0.1292269326683292,0.0016283231044999873,
0.12927680798004987,0.017118392328036858,
0.12932668329177058,0.013492909459449188,
0.12937655860349126,-0.022936703071252746,
0.12942643391521197,0.004668543204137407,
0.12947630922693268,0.0011241428869206496,
0.12952618453865336,0.0068506930340472,
0.12957605985037407,-0.0345129196863475,
0.12962593516209475,0.016403707588031287,
0.12967581047381546,0.030817470197189705,
0.12972568578553617,-0.0054759222296438745,
0.12977556109725685,0.007082029006945701,
0.12982543640897756,0.007827348522092426,
0.12987531172069824,0.02069946861665105,
0.12992518703241895,0.03339690339214681,
0.12997506234413966,0.03103142416908891,
0.13002493765586035,0.02725221904245482,
0.13007481296758105,0.03893606129873887,
0.13012468827930174,-0.006751229111271446,
0.13017456359102245,0.0033559894710056765,
0.13022443890274316,0.01308718732833002,
0.13027431421446384,0.01762370242591052,
0.13032418952618455,0.013472112594281795,
0.13037406483790523,0.02296160307258955,
0.13042394014962594,0.004489597488999511,
0.13047381546134662,0.00908679912457251,
0.13052369077306733,0.01531791050333001,
0.13057356608478804,0.022290651082046815,
0.13062344139650872,0.01579817749663734,
0.13067331670822943,0.00431311646801379,
0.1307231920199501,0.0425944341640106,
0.13077306733167082,0.010307271223914023,
0.13082294264339153,0.0014119579865330256,
0.13087281795511221,0.03704847383121329,
0.13092269326683292,0.011046823976530139,
0.1309725685785536,0.014570103095861956,
0.13102244389027431,0.02179845825145884,
0.13107231920199502,0.028644439978310326,
0.1311221945137157,0.0037324824400154118,
0.13117206982543642,0.024867268924494226,
0.1312219451371571,0.03958857764359938,
0.1312718204488778,-0.007424624024059426,
0.13132169576059852,0.012099407268034514,
0.1313715710723192,0.019282609576744974,
0.1314214463840399,0.008428592894365712,
0.1314713216957606,0.03371718904939481,
0.1315211970074813,0.02440117427485665,
0.13157107231920198,0.018134382991124236,
0.1316209476309227,0.022343964371404543,
0.1316708229426434,0.0029699083575064934,
0.13172069825436408,0.0170176273574474,
0.1317705735660848,0.012405140617674932,
0.13182044887780547,-0.014762995563822053,
0.13187032418952618,0.03924090073760166,
0.1319201995012469,0.02799840007025768,
0.13197007481296757,0.034472313545286536,
0.13201995012468828,0.019002660344353682,
0.13206982543640897,0.02192721043795881,
0.13211970074812968,0.038681952606526196,
0.13216957605985039,0.015467659565947235,
0.13221945137157107,0.03766495542466999,
0.13226932668329178,0.03580806935724276,
0.13231920199501246,0.03631262839149401,
0.13236907730673317,0.0036534290678058093,
0.13241895261845388,0.03905321210291984,
0.13246882793017456,0.050290420345875324,
0.13251870324189527,0.010859413490972565,
0.13256857855361595,0.04064136524433983,
0.13261845386533666,0.03623893087081612,
0.13266832917705737,0.03250191845990158,
0.13271820448877805,0.022903519451561334,
0.13276807980049876,0.04780159823916179,
0.13281795511221944,0.0170947279577116,
0.13286783042394015,0.0355600334446787,
0.13291770573566083,0.03322810525426205,
0.13296758104738154,0.04213898566418403,
0.13301745635910225,0.029871437283421193,
0.13306733167082294,0.037633819287549705,
0.13311720698254365,0.029502957668496237,
0.13316708229426433,0.0009587642175921708,
0.13321695760598504,-0.0012217052043061172,
0.13326683291770575,0.02374505007523872,
0.13331670822942643,0.025952559754758874,
0.13336658354114714,0.01794455759239278,
0.13341645885286782,0.04855707882226257,
0.13346633416458853,0.03385158699446115,
0.13351620947630924,0.026558203432840134,
0.13356608478802992,0.0355630229675594,
0.13361596009975063,0.012787197104638385,
0.1336658354114713,0.021123627954823553,
0.13371571072319202,0.04246214940816676,
0.13376558603491273,0.024636238411773422,
0.1338154613466334,0.04759013566753495,
0.13386533665835412,0.047251319989211615,
0.1339152119700748,0.019804897555988292,
0.13396508728179551,0.03527812173978715,
0.1340149625935162,0.012540082482079475,
0.1340648379052369,0.030281603690224316,
0.13411471321695762,0.036067378413089254,
0.1341645885286783,0.051676625919310985,
0.134214463840399,0.03267853611006932,
0.1342643391521197,0.0021981659533486034,
0.1343142144638404,0.04167613778880978,
0.1343640897755611,0.03803169558788706,
0.1344139650872818,0.017494768994972168,
0.1344638403990025,0.015109545491768562,
0.13451371571072318,0.04642965359303387,
0.1345635910224439,0.02731669265068737,
0.1346134663341646,0.048420991847794206,
0.13466334164588528,0.028253345397223257,
0.134713216957606,0.041609348424143267,
0.13476309226932667,0.063032812673763,
0.13481296758104738,0.044303618528656274,
0.1348628428927681,0.034879185995054025,
0.13491271820448877,0.0446435003730772,
0.13496259351620948,0.03480467366655819,
0.13501246882793017,0.020912025128897685,
0.13506234413965088,0.052230204481857015,
0.13511221945137158,0.01083456328402076,
0.13516209476309227,0.025867733394222294,
0.13521197007481298,0.03845455780150118,
0.13526184538653366,0.03501592105711322,
0.13531172069825437,0.029022141059818807,
0.13536159600997505,0.027612355125112467,
0.13541147132169576,0.04202834586086319,
0.13546134663341647,0.019720814251283254,
0.13551122194513715,0.02833494102567449,
0.13556109725685786,-0.0004208272757698396,
0.13561097256857854,0.03813056395864288,
0.13566084788029925,0.00234591410681154,
0.13571072319201996,0.015301884032629777,
0.13576059850374064,0.03928353354775306,
0.13581047381546135,-0.005831704366504757,
0.13586034912718203,0.035917774011803155,
0.13591022443890274,0.07400951413217345,
0.13596009975062345,0.029985428332586314,
0.13600997506234414,0.05617544211907234,
0.13605985037406484,0.0038467803431996746,
0.13610972568578553,0.04932162810962239,
0.13615960099750624,0.05140469780251681,
0.13620947630922695,0.018790960926374084,
0.13625935162094763,0.04781979878760889,
0.13630922693266834,0.04936593123025714,
0.13635910224438902,0.03246895142968291,
0.13640897755610973,0.04248035316972586,
0.1364588528678304,0.028583227388914986,
0.13650872817955112,0.005648094859474432,
0.13655860349127183,0.040182689429196915,
0.1366084788029925,0.027128695717101463,
0.13665835411471322,0.008114379493590392,
0.1367082294264339,0.010897798661324176,
0.1367581047381546,0.018096938997260247,
0.13680798004987532,-0.008172687397491094,
0.136857855361596,0.03617623584409143,
0.1369077306733167,0.03669075242459239,
0.1369576059850374,0.009208844494863873,
0.1370074812967581,0.019246769130073657,
0.13705735660847881,0.03683167507629773,
0.1371072319201995,0.039278478772043,
0.1371571072319202,0.03013126731824485,
0.1372069825436409,0.023874759280215662,
0.1372568578553616,0.024176564838072876,
0.1373067331670823,0.01802183418545199,
0.137356608478803,0.016091423741263395,
0.1374064837905237,0.03235227021114147,
0.13745635910224438,0.02042817425851421,
0.1375062344139651,-0.021083708220187482,
0.1375561097256858,0.041206306793169986,
0.13760598503740648,0.04026069252345759,
0.1376558603491272,0.033423017529867864,
0.13770573566084787,0.01960566652624837,
0.13775561097256858,0.034480010915737457,
0.13780548628428926,0.009600996572975978,
0.13785536159600997,0.032460314706093576,
0.13790523690773068,0.027596343197176,
0.13795511221945136,0.0178223318726231,
0.13800498753117207,0.01635054367468787,
0.13805486284289276,0.01618389164300737,
0.13810473815461347,0.015503646405038426,
0.13815461346633418,0.019014141601764116,
0.13820448877805486,-0.01707992380610717,
0.13825436408977557,0.024600387955852655,
0.13830423940149625,0.04443412141830941,
0.13835411471321696,0.006151852472545504,
0.13840399002493767,0.0015232030537824688,
0.13845386533665835,0.005413148147070147,
0.13850374064837906,0.02623134336318269,
0.13855361596009974,0.012982764026240635,
0.13860349127182045,0.03744749063076055,
0.13865336658354116,0.033845968470373994,
0.13870324189526184,0.03158116104406662,
0.13875311720698255,0.002925554669890699,
0.13880299251870323,0.02877455502897673,
0.13885286783042394,0.0489022585198987,
0.13890274314214462,0.03286741481884536,
0.13895261845386533,0.015153780774262748,
0.13900249376558604,0.022234474090086435,
0.13905236907730673,0.032446027608316504,
0.13910224438902744,-0.003343974529222667,
0.13915211970074812,0.010194849956832742,
0.13920199501246883,0.03689238101860932,
0.13925187032418954,0.02467957357341946,
0.13930174563591022,0.006018432031376071,
0.13935162094763093,0.027445574822964218,
0.1394014962593516,0.0217396815845017,
0.13945137157107232,-0.00865714655460035,
0.13950124688279303,0.02293960402513616,
0.1395511221945137,0.009088903206232186,
0.13960099750623442,0.014701927075208829,
0.1396508728179551,-0.007991044214727525,
0.1397007481296758,0.0032677776242972054,
0.13975062344139652,0.0011662935367416447,
0.1398004987531172,0.01643504562119308,
0.1398503740648379,-0.0036495080230181057,
0.1399002493765586,0.032165114351745495,
0.1399501246882793,0.0003495636946061337,
0.14,0.02641947005761454,
0.1400498753117207,0.004353433645940591,
0.1400997506234414,-0.03382742196600465,
0.1401496259351621,0.02098287565450633,
0.1401995012468828,0.0037735979650567655,
0.14024937655860348,-0.001380528191114505,
0.1402992518703242,0.02285444105921029,
0.1403491271820449,-0.003229376180331164,
0.14039900249376558,0.011344913039540848,
0.1404488778054863,0.011263390323889823,
0.14049875311720697,0.02002518618192179,
0.14054862842892768,0.022646115515094663,
0.1405985037406484,0.015155307062340393,
0.14064837905236907,0.00019335818612600374,
0.14069825436408978,0.0371625392647487,
0.14074812967581046,-0.00911679457582446,
0.14079800498753117,0.05412500777147453,
0.14084788029925188,0.011545284135729937,
0.14089775561097256,0.013770752867073629,
0.14094763092269327,0.015199882636808118,
0.14099750623441396,-0.001646490428370972,
0.14104738154613466,-0.031328340188863706,
0.14109725685785537,0.0029974470205721823,
0.14114713216957606,-0.006120544430368629,
0.14119700748129677,0.01580979840820366,
0.14124688279301745,0.008528632971291729,
0.14129675810473816,0.026349864247633276,
0.14134663341645887,-0.018377945229561588,
