time,amplitude,label
0.0,0.029371033382976062,
4.987531172069826e-05,0.03544327375471411,
9.975062344139652e-05,0.0491069704781497,
0.00014962593516209475,0.017119373950377704,
0.00019950124688279303,0.01626404383153442,
0.00024937655860349125,0.01090644179918768,
0.0002992518703241895,-0.01566047725417252,
0.00034912718204488776,-0.0011453559081580668,
0.00039900249376558606,0.03189681130852154,
0.0004488778054862843,0.0154985995070682,
0.0004987531172069825,0.021295111401013027,
0.0005486284289276808,0.011585952746548221,
0.000598503740648379,0.007543448783550113,
0.0006483790523690773,0.013593248224843923,
0.0006982543640897755,-0.007644175162233011,
0.0007481296758104738,0.0036966422215987914,
0.0007980049875311721,0.03541496489291952,
0.0008478802992518703,0.018801320718690482,
0.0008977556109725686,0.029224608707363927,
0.0009476309226932668,0.012817226089710324,
0.000997506234413965,0.019009812721340995,
0.0010473815461346633,0.016938977051267137,
0.0010972568578553616,0.004256857183786999,
0.00114713216957606,0.0024754355759203546,
0.001197007481296758,0.0391879922399337,
0.0012468827930174563,0.0180185827892771,
0.0012967581047381546,0.030207348917993558,
0.001346633416458853,0.011485935337932525,
0.001396508728179551,0.01695907467786053,
0.0014463840399002493,0.01693337650036926,
0.0014962593516209476,0.02577542343823863,
0.001546134663341646,0.006057036102533071,
0.0015960099750623442,0.013460795562654414,
0.0016458852867830423,0.027243962632902668,
0.0016957605985037406,0.034489194120891374,
0.001745635910224439,0.02408703452670169,
0.0017955112219451373,0.027361878670544276,
0.0018453865336658353,0.011114633239717751,
0.0018952618453865336,0.00939733236658091,
0.001945137157107232,0.014845163675898542,
0.00199501246882793,0.03329737965137693,
0.0020448877805486283,0.030501404822766802,
0.0020947630922693266,0.014338368615628868,
0.002144638403990025,0.014762030755436223,
0.0021945137157107233,0.025164074591927953,
0.0022443890274314216,0.025476445823726473,
0.00229426433915212,0.00729011233402904,
0.0023441396508728177,0.00980248396371126,
0.002394014962593516,0.02955691083718726,
0.0024438902743142144,0.03274533225549871,
0.0024937655860349127,0.00541456963072412,
0.002543640897755611,0.011633620117732925,
0.0025935162094763093,0.023075410755473993,
0.0026433915211970076,0.0005605057743609254,
0.002693266832917706,-0.0022774673899901426,
0.002743142144638404,0.029712281343950195,
0.002793017456359102,0.004456615943310316,
0.0028428927680798004,0.034644854906088145,
0.0028927680798004987,0.009016205694981218,
0.002942643391521197,0.035609115081591675,
0.0029925187032418953,-0.010857539277363014,
0.0030423940149625936,0.022755180390795313,
0.003092269326683292,0.013587986627533043,
0.00314214463840399,0.040677360025312574,
0.0031920199501246885,0.007382454411807788,
0.0032418952618453864,-0.013453918487225179,
0.0032917705735660847,0.03080394225844403,
0.003341645885286783,0.005940081516637122,
0.0033915211970074813,0.02906333389107062,
0.0034413965087281796,0.0031288980122256213,
0.003491271820448878,0.014798174784839664,
0.003541147132169576,0.03667698484821223,
0.0035910224438902745,0.02701602231891121,
0.0036408977556109724,0.008701698012889919,
0.0036907730673316707,0.02903434976087637,
0.003740648379052369,-0.0008409202953851818,
0.0037905236907730673,0.0236839900960209,
0.0038403990024937656,0.020922979176186608,
0.003890274314214464,0.030903861976001003,
0.003940149625935162,0.015810822343664148,
0.00399002493765586,0.004652091936425835,
0.004039900249376558,0.0016392210153603308,
0.004089775561097257,0.038838150223582404,
0.004139650872817955,-0.002370230864699903,
0.004189526184538653,-0.0029774664950438096,
0.004239401496259352,0.009736982952653406,
0.00428927680798005,0.02197691748762316,
0.004339152119700748,0.016374501080239395,
0.0043890274314214465,0.007700504518695897,
0.004438902743142145,0.01631157837868335,
0.004488778054862843,0.025309657116512216,
0.004538653366583541,0.011891136389862762,
0.00458852867830424,0.012680321445850273,
0.004638403990024938,0.025247548829004443,
0.0046882793017456355,0.018006165972021773,
0.004738154613466334,0.0025472326421482746,
0.004788029925187032,0.032239587422479704,
0.00483790523690773,-0.013069373025363549,
0.004887780548628429,0.026849978973996217,
0.004937655860349127,0.001075555560447884,
0.004987531172069825,0.04034621126866944,
0.005037406483790524,0.018628193393025985,
0.005087281795511222,0.025614916853125103,
0.00513715710723192,0.0027969250499603254,
0.0051870324189526185,0.020891037351309816,
0.005236907730673317,-0.005628230488392725,
0.005286783042394015,-0.012767524646050146,
0.0053366583541147134,0.017603833093838138,
0.005386533665835412,0.006623906970360951,
0.00543640897755611,0.0054968048861996285,
0.005486284289276808,-0.01116018258966855,
0.005536159600997507,-0.006235689371061864,
0.005586034912718204,0.009270707535388348,
0.005635910224438902,0.009617975126759312,
0.005685785536159601,-0.01393435228283299,
0.005735660847880299,-0.0011212648937744306,
0.005785536159600997,0.02923863346863636,
0.005835411471321696,0.005756701652055291,
0.005885286783042394,-0.005470635370115988,
0.005935162094763092,0.014680331267599833,
0.0059850374064837905,0.007394640937697473,
0.006034912718204489,-0.0071331665611538,
0.006084788029925187,-0.017585034004809753,
0.0061346633416458855,0.0036848878589362667,
0.006184538653366584,-0.024157072624222575,
0.006234413965087282,0.020754608890053438,
0.00628428927680798,0.03823291428901773,
0.006334164588528679,-0.014970385854013968,
0.006384039900249377,0.01690468893066743,
0.006433915211970074,0.016672384491176997,
0.006483790523690773,-0.030554006365013854,
0.006533665835411471,-0.02299864348807782,
0.006583541147132169,0.007642705546035447,
0.006633416458852868,-0.0028704884088755736,
0.006683291770573566,0.0068726990929842925,
0.006733167082294264,-0.012103972551199126,
0.0067830423940149626,-0.013327582603831949,
0.006832917705735661,-0.0072978323218705786,
0.006882793017456359,-0.0006662495586256065,
0.0069326683291770575,0.008028930554999935,
0.006982543640897756,-0.0013864210371668092,
0.007032418952618454,0.00658202554408225,
0.007082294264339152,-0.00421903867320433,
0.007132169576059851,0.0034023024496373537,
0.007182044887780549,-0.0033829396919303465,
0.007231920199501247,0.019867611414210014,
0.007281795511221945,-0.007862276959922254,
0.007331670822942643,-0.007646383328481809,
0.007381546134663341,0.01137211634434934,
0.00743142144638404,0.010407661510804385,
0.007481296758104738,-0.012123663204699042,
0.007531172069825436,0.02427172928916397,
0.007581047381546135,0.014756553504545859,
0.007630922693266833,-0.01685275921966388,
0.007680798004987531,-0.003486101350968717,
0.0077306733167082295,-0.027363049809585507,
0.007780548628428928,-0.007189246787850382,
0.007830423940149626,0.008643457487152471,
0.007880299251870324,-0.004960375064093252,
0.007930174563591023,-0.03533209613081941,
0.00798004987531172,-0.02035644301565303,
0.00802992518703242,-0.01550130815049162,
0.008079800498753117,-0.021924769526982003,
0.008129675810473816,0.016194356388509884,
0.008179551122194513,0.00026899473264039436,
0.008229426433915213,-0.022895769197284047,
0.00827930174563591,0.0022121273104625215,
0.00832917705735661,0.017314336974263198,
0.008379052369077307,-0.007729420471055722,
0.008428927680798006,-0.039956248965076435,
0.008478802992518703,-0.020971312186462362,
0.0085286783042394,0.017269657162365372,
0.0085785536159601,-0.02524878937348906,
0.008628428927680797,-0.02360634934877836,
0.008678304239401496,-0.009403285093332419,
0.008728179551122194,-0.012975027550292968,
0.008778054862842893,0.016451216971251337,
0.00882793017456359,-0.010999176920409793,
0.00887780548628429,-0.00020476773282816947,
0.008927680798004987,0.009981371886011937,
0.008977556109725686,-0.002566656249992817,
0.009027431421446384,-0.007614654372303478,
0.009077306733167083,-0.0034508872907144297,
0.00912718204488778,-0.003837121646472338,
0.00917705735660848,-0.02544712561801841,
0.009226932668329177,-0.02507940390021307,
0.009276807980049876,-0.0017644037366620884,
0.009326683291770574,-0.01106590903097314,
0.009376558603491271,-0.010691506968077854,
0.00942643391521197,-0.027594169889251827,
0.009476309226932668,-0.02434587331727093,
0.009526184538653367,-0.028199589178502626,
0.009576059850374064,-0.015260544186575065,
0.009625935162094763,-0.013131880759191963,
0.00967581047381546,-0.01658706052108038,
0.00972568578553616,-0.02282319793431025,
0.009775561097256857,-0.019305521885429534,
0.009825436408977557,-0.01797535427865059,
0.009875311720698254,-0.03360611873406645,
0.009925187032418953,-0.013571585001198233,
0.00997506234413965,-0.023524696862877295,
0.01002493765586035,-0.02356228882018103,
0.010074812967581047,-0.031936958876820944,
0.010124688279301746,-0.0166248096279752,
0.010174563591022444,-0.005625654472399367,
0.010224438902743141,0.00033714634812103544,
0.01027431421446384,-0.006137279479501658,
0.010324189526184538,-0.030964997882564682,
0.010374064837905237,-0.014192669503605954,
0.010423940149625935,-0.03020145335768396,
0.010473815461346634,-0.008851120212035471,
0.010523690773067331,-0.03846492241200362,
0.01057356608478803,-0.011148040419969482,
0.010623441396508728,-0.03239348547092156,
0.010673316708229427,-0.045471806726884764,
0.010723192019950124,-0.008850334344891743,
0.010773067331670824,0.0072459378409452345,
0.010822942643391521,-0.014831330503145293,
0.01087281795511222,-0.02777001008691926,
0.010922693266832918,-0.032405001428349234,
0.010972568578553617,-0.01880702965024663,
0.011022443890274314,-0.030646758661728682,
0.011072319201995013,-0.036118954965680364,
0.01112219451371571,-0.03577185013946267,
0.011172069825436408,-0.022612883628259705,
0.011221945137157107,0.003123944400093198,
0.011271820448877805,-0.04473077074098651,
0.011321695760598504,-0.012750533968073054,
0.011371571072319201,-0.02457031425805563,
0.0114214463840399,0.0011350929255886516,
0.011471321695760598,-0.03644033913636936,
0.011521197007481297,-0.027211776051726286,
0.011571072319201995,-0.02128042763935544,
0.011620947630922694,-0.04769702803763759,
0.011670822942643391,-0.011025564385076861,
0.01172069825436409,-0.000466543498128396,
0.011770573566084788,-0.035509744276150404,
0.011820448877805487,-0.01896052664841907,
0.011870324189526184,-0.0075919877552231806,
0.011920199501246884,-0.029742284459713,
0.011970074812967581,-0.026761525869345937,
0.012019950124688279,-0.03224973009734615,
0.012069825436408978,-0.01678643745768225,
0.012119700748129675,-0.02329249457151262,
0.012169576059850374,-0.04640782924216863,
0.012219451371571072,-0.022363076232126033,
0.012269326683291771,-0.020033701420368744,
0.012319201995012468,0.0005706382818108056,
0.012369077306733168,-0.017153249493755015,
0.012418952618453865,-0.024169861244137503,
0.012468827930174564,-0.009310130821287623,
0.012518703241895262,0.011423216601919303,
0.01256857855361596,-0.017985660854736168,
0.012618453865336658,-0.01449788102695812,
0.012668329177057357,0.003781284687160172,
0.012718204488778055,0.0030127791416973276,
0.012768079800498754,-0.014953139079874467,
0.012817955112219451,0.021375637286345797,
0.012867830423940149,-0.0200979196562692,
0.012917705735660848,-0.0030543861929866276,
0.012967581047381545,-0.0566268052682304,
0.013017456359102245,0.004258822547284432,
0.013067331670822942,-0.04525671214398741,
0.013117206982543641,-0.020861569774876073,
0.013167082294264339,0.0013175488838353,
0.013216957605985038,-0.016807240500234466,
0.013266832917705735,-0.014885664707260868,
0.013316708229426434,-0.022849969746445785,
0.013366583541147132,-0.014686170217763557,
0.013416458852867831,-0.011799792150268966,
0.013466334164588529,-0.025331311514325106,
0.013516209476309228,-0.01739228203445404,
0.013566084788029925,0.0033868970099347334,
0.013615960099750624,0.004164310023410733,
0.013665835411471322,-0.010534825956920077,
0.01371571072319202,0.019527087165947095,
0.013765586034912718,-0.0055322873445522195,
0.013815461346633416,-0.004899159946795197,
0.013865336658354115,-0.005427064679056837,
0.013915211970074812,-0.003957292817405053,
0.013965087281795512,-0.007272838138183518,
0.014014962593516209,-0.007628938671560024,
0.014064837905236908,-0.018056902208582318,
0.014114713216957606,-0.012316433772666608,
0.014164588528678305,-0.030162852205536547,
0.014214463840399002,0.019565581478803877,
0.014264339152119701,-0.0156381416038972,
0.014314214463840399,-0.0027366403906787093,
0.014364089775561098,-0.0038567083500617256,
0.014413965087281795,-0.02408472111628359,
0.014463840399002495,0.021033165579251372,
0.014513715710723192,-0.022606861602305652,
0.01456359102244389,-0.03893659813525134,
0.014613466334164589,-0.007000034362551526,
0.014663341645885286,0.017179494701080093,
0.014713216957605985,-0.00744052080906799,
0.014763092269326683,-0.02044681555804172,
0.014812967581047382,0.01259646799259564,
0.01486284289276808,0.002388303558699705,
0.014912718204488778,-0.01098512026910847,
0.014962593516209476,0.011788266059093874,
0.015012468827930175,0.004152449323127752,
0.015062344139650873,0.0009343449036248062,
0.015112219451371572,0.004850287831546754,
0.01516209476309227,0.03300879168762405,
0.015211970074812968,-0.03040920763883872,
0.015261845386533666,0.0067722587236519445,
0.015311720698254365,0.020945391563971898,
0.015361596009975062,-0.03337125566477242,
0.01541147132169576,0.023725138770231708,
0.015461346633416459,-0.0066851176188281935,
0.015511221945137156,-0.03172317398181674,
0.015561097256857856,-0.0018418964121144194,
0.015610972568578553,-0.030901345228455127,
0.015660847880299252,-0.022407876131277735,
0.01571072319201995,0.0027435560393655233,
0.015760598503740647,0.012460462879856912,
0.015810473815461346,0.054248651998368126,
0.015860349127182045,-0.012734712634389423,
0.015910224438902745,-0.0022452700401661228,
0.01596009975062344,-0.010382094889688748,
0.01600997506234414,0.004275537169144586,
0.01605985037406484,-0.020912991609521547,
0.016109725685785538,0.0038994783924993165,
0.016159600997506234,-0.007382354651858883,
0.016209476309226933,-0.006829052700060941,
0.016259351620947632,-0.006333490603934446,
0.016309226932668328,0.014703860312588801,
0.016359102244389027,0.01376116244286461,
0.016408977556109726,0.0079080307012258,
0.016458852867830425,0.005913117177916817,
0.01650872817955112,0.014327559061525583,
0.01655860349127182,-0.009385452699854096,
0.01660847880299252,-0.005376177364264943,
0.01665835411471322,-0.006697839511462538,
0.016708229426433914,0.023918977823600595,
0.016758104738154613,0.027853169563876536,
0.016807980049875312,0.018732280262104252,
0.01685785536159601,0.004650927753851278,
0.016907730673316707,0.02044597710065048,
0.016957605985037406,0.004829109583922328,
0.017007481296758106,-0.006010429090237766,
0.0170573566084788,0.03043451005297106,
0.0171072319201995,0.010670658996727003,
0.0171571072319202,0.012767799214470996,
0.0172069825436409,-0.023378130036856577,
0.017256857855361595,0.013162375592682633,
0.017306733167082294,-0.007470092779555173,
0.017356608478802993,-0.006228348755475014,
0.017406483790523692,0.025848807884846815,
0.017456359102244388,0.02871873055404876,
0.017506234413965087,-0.004704814095823314,
0.017556109725685786,0.0005381784988127657,
0.017605985037406485,0.014591439120776161,
0.01765586034912718,0.01404664328699368,
0.01770573566084788,0.02349509760949186,
0.01775561097256858,-0.0015093454864475286,
0.01780548628428928,0.030503761650267636,
0.017855361596009974,-0.004529476594197085,
0.017905236907730673,0.019689702220686164,
0.017955112219451373,0.013484923705062497,
0.018004987531172068,0.030713048063007897,
0.018054862842892767,0.02508336143070998,
0.018104738154613467,0.011917457436667405,
0.018154613466334166,0.009665009601041413,
0.01820448877805486,0.014301339086141273,
0.01825436408977556,0.024681907650580478,
0.01830423940149626,0.004886853447035593,
0.01835411471321696,0.02157951533631755,
0.018403990024937655,0.0198868991047493,
0.018453865336658354,0.027999519334378147,
0.018503740648379053,0.026617948637825076,
0.018553615960099752,-0.007824744059520055,
0.018603491271820448,0.006180526566389923,
0.018653366583541147,0.02630590060593058,
0.018703241895261846,0.04016973048837395,
0.018753117206982542,0.036379652628458437,
0.01880299251870324,0.02052113992881893,
0.01885286783042394,0.023546406048244428,
0.01890274314214464,0.0041593450203705855,
0.018952618453865335,0.020353630876510334,
0.019002493765586034,0.05664420131451997,
0.019052369077306733,0.03110883284028082,
0.019102244389027433,-0.0009033111235182342,
0.01915211970074813,0.017419412994383217,
0.019201995012468828,0.03596161493239441,
0.019251870324189527,0.025349558183382102,
0.019301745635910226,0.008333525303107332,
0.01935162094763092,0.0014522360964448165,
0.01940149625935162,0.017039115835223998,
0.01945137157107232,0.027395148577095834,
0.01950124688279302,0.049446437283739694,
0.019551122194513715,0.020659202553637408,
0.019600997506234414,0.0019366281868159162,
0.019650872817955113,0.04937385572714603,
0.01970074812967581,0.017938303605910984,
0.019750623441396508,0.019264534738256543,
0.019800498753117207,0.027757803138506558,
0.019850374064837906,0.044999115023090994,
0.019900249376558602,0.036597129315385,
0.0199501246882793,0.021857024554286314,
0.02,0.03086007474311194,
0.0200498753117207,-0.005921673856581086,
0.020099750623441395,-0.0035085295805319695,
0.020149625935162094,0.029549944558908574,
0.020199501246882794,0.026560383882689137,
0.020249376558603493,0.019153103236367628,
0.02029925187032419,0.012752960736044336,
0.020349127182044888,0.03475331280646147,
0.020399002493765587,0.03920236194485702,
0.020448877805486283,-0.010801753819180613,
0.02049875311720698,0.018515364741059203,
0.02054862842892768,0.04793612348825915,
0.02059850374064838,-0.003740372170526189,
0.020648379052369076,0.03687030440088214,
0.020698254364089775,0.028314395739895647,
0.020748129675810474,0.041917575733769474,
0.020798004987531173,0.03368959201895101,
0.02084788029925187,0.02863080515812273,
0.020897755610972568,0.012059958531581845,
0.020947630922693267,-0.012827225437144957,
0.020997506234413967,0.02453990707084418,
0.021047381546134662,0.02258375771924808,
0.02109725685785536,0.019026787639654683,
0.02114713216957606,0.006907425472952811,
0.02119700748129676,0.01910975527475187,
0.021246882793017455,-0.0024376937241263816,
0.021296758104738155,0.03367100009266454,
0.021346633416458854,0.04509055735267084,
0.02139650872817955,0.018475088972278196,
0.02144638403990025,-0.0019023516657922651,
0.021496259351620948,0.04176164156744015,
0.021546134663341647,0.04191535335349829,
0.021596009975062343,0.00954542832845955,
0.021645885286783042,0.020454851255277025,
0.02169576059850374,0.019020407918428732,
0.02174563591022444,0.02270761417617799,
0.021795511221945136,0.023744696891485464,
0.021845386533665835,0.013888885582860923,
0.021895261845386534,0.014284482268551375,
0.021945137157107233,0.029722247881390898,
0.02199501246882793,0.03418098897973608,
0.02204488778054863,0.04270446185701203,
0.022094763092269327,0.010495549596161235,
0.022144638403990027,0.01251932752897738,
0.022194513715710722,-0.007701169989160109,
0.02224438902743142,-0.0005428388050498986,
0.02229426433915212,0.01632281401321577,
0.022344139650872816,0.015925319360960526,
0.022394014962593516,0.02347610737505147,
0.022443890274314215,0.015483223374603759,
0.022493765586034914,0.018748342673439923,
0.02254364089775561,0.007331784704196369,
0.02259351620947631,0.023389221340242204,
0.022643391521197008,0.030003577051503288,
0.022693266832917707,0.018152951981122455,
0.022743142144638403,0.004706340765023001,
0.022793017456359102,0.0498738058979772,
0.0228428927680798,0.021067060360250096,
0.0228927680798005,-0.004345939734249415,
0.022942643391521196,0.030052186733424694,
0.022992518703241895,0.010812857631006829,
0.023042394014962594,-0.011888328400117755,
0.02309226932668329,0.010223519241948179,
0.02314214463840399,0.030544288262804045,
0.02319201995012469,0.0029432508236608215,
0.023241895261845388,-0.010815826558151175,
0.023291770573566083,0.0101121739472723,
0.023341645885286783,0.038597585934068174,
0.02339152119700748,-0.017625692343473012,
0.02344139650872818,0.011788112184267785,
0.023491271820448877,0.012190006644144073,
0.023541147132169576,0.04116034936927613,
0.023591022443890275,0.017897745298351836,
0.023640897755610974,4.809588168577794e-05,
0.02369077306733167,0.00838970297873301,
0.02374064837905237,0.021404910107719208,
0.023790523690773068,0.006145986300854176,
0.023840399002493767,0.0006221104846916101,
0.023890274314214463,0.01695559719685512,
0.023940149625935162,0.01877280433620066,
0.02399002493765586,0.023052445474689147,
0.024039900249376557,0.002701442957584196,
0.024089775561097256,0.0053676855289323255,
0.024139650872817955,0.008874545996500473,
0.024189526184538655,0.00785424487160492,
0.02423940149625935,0.004513623563816875,
0.02428927680798005,0.00726174797524383,
0.02433915211970075,-0.0023778082679611883,
0.024389027431421448,0.023829293609191875,
0.024438902743142144,0.020128481056580393,
0.024488778054862843,0.018449484846883576,
0.024538653366583542,0.023815979623545612,
0.02458852867830424,0.04163558286898259,
0.024638403990024937,0.002035541563576035,
0.024688279301745636,0.022112183314323068,
0.024738154613466335,-0.027212106239662845,
0.02478802992518703,-0.01711669432722201,
0.02483790523690773,0.005838196300430538,
0.02488778054862843,0.01854500269380753,
0.02493765586034913,0.013358238966676182,
0.024987531172069824,0.013681288105517352,
0.025037406483790523,0.0048967256101500895,
0.025087281795511222,-0.0010280683083500105,
0.02513715710723192,0.002983976931166874,
0.025187032418952617,0.013333230630795044,
0.025236907730673316,0.03426887176374522,
0.025286783042394016,-0.011980783946882831,
0.025336658354114715,0.004666924275559151,
0.02538653366583541,0.015528417176552834,
0.02543640897755611,0.0330235362236839,
0.02548628428927681,0.004191403836970737,
0.025536159600997508,-0.00885212248393244,
0.025586034912718204,0.019747088442773345,
0.025635910224438903,-0.001121294500601353,
0.025685785536159602,0.009542118409144016,
0.025735660847880298,0.025573331126535377,
0.025785536159600997,-0.030456572982156687,
0.025835411471321696,-0.0033797615352930644,
0.025885286783042395,0.026895915533879954,
0.02593516209476309,-0.016930736307326312,
0.02598503740648379,0.014088795595190048,
0.02603491271820449,0.007837334639627894,
0.02608478802992519,0.006257521793942941,
0.026134663341645884,0.01870735836582217,
0.026184538653366583,-0.021154962503271677,
0.026234413965087282,0.004915151222200176,
0.02628428927680798,-0.012042447849206862,
0.026334164588528677,-0.011003982320716126,
0.026384039900249377,-0.015828360075331133,
0.026433915211970076,0.006644656376781699,
0.02648379052369077,0.004307125605765501,
0.02653366583541147,0.016465265636703967,
0.02658354114713217,0.021232040885129855,
0.02663341645885287,0.013061532344446913,
0.026683291770573565,0.005624533127812721,
0.026733167082294264,0.011378555083333745,
0.026783042394014963,-0.010985948458211018,
0.026832917705735662,-0.0026872222128451885,
0.026882793017456358,-0.009483411537579044,
0.026932668329177057,-0.02011979904385498,
0.026982543640897756,-0.003071270069849522,
0.027032418952618455,-0.01042046433751978,
0.02708229426433915,0.0004650100222315448,
0.02713216957605985,0.009884537161508809,
0.02718204488778055,-0.005472941599219226,
0.02723192019950125,-0.015677145303417586,
0.027281795511221944,0.002216876232742417,
0.027331670822942643,0.0038779413178227275,
0.027381546134663343,-0.020815150567048184,
0.02743142144638404,-0.0058536946812344556,
0.027481296758104738,0.007319334439351096,
0.027531172069825437,-0.0034984649631317447,
0.027581047381546136,-0.011653559626137977,
0.02763092269326683,-0.002207562603654017,
0.02768079800498753,-0.00554986238337081,
0.02773067331670823,0.006550770113789867,
0.02778054862842893,-0.00237211392679382,
0.027830423940149625,0.02798286196521527,
0.027880299251870324,-0.024125719678882225,
0.027930174563591023,0.012010460340738431,
0.027980049875311722,-0.0043717605140379265,
0.028029925187032418,0.00021986261498833579,
0.028079800498753117,-0.0009957622501993273,
0.028129675810473816,-0.03537506970481418,
0.028179551122194512,-0.026633327465931996,
0.02822942643391521,-0.020899987839507216,
0.02827930174563591,-0.01141264066408848,
0.02832917705735661,-0.019138844367006462,
0.028379052369077305,-0.026964094416119522,
0.028428927680798004,0.011975495831247449,
0.028478802992518704,-0.016591642246105376,
0.028528678304239403,-0.019799725932977734,
0.0285785536159601,-0.0016982398740924259,
0.028628428927680798,-0.03444724205113997,
0.028678304239401497,0.009109990008176569,
0.028728179551122196,-0.03206128904452712,
0.02877805486284289,-0.009231650303455859,
0.02882793017456359,-0.026572783137085505,
0.02887780548628429,0.007503986484986354,
0.02892768079800499,-0.02680588953542279,
0.028977556109725685,0.014289952377952653,
0.029027431421446384,-0.02451884575956619,
0.029077306733167083,-0.024896849324825752,
0.02912718204488778,0.01848012022386251,
0.029177057356608478,-0.01034995743519707,
0.029226932668329177,-0.007135841067254895,
0.029276807980049877,-0.008865328808478849,
0.029326683291770572,-0.020334940552130157,
0.02937655860349127,-0.033357711825375676,
0.02942643391521197,-0.015934850268756295,
0.02947630922693267,-0.022552267302347384,
0.029526184538653365,-0.02099521394105578,
0.029576059850374065,-0.0036630125725499244,
0.029625935162094764,0.010289732641707202,
0.029675810473815463,-0.03764280686600863,
0.02972568578553616,-0.014318876326643143,
0.029775561097256858,-0.03765848783216522,
0.029825436408977557,-0.023983270133152185,
0.029875311720698253,0.02418820854455975,
0.029925187032418952,-0.017462923545068794,
0.02997506234413965,-0.021946410935737577,
0.03002493765586035,-0.04390927418735679,
0.030074812967581046,-0.012790194652766195,
0.030124688279301745,-0.022827784107050823,
0.030174563591022444,-0.005947279911193731,
0.030224438902743143,-0.01835424721776082,
0.03027431421446384,-0.016816618632144925,
0.03032418952618454,-0.01954252184364991,
0.030374064837905237,-0.030103921842631165,
0.030423940149625937,-0.02898937031805266,
0.030473815461346632,-0.01791013955623707,
0.03052369077306733,-0.03022222577666737,
0.03057356608478803,-0.019722565719564288,
0.03062344139650873,0.006319249526565547,
0.030673316708229426,-0.017051013905910666,
0.030723192019950125,-0.024203544514319008,
0.030773067331670824,0.00521224676938415,
0.03082294264339152,-0.01883203716707094,
0.03087281795511222,-0.010886913281978276,
0.030922693266832918,-0.03838581931310807,
0.030972568578553617,0.002246334701107803,
0.031022443890274313,-0.04046256845164008,
0.031072319201995012,-0.0435684522308612,
0.03112219451371571,-0.0377783215467874,
0.03117206982543641,-0.0036289140922037017,
0.031221945137157106,-0.015094033100862474,
0.03127182044887781,-0.03183998247069586,
0.031321695760598504,-0.023092100956933575,
0.0313715710723192,-0.04076100169745043,
0.0314214463840399,-0.011452958651220974,
0.0314713216957606,-0.004802139305916105,
0.031521197007481294,-0.025164205600541063,
0.031571072319202,-0.011053215665356544,
0.03162094763092269,-0.0031317407967098292,
0.03167082294264339,-0.012323885471347896,
0.03172069825436409,-0.005123001622461569,
0.03177057356608479,-0.022665729813131898,
0.03182044887780549,0.00802156843756396,
0.031870324189526185,-0.02102367532774474,
0.03192019950124688,-0.004966832652426725,
0.03197007481296758,-0.01317280291480698,
0.03201995012468828,-0.05116659357883439,
0.032069825436408975,0.0003989928339636836,
0.03211970074812968,-0.017766976536360942,
0.03216957605985037,0.012472141231937458,
0.032219451371571076,-0.008849942328591529,
0.03226932668329177,-0.024057162921638856,
0.03231920199501247,-0.0011401430503546073,
0.03236907730673317,-0.02436032297048949,
0.032418952618453865,-0.012591978615411982,
0.03246882793017456,-0.03268281103264366,
0.032518703241895264,-0.01428507522297835,
0.03256857855361596,-0.019652408855756424,
0.032618453865336655,0.00684787929595447,
0.03266832917705736,0.006678215825248336,
0.032718204488778053,0.014129668626196131,
0.032768079800498756,-0.02191990841068707,
0.03281795511221945,-0.016145034626079927,
0.03286783042394015,-0.007393393704456652,
0.03291770573566085,-0.0030277919594462153,
0.032967581047381546,-0.02324825980413175,
0.03301745635910224,-0.04875753561175504,
0.033067331670822944,-0.015431342101335378,
0.03311720698254364,-0.03240606547717202,
0.03316708229426434,0.009801079086490996,
0.03321695760598504,-0.013934141512653458,
0.033266832917705734,-0.029684365520607596,
0.03331670822942644,-0.0015373327671066809,
0.03336658354114713,-0.0011368275134033025,
0.03341645885286783,0.00920773091832869,
0.03346633416458853,-0.016203497557104055,
0.033516209476309226,-0.00548981639675229,
0.03356608478802992,-0.01054341775155333,
0.033615960099750625,0.01624053679309274,
0.03366583541147132,-0.017820209672899587,
0.03371571072319202,-0.01650065603334507,
0.03376558603491272,-0.014583995358482333,
0.033815461346633414,-0.024593815595283737,
0.03386533665835412,0.006044663604890411,
0.03391521197007481,0.017107705847169218,
0.03396508728179551,-0.023354863824397595,
0.03401496259351621,0.004904240058698687,
0.03406483790523691,-0.021565330897472472,
0.0341147132169576,-0.0015998586621312604,
0.034164588528678305,-0.007436933241528332,
0.034214463840399,0.020381183003739832,
0.034264339152119704,0.0008046336969098674,
0.0343142144638404,0.008192449835785863,
0.034364089775561095,0.004903651833343948,
0.0344139650872818,-0.000999752923317651,
0.03446384039900249,-0.051345593682935106,
0.03451371571072319,-0.007793146670155923,
0.03456359102244389,-0.011796249346753556,
0.03461346633416459,0.0069143865344503935,
0.03466334164588529,-0.0036040804492320573,
0.034713216957605986,-0.0102995169979011,
0.03476309226932668,-0.004495374792122362,
0.034812967581047384,-0.03219556219602007,
0.03486284289276808,-0.013376812048776734,
0.034912718204488775,-0.011946815053009052,
0.03496259351620948,-0.03112657916903927,
0.035012468827930174,0.001414215150616134,
0.03506234413965087,0.00369558376451801,
0.03511221945137157,0.0007456796302011629,
0.03516209476309227,0.02509162812326045,
0.03521197007481297,-0.00888579825543243,
0.035261845386533666,-0.02752829993842678,
0.03531172069825436,0.005991876988037395,
0.035361596009975065,0.002528132833974104,
0.03541147132169576,-0.010009658351083361,
0.035461346633416456,-0.0008465881990497933,
0.03551122194513716,-0.006688112025537171,
0.035561097256857854,0.013490384343784178,
0.03561097256857856,0.009909053241794523,
0.03566084788029925,-0.016380510591580445,
0.03571072319201995,0.010558697174034055,
0.03576059850374065,0.0253705958733236,
0.03581047381546135,-0.011955363945189005,
0.03586034912718204,0.007605263141468779,
0.035910224438902745,0.0017325390109086526,
0.03596009975062344,-0.02583669186124736,
0.036009975062344136,0.009268677980627145,
0.03605985037406484,0.010864579567933895,
0.036109725685785535,-0.0030405048136900505,
0.03615960099750624,0.0017741929907544576,
0.03620947630922693,0.013091981249783764,
0.03625935162094763,-0.015439578401781041,
0.03630922693266833,-0.022197557682620557,
0.03635910224438903,-0.001959885487311858,
0.03640897755610972,-0.03191923042810225,
0.036458852867830426,-0.013480805277735635,
0.03650872817955112,-0.0022619686874891494,
0.036558603491271824,-0.0057623315203054765,
0.03660847880299252,0.015732751192844265,
0.036658354114713215,0.006223774288471266,
0.03670822942643392,0.033334146532217335,
0.036758104738154614,0.0027253421639294533,
0.03680798004987531,0.011868207346911398,
0.03685785536159601,0.011565688371988882,
0.03690773067331671,0.006145557362346881,
0.0369576059850374,-0.013518272611189572,
0.037007481296758106,-0.0027320750675971983,
0.0370573566084788,0.005730100964242174,
0.037107231920199504,0.04692808940678994,
0.0371571072319202,0.0018063775034317187,
0.037206982543640896,-0.012793346175943911,
0.0372568578553616,-0.004270662846515293,
0.037306733167082294,-0.011822179246659039,
0.03735660847880299,0.016592516763062497,
0.03740648379052369,0.018406001038088676,
0.03745635910224439,0.030419091870536666,
0.037506234413965084,0.019160898955794665,
0.037556109725685786,0.016537859693924316,
0.03760598503740648,0.009214541893856527,
0.037655860349127185,0.024736548080838194,
0.03770573566084788,0.013452669018099762,
0.037755610972568576,0.012352458883403476,
0.03780548628428928,0.0015850018950906587,
0.037855361596009975,0.006144465521173634,
0.03790523690773067,0.021899222697086333,
0.03795511221945137,0.007435213029695709,
0.03800498753117207,0.021843354877355777,
0.03805486284289277,0.015288844917673381,
0.03810473815461347,0.03553574102734577,
0.03815461346633416,0.02456717296185331,
0.038204488778054865,0.02212285203713152,
0.03825436408977556,0.007087850207917997,
0.03830423940149626,-0.0005693395539645551,
0.03835411471321696,0.020043670037550126,
0.038403990024937655,0.005057301014981712,
0.03845386533665835,0.017533333477394438,
0.03850374064837905,0.021240053668584877,
0.03855361596009975,0.010207297827783736,
0.03860349127182045,0.028334266564178787,
0.03865336658354115,0.012933305536304835,
0.03870324189526184,0.023926359867864306,
0.038753117206982546,0.024817702006414748,
0.03880299251870324,0.04711256519532893,
0.03885286783042394,-0.003023959221311868,
0.03890274314214464,0.011111583255214868,
0.038952618453865336,0.018355294727047618,
0.03900249376558604,0.0019205967894620965,
0.039052369077306734,0.014141937675603905,
0.03910224438902743,0.029886070035624504,
0.03915211970074813,0.011687700466366534,
0.03920199501246883,0.02615886839522126,
0.039251870324189524,0.017613950762357743,
0.039301745635910226,0.02751377072077148,
0.03935162094763092,0.0188291427526337,
0.03940149625935162,0.0286096606550943,
0.03945137157107232,-0.0029515379642952658,
0.039501246882793016,0.0020360989877148024,
0.03955112219451372,0.03146076738474169,
0.039600997506234414,0.04392856141845977,
0.03965087281795511,0.037814538684054544,
0.03970074812967581,0.03550188843839422,
0.03975062344139651,0.015547290899297562,
0.039800498753117204,0.027264997601208728,
0.03985037406483791,0.00856638803370567,
0.0399002493765586,0.014184811415232389,
0.039950124688279305,0.021408744646200104,
0.04,0.04060743932642111,
0.0400498753117207,0.02237440411938512,
0.0400997506234414,0.02130096226653748,
0.040149625935162095,0.031415189449125955,
0.04019950124688279,0.02834380456686029,
0.04024937655860349,0.024955760448513775,
0.04029925187032419,0.029271754432264534,
0.040349127182044885,0.00224031686476453,
0.04039900249376559,0.04409142821316008,
0.04044887780548628,0.015603301308560708,
0.040498753117206986,0.03222860191259593,
0.04054862842892768,0.03395225709279155,
0.04059850374064838,0.008515534950432299,
0.04064837905236908,0.007113788001768925,
0.040698254364089775,0.03649265412420945,
0.04074812967581047,0.028166059046205495,
0.040798004987531174,0.02495140484393737,
0.04084788029925187,0.013661755098296313,
0.040897755610972565,0.02289061996106347,
0.04094763092269327,0.030948454188861507,
0.04099750623441396,0.039066391950162066,
0.041047381546134666,0.03711347772504948,
0.04109725685785536,0.008129893858155272,
0.04114713216957606,0.059278620563020204,
0.04119700748129676,0.019651299657593206,
0.041246882793017456,0.049348640585725856,
0.04129675810473815,0.013012048542309657,
0.041346633416458854,0.030520170036510554,
0.04139650872817955,0.030829329976715593,
0.04144638403990025,0.0029994624689665614,
0.04149625935162095,0.010270593033108765,
0.041546134663341644,0.020081118296562013,
0.04159600997506235,0.029446893224461746,
0.04164588528678304,-0.00018843766209102053,
0.04169576059850374,0.02043546093538755,
0.04174563591022444,0.021576129699652724,
0.041795511221945136,0.05059222696261163,
0.04184538653366583,0.012602462872137647,
0.041895261845386535,-0.006680245920388777,
0.04194513715710723,0.03017341467256883,
0.04199501246882793,0.03152870831341378,
0.04204488778054863,0.030472159238368657,
0.042094763092269324,0.01218440686849148,
0.04214463840399003,-0.0015401254419592017,
0.04219451371571072,0.033150605129752805,
0.04224438902743142,-0.008821138659151719,
0.04229426433915212,0.010251772363273879,
0.04234413965087282,0.022720305518165132,
0.04239401496259352,0.03651411210248701,
0.042443890274314215,0.04483239176024896,
0.04249376558603491,0.0210982733362519,
0.042543640897755614,0.0065976922042987034,
0.04259351620947631,0.032199128590168366,
0.042643391521197005,0.019731775848065933,
0.04269326683291771,0.0003985288207935707,
0.0427431421446384,0.03591317234271757,
0.0427930174563591,0.02185934103821613,
0.0428428927680798,0.04357009955471737,
0.0428927680798005,0.03239920674476705,
0.0429426433915212,0.03161779014083828,
0.042992518703241896,0.016979576436325236,
0.04304239401496259,0.025112907618276073,
0.043092269326683294,0.01442270501947626,
0.04314214463840399,0.03114427054505261,
0.043192019950124685,0.03625122121244052,
0.04324189526184539,-0.007181591528771403,
0.043291770573566084,0.02736787408313169,
0.043341645885286786,0.02770717038242688,
0.04339152119700748,0.010667659218704904,
0.04344139650872818,0.0008764417122319353,
0.04349127182044888,0.017558756076476077,
0.043541147132169576,0.011481241723024132,
0.04359102244389027,0.0038557956151918284,
0.043640897755610975,0.018620125417867686,
0.04369077306733167,0.03490844812164632,
0.043740648379052366,-0.0037598973166618546,
0.04379052369077307,-0.00022874411978935846,
0.043840399002493764,0.016197997710054837,
0.04389027431421447,0.00031998406062421283,
0.04394014962593516,0.027505305042586865,
0.04399002493765586,0.031217798483137126,
0.04403990024937656,0.004220775843250195,
0.04408977556109726,0.01807515159426385,
0.04413965087281795,0.044672297294947594,
0.044189526184538655,-0.001462169022959165,
0.04423940149625935,0.017949873254308184,
0.04428927680798005,0.012481682717953696,
0.04433915211970075,0.03590678820369596,
0.044389027431421445,0.02636343136899951,
0.04443890274314215,0.018400422591518265,
0.04448877805486284,-0.0016746757227158095,
0.04453865336658354,0.020559524856264264,
0.04458852867830424,0.026166246630570426,
0.04463840399002494,0.021339505118770304,
0.04468827930174563,0.016492253661622144,
0.044738154613466335,-0.005053067066774598,
0.04478802992518703,0.03901251679657656,
0.044837905236907734,0.026797173829339306,
0.04488778054862843,0.020482719063374108,
0.044937655860349125,0.03192932514967885,
0.04498753117206983,0.023971415377000038,
0.045037406483790524,0.01797067394617086,
0.04508728179551122,0.012796268980871871,
0.04513715710723192,0.012836747853555819,
0.04518703241895262,-0.0037197169604269303,
0.04523690773067331,0.006986546675902372,
0.045286783042394016,0.01243990640279609,
0.04533665835411471,0.013868512672106051,
0.045386533665835414,-0.0031817083535064464,
0.04543640897755611,0.0028619410163102012,
0.045486284289276806,0.012533853186963349,
0.04553615960099751,-0.009657516833335116,
0.045586034912718204,0.008968548343009588,
0.0456359102244389,0.001927853203466545,
0.0456857855361596,0.028097225789051515,
0.0457356608478803,-0.004967624653312186,
0.045785536159601,0.02202217769303232,
0.045835411471321696,-0.0008251398046213729,
0.04588528678304239,0.03953142517260688,
0.045935162094763095,0.0021665145528474844,
0.04598503740648379,-0.010601554505137948,
0.046034912718204486,0.039224984672562746,
0.04608478802992519,0.0013049608659141377,
0.046134663341645885,0.03385847745334282,
0.04618453865336658,0.013319308309465663,
0.04623441396508728,0.003939418171857602,
0.04628428927680798,-0.002596190027808083,
0.04633416458852868,-0.006290742896849291,
0.04638403990024938,0.011096949703269441,
0.04643391521197007,-0.007868108269915063,
0.046483790523690775,-0.028608408720106428,
0.04653366583541147,-0.00023826700324142591,
0.04658354114713217,0.0002014863076912456,
0.04663341645885287,0.035429883568909463,
0.046683291770573565,-0.022949866597767914,
0.04673316708229427,-0.0358812813239518,
0.04678304239401496,0.003235469453870037,
0.04683291770573566,-0.011806766836266112,
0.04688279301745636,-0.010032593747200197,
0.04693266832917706,-0.013358214370370646,
0.04698254364089775,-0.05019543715124691,
0.047032418952618456,0.023955878962776532,
0.04708229426433915,0.01429585579121322,
0.04713216957605985,0.015227280362831469,
0.04718204488778055,-0.029957783611782578,
0.047231920199501246,0.022241495513536554,
0.04728179551122195,-0.02157476367431016,
0.047331670822942644,0.002135320596272858,
0.04738154613466334,-0.031090051334433613,
0.04743142144638404,0.020618305119879287,
0.04748129675810474,0.002015248304521795,
0.047531172069825434,0.00037631921525670044,
0.047581047381546136,0.00801466336846374,
0.04763092269326683,-0.013732906221333167,
0.047680798004987535,0.001106830829005168,
0.04773067331670823,0.02143133899809499,
0.047780548628428926,-0.01129222139792077,
0.04783042394014963,-0.013823570816317732,
0.047880299251870324,-0.021243166359329227,
0.04793017456359102,-0.02744849742757171,
0.04798004987531172,-0.016316452686203162,
0.04802992518703242,-0.00628793859728187,
0.048079800498753114,-0.017765634092996398,
0.04812967581047382,0.0006942680023042345,
0.04817955112219451,0.0068125202059864595,
0.048229426433915215,0.004427843011360975,
0.04827930174563591,-0.015990862433439827,
0.048329177057356607,-0.02013938271257996,
0.04837905236907731,-0.0188067408246575,
0.048428927680798005,-0.022036160124208556,
0.0484788029925187,-0.022702860307821086,
0.0485286783042394,0.002080981460816556,
0.0485785536159601,0.012243748334337903,
0.048628428927680795,-0.013856288516913494,
0.0486783042394015,-0.0038050536064375036,
0.04872817955112219,-0.034400251776754515,
0.048778054862842896,-0.012029586473052238,
0.04882793017456359,-0.013757162657415153,
0.04887780548628429,-0.038175101221173735,
0.04892768079800499,-0.0056460059465593855,
0.048977556109725685,-0.014702940727435472,
0.04902743142144638,0.001773459922010166,
0.049077306733167084,-0.019383952913348903,
0.04912718204488778,-0.026693380554400993,
0.04917705735660848,-0.005862304079431767,
0.04922693266832918,-0.010736001518988358,
0.04927680798004987,-0.022081093370840396,
0.049326683291770576,-0.0330274157485618,
0.04937655860349127,-0.0064296168188559735,
0.04942643391521197,0.016485431489236153,
0.04947630922693267,-0.004896771019712597,
0.049526184538653366,-0.023132227792669432,
0.04957605985037406,-0.005752647918698027,
0.049625935162094764,8.723683213099874e-05,
0.04967581047381546,0.024833279362706767,
0.04972568578553616,0.001881545860547451,
0.04977556109725686,0.003153596144978019,
0.049825436408977554,-0.025673081170077723,
0.04987531172069826,-0.018932394025997758,
0.04992518703241895,-0.009863521947385906,
0.04997506234413965,0.00877609885860208,
0.05002493765586035,0.04392294078281259,
0.050074812967581046,-0.0160840372841639,
0.05012468827930175,-0.030105447644104964,
0.050174563591022445,-0.008204781374647141,
0.05022443890274314,-0.022181997620586223,
0.05027431421446384,0.01002248634052036,
0.05032418952618454,-0.012517206356962445,
0.050374064837905234,0.0057671824235525915,
0.05042394014962594,-0.008544103389131205,
0.05047381546134663,-0.007896514150462159,
0.05052369077306733,-0.02720282332571107,
0.05057356608478803,-0.010221893273248952,
0.05062344139650873,-0.006655760325243365,
0.05067331670822943,-0.004656426087267905,
0.050723192019950125,-0.02467285164237709,
0.05077306733167082,-0.03300712578635388,
0.050822942643391524,-0.00014517944560865637,
0.05087281795511222,0.005015990757216454,
0.050922693266832915,-0.017234926682532136,
0.05097256857855362,-0.012666326270754816,
0.05102244389027431,-0.003056625843402919,
0.051072319201995016,-0.023209433098885724,
0.05112219451371571,-0.012462321990201908,
0.05117206982543641,-0.024548142388265623,
0.05122194513715711,-0.03154259006065662,
0.051271820448877806,-0.0005995296701718552,
0.0513216957605985,-0.03762971955980988,
0.051371571072319204,-0.009450357887509133,
0.0514214463840399,-0.030175215000067528,
0.051471321695760595,-0.009157608021284167,
0.0515211970074813,-0.007159228432756961,
0.051571072319201994,-0.03818637148839173,
0.051620947630922696,-0.0003928380685792373,
0.05167082294264339,0.00801615613074342,
0.05172069825436409,-0.009274271847521678,
0.05177057356608479,-0.013857839578373467,
0.051820448877805486,-0.038133540401397825,
0.05187032418952618,-0.012745035992211832,
0.051920199501246884,-0.02548999612844524,
0.05197007481296758,-0.03079730359985451,
0.052019950124688276,-0.02557060351081024,
0.05206982543640898,-0.012991814266888524,
0.052119700748129674,-0.0022372973976279038,
0.05216957605985038,-0.02946937462039895,
0.05221945137157107,-0.027277041465170654,
0.05226932668329177,0.0062780924546422655,
0.05231920199501247,-0.03419286593293205,
0.05236907730673317,-0.014714227951478503,
0.05241895261845386,-0.031702125647987356,
0.052468827930174565,-0.0027969926407322362,
0.05251870324189526,0.0016273210068243095,
0.05256857855361596,-0.00177846622285055,
0.05261845386533666,-0.04165671177113191,
0.052668329177057355,-0.02204072608656544,
0.05271820448877806,-0.0153636361786693,
0.05276807980049875,-0.028808577155178202,
0.05281795511221945,-0.04919644651866929,
0.05286783042394015,0.005751016658660435,
0.05291770573566085,-0.02210420460222016,
0.05296758104738154,-0.025948127029160065,
0.053017456359102245,0.023463447482498293,
0.05306733167082294,-0.021036440817311847,
0.053117206982543644,-0.03165347285078167,
0.05316708229426434,-0.030208999113922386,
0.053216957605985035,-0.004572505590652036,
0.05326683291770574,-0.032228450122879705,
0.053316708229426434,-0.03092979899663347,
0.05336658354114713,-0.03493442333621606,
0.05341645885286783,-0.008874237144691923,
0.05346633416458853,-0.03036999153936354,
0.05351620947630923,-0.03133079301242318,
0.053566084788029926,-0.006863761548887657,
0.05361596009975062,-0.03079996993513013,
0.053665835411471324,-0.012566612065980459,
0.05371571072319202,-0.021053996866883078,
0.053765586034912716,0.005966423004604277,
0.05381546134663342,-0.03946958067544397,
0.053865336658354114,0.0017179159321938156,
0.05391521197007481,-0.0090070820938187,
0.05396508728179551,0.001691229611914159,
0.05401496259351621,-0.015522160469567906,
0.05406483790523691,-0.014312996045251089,
0.054114713216957606,-0.0022721867125211122,
0.0541645885286783,-0.01811279474623052,
0.054214463840399005,-0.025319641074192212,
0.0542643391521197,0.004607627223147913,
0.054314214463840396,-0.009367804507570738,
0.0543640897755611,0.0030934960579062695,
0.054413965087281795,-0.0130159613271415,
0.0544638403990025,-0.011004299894514305,
0.05451371571072319,-0.00011659720419540318,
0.05456359102244389,-0.03396437944359466,
0.05461346633416459,-0.016432383713033766,
0.05466334164588529,0.003403690689558733,
0.05471321695760598,-0.015113342441115014,
0.054763092269326685,-0.003911235491260396,
0.05481296758104738,-0.007234883242724744,
0.05486284289276808,-0.004990967289714219,
0.05491271820448878,0.006962587734972624,
0.054962593516209475,-0.003713836839081467,
0.05501246882793018,0.0033636792475008667,
0.05506234413965087,-0.006658816091515007,
0.05511221945137157,0.018864023860159618,
0.05516209476309227,0.005341234486171275,
0.05521197007481297,-0.004325579964268317,
0.05526184538653366,0.004647445272161642,
0.055311720698254366,-0.009351785732423856,
0.05536159600997506,-0.006889257040558795,
0.05541147132169576,-0.002114794172136461,
0.05546134663341646,0.011199196432120244,
0.055511221945137156,-0.017932118705150518,
0.05556109725685786,-0.020770804124933387,
0.055610972568578554,0.01848655037942867,
0.05566084788029925,0.016702070810936373,
0.05571072319201995,0.015605667883955574,
0.05576059850374065,0.01158141468229566,
0.055810473815461344,-0.00011035377380831505,
0.055860349127182046,0.027690688532021654,
0.05591022443890274,0.007528129985441417,
0.055960099750623445,0.0003765176619408587,
0.05600997506234414,-0.007429243532351816,
0.056059850374064836,0.017116574476958968,
0.05610972568578554,0.016422715073748845,
0.056159600997506234,-0.01346498149421721,
0.05620947630922693,-0.021166107373978164,
0.05625935162094763,-0.0010999288949246474,
0.05630922693266833,-0.011139876141702977,
0.056359102244389024,0.0015775030293542327,
0.05640897755610973,0.0030753415623056154,
0.05645885286783042,0.012053986531235617,
0.056508728179551125,0.018410008539752398,
0.05655860349127182,0.019872513814005746,
0.056608478802992516,-0.0022929078460475517,
0.05665835411471322,0.002850382343373599,
0.056708229426433915,0.018749900657018276,
0.05675810473815461,0.013103139492031542,
0.05680798004987531,0.012932771561317901,
0.05685785536159601,-0.009499933903050647,
0.05690773067331671,0.029441862401265912,
0.05695760598503741,-0.00838502412607002,
0.0570074812967581,0.025977578558675295,
0.057057356608478806,-0.0017886640217158762,
0.0571072319201995,0.017583686579330175,
0.0571571072319202,0.019066093921403668,
0.0572069825436409,-0.008289144711008615,
0.057256857855361595,0.04814613120666411,
0.05730673316708229,0.008886347342337158,
0.057356608478802994,-0.0010604364667898911,
0.05740648379052369,-0.0012431256795208505,
0.05745635910224439,0.038124198595740386,
0.05750623441396509,-0.005471024144086352,
0.05755610972568578,-0.01057008137566598,
0.057605985037406486,0.006197352379189825,
0.05765586034912718,0.016751491740570303,
0.05770573566084788,0.033283236089820895,
0.05775561097256858,0.006911650410906833,
0.057805486284289276,0.02358924092116629,
0.05785536159600998,-0.013849915379366567,
0.057905236907730674,0.017062046211102196,
0.05795511221945137,0.02102426117401464,
0.05800498753117207,0.02598194860958164,
0.05805486284289277,-0.0031275464231119085,
0.058104738154613464,0.01804868714742882,
0.05815461346633417,0.013241424340346013,
0.05820448877805486,0.006257653939334933,
0.05825436408977556,0.007206542692145887,
0.05830423940149626,0.012322131707886909,
0.058354114713216956,0.009061610799309137,
0.05840399002493766,0.0160422778160883,
0.058453865336658355,0.03573263235122256,
0.05850374064837905,0.021479920492906535,
0.05855361596009975,-0.006076091845676146,
0.05860349127182045,0.02010685782959216,
0.058653366583541144,0.012609295488892579,
0.05870324189526185,0.024903933414126223,
0.05875311720698254,0.001317865882114664,
0.05880299251870324,0.03451577304317511,
0.05885286783042394,0.03718263711345613,
0.05890274314214464,0.0034194760309611168,
0.05895261845386534,0.02414233546240231,
0.059002493765586035,0.05216680922522551,
0.05905236907730673,-0.03752206483618154,
0.059102244389027433,0.0030687031781776383,
0.05915211970074813,0.015378555626323879,
0.059201995012468825,0.027595866903923162,
0.05925187032418953,0.01121278235837226,
0.05930174563591022,0.00045838914232341,
0.059351620947630926,0.026188419122045076,
0.05940149625935162,0.028133630434845597,
0.05945137157107232,0.008007903974987834,
0.05950124688279302,0.004008703371236669,
0.059551122194513716,0.02056911682031545,
0.05960099750623441,-0.0004069715184149697,
0.059650872817955114,0.03601223966128465,
0.05970074812967581,0.004271034602313071,
0.059750623441396505,0.006223048332943463,
0.05980049875311721,0.03368658056904265,
0.059850374064837904,0.014607251362611907,
0.059900249376558606,0.036174410214726664,
0.0599501246882793,0.016626433741057378,
0.06,0.00885166402968024,
0.0600498753117207,0.008881043706673497,
0.060099750623441396,0.03616324680464031,
0.06014962593516209,0.011349847578988522,
0.060199501246882794,0.02343230081083134,
0.06024937655860349,0.031718232400735825,
0.06029925187032419,0.015495518148986656,
0.06034912718204489,0.020924804280283416,
0.060399002493765584,0.021241355317992844,
0.06044887780548629,0.029223365424036363,
0.06049875311720698,0.030010722934272708,
0.06054862842892768,0.04955649558589095,
0.06059850374064838,-0.0050485941529581635,
0.06064837905236908,0.03526876043545544,
0.06069825436408977,0.010669093190327288,
0.060748129675810475,-0.006003959814969113,
0.06079800498753117,0.040870123720175934,
0.06084788029925187,-0.0050033465790726185,
0.06089775561097257,0.038748908029058664,
0.060947630922693265,0.013673188613389306,
0.06099750623441397,0.004644504245511282,
0.06104738154613466,0.019268165196467534,
0.06109725685785536,0.015255003447070549,
0.06114713216957606,0.019846157570991996,
0.06119700748129676,0.007115741271893277,
0.06124688279301746,0.024441089324790617,
0.061296758104738155,0.008146827090267324,
0.06134663341645885,0.04816990668458652,
0.061396508728179554,0.05183483025882944,
0.06144638403990025,0.016974125543009866,
0.061496259351620945,0.016178338146712344,
0.06154613466334165,0.028801484371308125,
0.061596009975062344,0.07033216883196663,
0.06164588528678304,0.04883156076917178,
0.06169576059850374,0.050738706635448515,
0.06174563591022444,0.0591837430890084,
0.06179551122194514,0.005420865846510754,
0.061845386533665836,0.04156045507988092,
0.06189526184538653,-0.006026731085742355,
0.061945137157107234,0.02804145253272018,
0.06199501246882793,0.02242651472427254,
0.062044887780548626,0.04754761670910336,
0.06209476309226933,0.023251136514140718,
0.062144638403990024,0.023957530876107243,
0.06219451371571072,0.018036492647387208,
0.06224438902743142,0.021648315019656594,
0.06229426433915212,0.026796936816466978,
0.06234413965087282,0.017513652883240683,
0.062394014962593516,0.0006207182005623785,
0.06244389027431421,0.024490278479658404,
0.062493765586034915,-0.0011465997733580528,
0.06254364089775562,0.04323316844302735,
0.06259351620947631,0.030597087971686195,
0.06264339152119701,0.009245650193701743,
0.0626932668329177,0.038452045368247194,
0.0627431421446384,0.03138764161378379,
0.0627930174563591,0.008076230953547606,
0.0628428927680798,0.04228947260958043,
0.0628927680798005,0.03048044609032297,
0.0629426433915212,-0.010099889626773311,
0.06299251870324189,-2.477918194588452e-05,
0.06304239401496259,-0.006643000969322164,
0.0630922693266833,0.025077924055682405,
0.063142144638404,0.028768449625869715,
0.06319201995012469,0.020949269719326882,
0.06324189526184539,0.027562329725227246,
0.06329177057356608,0.027614031796138014,
0.06334164588528678,0.019722671837433543,
0.06339152119700749,0.030665599249567042,
0.06344139650872818,0.030289212057101923,
0.06349127182044888,-0.007660274805918202,
0.06354114713216957,0.03256739211933795,
0.06359102244389027,0.013954143528869714,
0.06364089775561098,0.032281439045353945,
0.06369077306733167,0.019579986456922414,
0.06374064837905237,0.003995979410528488,
0.06379052369077307,0.008795381196962838,
0.06384039900249376,0.01789223002377056,
0.06389027431421446,0.027564250524661486,
0.06394014962593517,0.02406608046321482,
0.06399002493765586,0.024059394944223916,
0.06403990024937656,0.005216584112008257,
0.06408977556109725,-0.009212364709915141,
0.06413965087281795,0.038228619705075205,
0.06418952618453866,0.024817092433269128,
0.06423940149625935,0.005069374901159033,
0.06428927680798005,0.022759715616645894,
0.06433915211970075,0.042867253196886654,
0.06438902743142144,0.020733557463965165,
0.06443890274314215,0.03656268413762262,
0.06448877805486285,0.004137656432630619,
0.06453865336658354,0.018836163976990547,
0.06458852867830424,0.023012917142129174,
0.06463840399002493,-0.009924113391276709,
0.06468827930174563,-0.011142705643912832,
0.06473815461346634,0.03048832020945038,
0.06478802992518704,-0.0025911346443430704,
0.06483790523690773,0.02589481926639978,
0.06488778054862843,0.02410843566997725,
0.06493765586034912,0.015348612810191689,
0.06498753117206983,0.010758793094812076,
0.06503740648379053,0.004578952820583262,
0.06508728179551122,0.040812017688439284,
0.06513715710723192,0.0025580051811541927,
0.06518703241895261,-0.002938891324137478,
0.06523690773067331,0.02061848779958616,
0.06528678304239402,0.021694961959821027,
0.06533665835411472,0.0028101799377650994,
0.06538653366583541,0.0011217002937120996,
0.06543640897755611,0.01924303825771207,
0.0654862842892768,-0.019637744388466258,
0.06553615960099751,0.012117212035397699,
0.06558603491271821,-0.00802290445958195,
0.0656359102244389,0.0024827245734062786,
0.0656857855361596,0.016526061674383745,
0.0657356608478803,0.03683183507788475,
0.06578553615960099,0.011693056680230676,
0.0658354114713217,-0.0005104031037330399,
0.0658852867830424,0.018047963828984923,
0.06593516209476309,-0.025830339716467563,
0.06598503740648379,0.023434448893450505,
0.06603491271820448,0.003614090774274858,
0.06608478802992519,0.020824584125041984,
0.06613466334164589,0.00846091081189661,
0.06618453865336658,-0.01696896091687681,
0.06623441396508728,0.012654572259703824,
0.06628428927680798,0.019241420864265286,
0.06633416458852869,0.009068683857354137,
0.06638403990024938,-0.004356460830462434,
0.06643391521197008,-0.011495881787368429,
0.06648379052369077,0.0017626116599616288,
0.06653366583541147,-0.012794372454179598,
0.06658354114713216,-0.008372975858088858,
0.06663341645885287,0.012160855169672568,
0.06668329177057357,0.03156884418551349,
0.06673316708229426,-0.005355996679344787,
0.06678304239401496,-0.002894376116027273,
0.06683291770573566,-0.005014166394529921,
0.06688279301745637,0.005813207453649826,
0.06693266832917706,0.010178136292770913,
0.06698254364089776,-0.001116457672618985,
0.06703241895261845,-0.00714033799269412,
0.06708229426433915,0.006583364834173656,
0.06713216957605984,0.009281253504001712,
0.06718204488778055,-0.007807722616912866,
0.06723192019950125,-0.03550222128197833,
0.06728179551122195,0.00919092002720411,
0.06733167082294264,-0.020851061360025985,
0.06738154613466334,-0.006345823594533016,
0.06743142144638405,0.0007086218487028523,
0.06748129675810474,-0.0033505112348020654,
0.06753117206982544,0.016633458035640782,
0.06758104738154613,-0.02221749210584443,
0.06763092269326683,-0.003435324171170391,
0.06768079800498752,0.013432921435520077,
0.06773067331670823,6.157098658173595e-05,
0.06778054862842893,-0.001097162731842557,
0.06783042394014963,0.006025996821181232,
0.06788029925187032,-0.011011744692331547,
0.06793017456359102,-0.011410772156519436,
0.06798004987531173,0.0161964159542153,
0.06802992518703242,-0.0072787748692833346,
0.06807980049875312,0.027875208513688784,
0.06812967581047381,-0.0018561668951361894,
0.06817955112219451,0.0060297258568204485,
0.0682294264339152,0.0015990960853503348,
0.06827930174563591,0.007679788853846718,
0.06832917705735661,-0.025144083700598997,
0.0683790523690773,-0.003565983318011992,
0.068428927680798,-0.007538975138794925,
0.0684788029925187,-0.0028087221597428444,
0.06852867830423941,0.0037786477367868863,
0.0685785536159601,0.006615015137113208,
0.0686284289276808,0.001210813829443198,
0.0686783042394015,-0.01083403147077065,
0.06872817955112219,-0.008644026143637516,
0.0687780548628429,-0.025620249675358156,
0.0688279301745636,-0.0019028547863515462,
0.06887780548628429,-0.007974994562669566,
0.06892768079800499,0.008763621082189397,
0.06897755610972568,-0.024370836080419775,
0.06902743142144638,-0.016594865474439807,
0.06907730673316709,-0.006353814571707174,
0.06912718204488778,-0.006849504754346708,
0.06917705735660848,-0.017517707954017844,
0.06922693266832917,-0.022255211549937398,
0.06927680798004987,-0.010371691466915772,
0.06932668329177058,-0.02034788137991484,
0.06937655860349128,-0.026683446547233078,
0.06942643391521197,-0.0016212699046403677,
0.06947630922693267,-0.04845237002369651,
0.06952618453865336,-0.00940893066014351,
0.06957605985037406,-0.013496127088435032,
0.06962593516209477,-0.004038005485750843,
0.06967581047381546,-0.019804334172550786,
0.06972568578553616,-0.015119921842416369,
0.06977556109725686,0.004993322516900756,
0.06982543640897755,-0.017782206662477443,
0.06987531172069826,-0.009883617967762019,
0.06992518703241896,-0.02468391261093894,
0.06997506234413965,-0.026790442197078927,
0.07002493765586035,0.026632944466472255,
0.07007481296758104,0.004485066291790763,
0.07012468827930174,-0.003853246689651011,
0.07017456359102245,-0.019859091502069673,
0.07022443890274314,-0.017306795966076205,
0.07027431421446384,-0.02905357522288098,
0.07032418952618454,-0.006678231495107205,
0.07037406483790523,-0.014596602750607396,
0.07042394014962594,-0.019995861236488104,
0.07047381546134664,-0.03010041056488008,
0.07052369077306733,-0.009768865983071574,
0.07057356608478803,-0.0019481456907047782,
0.07062344139650872,0.006072070624975445,
0.07067331670822943,-0.03706382254688632,
0.07072319201995013,-0.026033826381391657,
0.07077306733167082,0.01198186692679725,
0.07082294264339152,-0.004957770323909467,
0.07087281795511222,-0.0007713652539760949,
0.07092269326683291,-0.018828065102638077,
0.07097256857855362,-0.034143016269658856,
0.07102244389027432,-0.02420229267073554,
0.07107231920199501,-0.019909775722217693,
0.07112219451371571,-0.011938969866104841,
0.0711720698254364,-0.01181233638419749,
0.07122194513715711,-0.0411328871653927,
0.07127182044887781,-0.020830404152610765,
0.0713216957605985,-0.002131865594304786,
0.0713715710723192,-0.006424211610690442,
0.0714214463840399,0.00030847720903723515,
0.07147132169576059,-0.009095597155946232,
0.0715211970074813,-0.009262294548273618,
0.071571072319202,-0.030720380985913984,
0.0716209476309227,-0.020155650161545538,
0.07167082294264339,-0.047521067528969785,
0.07172069825436408,-0.022525090048415145,
0.0717705735660848,-0.014148266910264709,
0.07182044887780549,-0.018705396822351388,
0.07187032418952619,-0.02700307509460555,
0.07192019950124688,0.008352442600819007,
0.07197007481296758,-0.008519125670896802,
0.07201995012468827,-0.005035019072121311,
0.07206982543640898,-0.023999801044268142,
0.07211970074812968,-0.0055548523893786846,
0.07216957605985037,-0.004802427473029907,
0.07221945137157107,-0.025546018143557107,
0.07226932668329177,-0.014802376131349413,
0.07231920199501247,-0.009417276900290438,
0.07236907730673317,-0.025521100086396638,
0.07241895261845387,-0.023406390310601703,
0.07246882793017456,-0.0211714752882218,
0.07251870324189526,-0.005661524019933667,
0.07256857855361595,-0.03635372407829437,
0.07261845386533666,0.00011360570103153243,
0.07266832917705736,0.0032939219475496273,
0.07271820448877805,-0.02353229336959032,
0.07276807980049875,-0.04051529831392642,
0.07281795511221945,-0.009183172661415362,
0.07286783042394016,0.0037571749545043213,
0.07291770573566085,-0.015948557987979083,
0.07296758104738155,-0.018072314370424274,
0.07301745635910224,-0.00012559431567726702,
0.07306733167082294,0.011749067945343378,
0.07311720698254365,-0.028199682362857054,
0.07316708229426434,-0.0325696569906991,
0.07321695760598504,0.011479353327960826,
0.07326683291770573,-0.03933672572589768,
0.07331670822942643,-0.029656616142007524,
0.07336658354114713,0.002683813071303904,
0.07341645885286784,0.005081400340839098,
0.07346633416458853,-0.02141397072135147,
0.07351620947630923,0.0009522122413874578,
0.07356608478802992,-0.0025121150178128984,
0.07361596009975062,-0.006868435725021566,
0.07366583541147133,-0.026803710155176262,
0.07371571072319202,-0.008103182852945801,
0.07376558603491272,-0.01994265325385656,
0.07381546134663342,0.0006741461429410674,
0.07386533665835411,-0.0175732710711048,
0.0739152119700748,0.00011081189280737116,
0.07396508728179552,0.01587504522998128,
0.07401496259351621,-0.026064267555653005,
0.07406483790523691,0.020289188899682124,
0.0741147132169576,0.006964334597219819,
0.0741645885286783,-0.01171702985546971,
0.07421446384039901,0.0067296222493652665,
0.0742643391521197,-0.0016583117409043023,
0.0743142144638404,0.00862414876551279,
0.0743640897755611,-0.02275491802102344,
0.07441396508728179,0.006909082127173859,
0.07446384039900249,-0.005785171503645342,
0.0745137157107232,-0.01226942425251341,
0.07456359102244389,-0.008297858408621113,
0.07461346633416459,-0.015092921400803186,
0.07466334164588528,-0.003599619770686989,
0.07471321695760598,-0.03143358570723976,
0.07476309226932669,0.0010143771844086259,
0.07481296758104738,0.003930788866121872,
0.07486284289276808,-0.010180659584510452,
0.07491271820448878,-0.008085347168464716,
0.07496259351620947,-0.03324424573667833,
0.07501246882793017,-0.00947267491572885,
0.07506234413965088,-0.00880444881765828,
0.07511221945137157,-0.010467440934621406,
0.07516209476309227,-0.026719054128151294,
0.07521197007481296,-0.041432309991007214,
0.07526184538653366,-0.00810272612807496,
0.07531172069825437,-0.010721436977521853,
0.07536159600997507,0.004150915695343131,
0.07541147132169576,-0.0030148565742304113,
0.07546134663341646,0.006082394040996423,
0.07551122194513715,-0.00646229207095017,
0.07556109725685786,-0.017575001686567837,
0.07561097256857856,0.012066813102149769,
0.07566084788029925,0.011243526293433087,
0.07571072319201995,-0.0033655498732754513,
0.07576059850374064,-0.011803194639945721,
0.07581047381546134,0.016074830816563693,
0.07586034912718205,-0.0008368559527347826,
0.07591022443890275,-0.021061967734120394,
0.07596009975062344,0.019109084532657916,
0.07600997506234414,-0.014047238377928166,
0.07605985037406483,-0.017181916551461156,
0.07610972568578554,-0.017748764768621587,
0.07615960099750624,0.021942285693206165,
0.07620947630922693,0.016200313539896774,
0.07625935162094763,0.03355649235538958,
0.07630922693266833,-0.03504667093189588,
0.07635910224438902,0.011362208440791739,
0.07640897755610973,0.006204828318399123,
0.07645885286783043,0.022224214046264866,
0.07650872817955112,-0.0053992350573909475,
0.07655860349127182,-0.004442198828278919,
0.07660847880299251,-0.0007479544561722045,
0.07665835411471322,0.02447355304510214,
0.07670822942643392,-0.0037397857908547747,
0.07675810473815461,0.016996214968901857,
0.07680798004987531,0.0027739622937168994,
0.076857855361596,0.04499667768358309,
0.0769077306733167,0.017398560126885367,
0.07695760598503741,0.0350318465094132,
0.0770074812967581,0.02239864078887209,
0.0770573566084788,0.002325859046927144,
0.0771072319201995,0.0022120266997935675,
0.0771571072319202,-0.008143646252727038,
0.0772069825436409,0.004093304349843742,
0.0772568578553616,0.0065563333035191206,
0.0773067331670823,-0.002815053746704191,
0.07735660847880299,0.0035781118263842372,
0.07740648379052369,0.00021384865842925468,
0.0774563591022444,-0.010558131614292232,
0.07750623441396509,0.009197847221444108,
0.07755610972568579,0.006179789733945805,
0.07760598503740648,0.02423735392517476,
0.07765586034912718,0.04468558967357728,
0.07770573566084787,0.019284720339714477,
0.07775561097256858,0.03282394337744585,
0.07780548628428928,-0.02025012365409789,
0.07785536159600998,0.029032401687332572,
0.07790523690773067,0.034196037080551786,
0.07795511221945137,0.012020778141498954,
0.07800498753117208,0.010926023775671041,
0.07805486284289277,0.03188047328358787,
0.07810473815461347,0.03361161189444109,
0.07815461346633416,0.01597094557304764,
0.07820448877805486,0.022095634400522167,
0.07825436408977555,-0.007066760886944801,
0.07830423940149626,0.051196591858533716,
0.07835411471321696,0.03443920128179746,
0.07840399002493766,0.018309174244007926,
0.07845386533665835,0.007262286207254621,
0.07850374064837905,0.0016647436703085897,
0.07855361596009976,0.012771367881719967,
0.07860349127182045,-0.015368913727272355,
0.07865336658354115,0.04109139238775993,
0.07870324189526184,0.01374442685779137,
0.07875311720698254,0.023257659761021385,
0.07880299251870324,0.0002070289956882694,
0.07885286783042394,0.04476750146672308,
0.07890274314214464,0.007530303099862919,
0.07895261845386534,0.01597837287915469,
0.07900249376558603,0.007039989346099732,
0.07905236907730673,0.012631273476469715,
0.07910224438902744,0.004317791980048478,
0.07915211970074813,0.04047825147343349,
0.07920199501246883,0.008799773388527886,
0.07925187032418952,0.014505750177699273,
0.07930174563591022,0.011466298443530986,
0.07935162094763092,0.02790845145139424,
0.07940149625935163,0.022260423519361413,
0.07945137157107232,0.022569063522673488,
0.07950124688279302,0.006205380702278072,
0.07955112219451371,0.0242935290522512,
0.07960099750623441,-0.006259061305534101,
0.07965087281795512,0.017243442049841625,
0.07970074812967581,0.008390168372427426,
0.07975062344139651,0.013378380327868443,
0.0798004987531172,0.02366622142766871,
0.0798503740648379,-0.0044385515107279,
0.07990024937655861,0.015012029081182337,
0.0799501246882793,0.01671191486827524,
0.08,0.04444792981572615,
0.0800498753117207,0.012370322243594092,
0.0800997506234414,0.02814958894370149,
0.08014962593516209,0.015780246793865787,
0.0801995012468828,0.019736337689229052,
0.0802493765586035,0.040307127579404044,
0.08029925187032419,0.04228236634142066,
0.08034912718204489,0.033896458957989886,
0.08039900249376558,0.03492516211054961,
0.08044887780548629,0.04039423767724959,
0.08049875311720699,0.003999832017494081,
0.08054862842892768,0.05131702405314538,
0.08059850374064838,0.00029855964357811474,
0.08064837905236907,0.02687768440428009,
0.08069825436408977,0.02639369583171752,
0.08074812967581048,0.008295509131619402,
0.08079800498753117,0.04701028152603665,
0.08084788029925187,0.038496747625964715,
0.08089775561097257,0.01743169210041605,
0.08094763092269326,0.04861062946728979,
0.08099750623441397,0.019880942141428423,
0.08104738154613467,0.008705873735590671,
0.08109725685785536,0.019010502915297225,
0.08114713216957606,0.02720556472585728,
0.08119700748129675,0.012571626433319103,
0.08124688279301745,0.04850201117025202,
0.08129675810473816,0.00029880775315391586,
0.08134663341645886,0.030680794091990614,
0.08139650872817955,0.03026765559011138,
0.08144638403990025,0.03371361142604645,
0.08149625935162094,0.04366353256494789,
0.08154613466334165,0.04117258166547796,
0.08159600997506235,0.04032296928024785,
0.08164588528678304,0.009365189166450297,
0.08169576059850374,0.04636380266562595,
0.08174563591022443,0.06070486457864124,
0.08179551122194513,0.038440064258069215,
0.08184538653366584,0.000834359559189167,
0.08189526184538654,0.034571118586976306,
0.08194513715710723,0.020710856014873068,
0.08199501246882793,0.02696116222174555,
0.08204488778054862,0.019434042815128904,
0.08209476309226933,0.02674727971566671,
0.08214463840399003,0.03163995130576507,
0.08219451371571072,0.03600855124766556,
0.08224438902743142,0.0255670984946357,
0.08229426433915212,0.028332246030182445,
0.08234413965087282,-0.0006468332450263528,
0.08239401496259352,0.036226499358512756,
0.08244389027431422,0.05082464088437902,
0.08249376558603491,0.022327037815844858,
0.08254364089775561,0.013611988039858287,
0.0825935162094763,0.024625770744436132,
0.08264339152119701,0.025577610300824106,
0.08269326683291771,0.009783337127036522,
0.0827431421446384,0.03200046089494239,
0.0827930174563591,0.017518812458193957,
0.0828428927680798,0.053818593137779994,
0.0828927680798005,0.03527099228283648,
0.0829426433915212,0.003622851954874093,
0.0829925187032419,0.03280903307246179,
0.08304239401496259,0.04523482396082749,
0.08309226932668329,0.011640581319429317,
0.08314214463840398,0.020703975556778102,
0.0831920199501247,0.020220145722665187,
0.08324189526184539,0.020066819387472165,
0.08329177057356608,0.01232592622761965,
0.08334164588528678,0.02066114462654486,
0.08339152119700748,0.005287266936482873,
0.08344139650872819,0.030410924320501347,
0.08349127182044888,0.017951124930127665,
0.08354114713216958,0.017610444243752542,
0.08359102244389027,0.0421909906920038,
0.08364089775561097,-0.004838915218239998,
0.08369077306733166,-0.007635600747068219,
0.08374064837905237,0.027368380550808515,
0.08379052369077307,0.013952018202285756,
0.08384039900249377,0.03406514413660572,
0.08389027431421446,-0.0015297617236573156,
0.08394014962593516,0.03023003053306094,
0.08399002493765587,0.03602211195987537,
0.08403990024937656,0.016087960784362622,
0.08408977556109726,0.01666084981490647,
0.08413965087281795,0.04167011897963144,
0.08418952618453865,-0.008600568570547418,
0.08423940149625936,0.0014032770303865488,
0.08428927680798005,0.004752699011792186,
0.08433915211970075,0.025315857397821603,
0.08438902743142145,0.05944736291868625,
0.08443890274314214,0.012197072969213914,
0.08448877805486284,0.014247622684848287,
0.08453865336658355,0.02297810813068655,
0.08458852867830424,0.05489032591197573,
0.08463840399002494,0.038820738884542544,
0.08468827930174563,-0.005415159245532097,
0.08473815461346633,0.013351095001658434,
0.08478802992518704,0.009441017188250599,
0.08483790523690773,0.0017203938241261846,
0.08488778054862843,0.015125188635249585,
0.08493765586034913,0.005641479335445973,
0.08498753117206982,0.03230360854386365,
0.08503740648379052,-0.014872204060759679,
0.08508728179551123,0.005618708170800344,
0.08513715710723192,0.02634681367035046,
0.08518703241895262,0.01811715683180839,
0.08523690773067331,0.016585209081616478,
0.08528678304239401,0.026109438440053853,
0.08533665835411472,0.01370141583678856,
0.08538653366583542,-0.004065431561942202,
0.08543640897755611,0.0065915444600901036,
0.0854862842892768,0.04486279644151392,
0.0855361596009975,-0.006328947938540497,
0.0855860349127182,0.01002522259384868,
0.08563591022443891,0.030334394098374323,
0.0856857855361596,0.020958011389545013,
0.0857356608478803,0.0066188711853592645,
0.085785536159601,0.008023002558836614,
0.08583541147132169,-0.0013971397074390626,
0.0858852867830424,-0.007762276288850758,
0.0859351620947631,0.0062671526436645164,
0.08598503740648379,0.004466079714807808,
0.08603491271820449,0.005538166758311177,
0.08608478802992518,0.017251345598643178,
0.08613466334164588,-0.00016788295930954267,
0.08618453865336659,0.0005598215589106472,
0.08623441396508728,0.00969893372470746,
0.08628428927680798,0.004515910495459704,
0.08633416458852868,-0.0004970840626062796,
0.08638403990024937,0.025485187948957697,
0.08643391521197008,0.02563216780276227,
0.08648379052369078,0.008101009989936257,
0.08653366583541147,-0.011825700630221272,
0.08658354114713217,-0.005313465914122923,
0.08663341645885286,0.008263046371696885,
0.08668329177057357,0.0023342945920575607,
0.08673316708229427,0.009199111267119895,
0.08678304239401496,0.004226968554000097,
0.08683291770573566,0.026499353561278294,
0.08688279301745636,0.018186766905994634,
0.08693266832917705,-0.0026882266398521064,
0.08698254364089776,0.002768599634032064,
0.08703241895261846,0.00028752182117042636,
0.08708229426433915,-0.009881161717975293,
0.08713216957605985,-0.02268841361222225,
0.08718204488778054,0.0009779541847726753,
0.08723192019950125,0.011253882170119552,
0.08728179551122195,0.025925323695306104,
0.08733167082294264,-0.03889943710665019,
0.08738154613466334,0.003541705732126912,
0.08743142144638404,-0.01058764669840032,
0.08748129675810473,0.010690520286960544,
0.08753117206982544,-0.006664014460455727,
0.08758104738154614,0.004373255938151954,
0.08763092269326683,0.005921691650536201,
0.08768079800498753,0.0002610281919023759,
0.08773067331670822,-0.008361732703240813,
0.08778054862842893,-0.0018234498524730457,
0.08783042394014963,-0.015272459902354369,
0.08788029925187033,0.03640913914443158,
0.08793017456359102,0.01020280153196619,
0.08798004987531172,-0.02053161311131424,
0.08802992518703241,-0.009884920298818258,
0.08807980049875312,0.0004042919515212743,
0.08812967581047382,-0.017068148448806608,
0.08817955112219451,-0.008439917415359013,
0.08822942643391521,0.004712053014562066,
0.0882793017456359,0.00571255752969018,
0.08832917705735661,-0.0032124721732701795,
0.08837905236907731,-0.030286658461204766,
0.088428927680798,0.024583054606774422,
0.0884788029925187,-0.017858300001238392,
0.0885286783042394,0.013951187573766736,
0.0885785536159601,0.0005769340609231991,
0.0886284289276808,-0.013726876732060564,
0.0886783042394015,0.011175166603122306,
0.0887281795511222,0.008934435743929183,
0.08877805486284289,-0.004245974796173036,
0.08882793017456359,-0.009585797623650076,
0.0888778054862843,-0.03209934508093465,
0.08892768079800499,0.00812464594590287,
0.08897755610972569,0.008973118912483622,
0.08902743142144638,-0.023259269523190688,
0.08907730673316708,-0.01340154518247878,
0.08912718204488779,-0.02612401887180027,
0.08917705735660848,-0.005004006428584105,
0.08922693266832918,0.008250767953069248,
0.08927680798004987,-0.020811858245779736,
0.08932668329177057,0.01142331037160878,
0.08937655860349127,-0.009349836811525247,
0.08942643391521198,0.005017619983985089,
0.08947630922693267,-0.007392816616463365,
0.08952618453865337,-0.016668030155544373,
0.08957605985037406,-0.014781291402163579,
0.08962593516209476,-0.01842411939533435,
0.08967581047381547,-0.025376121124150233,
0.08972568578553616,-0.016112429993246174,
0.08977556109725686,-0.0014339769552699257,
0.08982543640897755,-0.0030332244438595717,
0.08987531172069825,0.001484922852665575,
0.08992518703241895,0.024020467079581144,
0.08997506234413966,-0.013918027682632875,
0.09002493765586035,-0.03847575998308447,
0.09007481296758105,0.0018901862747812363,
0.09012468827930174,-0.01589320593332421,
0.09017456359102244,-0.009459337601182956,
0.09022443890274315,0.030424966713049388,
0.09027431421446384,0.007325418386502216,
0.09032418952618454,0.0017699294504739324,
0.09037406483790524,-0.015404288094979613,
0.09042394014962593,0.006479752640453239,
0.09047381546134663,-0.028746570830158184,
0.09052369077306734,-0.024627476264536503,
0.09057356608478803,-0.023484964662058974,
0.09062344139650873,-0.003471291408435384,
0.09067331670822942,0.0012026709269695283,
0.09072319201995012,-0.00035186849653425466,
0.09077306733167083,-0.026744774478651034,
0.09082294264339152,-0.014230950774816451,
0.09087281795511222,-0.014859606626349824,
0.09092269326683292,-0.007754896569799335,
0.09097256857855361,-0.021132390124744715,
0.09102244389027432,-0.019735760869938068,
0.09107231920199502,-0.016229458280425813,
0.09112219451371571,0.008991450808133749,
0.09117206982543641,-0.0016978901218325602,
0.0912219451371571,-0.005730787947432629,
0.0912718204488778,-0.0216929776836501,
0.09132169576059851,-0.017804540367298186,
0.0913715710723192,-0.0053845172487100215,
0.0914214463840399,-0.020590544296902394,
0.0914713216957606,-0.007610414179260041,
0.09152119700748129,-0.008704734120557271,
0.091571072319202,-0.023424458965616707,
0.0916209476309227,-0.008260676313517287,
0.09167082294264339,-0.027080002220410467,
0.09172069825436409,-0.021803666909148346,
0.09177057356608478,-0.001994879168970832,
0.09182044887780548,-0.007740013767341363,
0.09187032418952619,-0.01907584891292599,
0.09192019950124689,-0.012393732383488818,
0.09197007481296758,-0.00285320657259764,
0.09201995012468828,-0.012452132007294985,
0.09206982543640897,-0.010953953817508492,
0.09211970074812968,-0.02640806416400595,
0.09216957605985038,0.0005505537488891231,
0.09221945137157107,-0.03799113536057126,
0.09226932668329177,-0.04788237961912872,
0.09231920199501246,-0.03752385776224704,
0.09236907730673316,-0.010792191273269306,
0.09241895261845387,-0.012979348373615534,
0.09246882793017457,-0.035301747306934333,
0.09251870324189526,0.0023683461953273605,
0.09256857855361596,-0.01909535851556819,
0.09261845386533665,-0.02925609556048634,
0.09266832917705736,-0.04205085186963809,
0.09271820448877806,-0.01853100999861197,
0.09276807980049875,-0.02416232695409603,
0.09281795511221945,-0.011233321340276022,
0.09286783042394015,-0.005470296422309949,
0.09291770573566084,0.00305551531315865,
0.09296758104738155,-0.014521133832172628,
0.09301745635910225,-0.0056506474034327455,
0.09306733167082294,-0.010800987929551857,
0.09311720698254364,0.002681015338747211,
0.09316708229426433,-0.000933004332650365,
0.09321695760598504,-0.01827978110927808,
0.09326683291770574,-0.0038287241583711534,
0.09331670822942643,0.0306062165381571,
0.09336658354114713,-0.01390318817913622,
0.09341645885286783,-0.037438801089126575,
0.09346633416458854,0.002706661261069611,
0.09351620947630923,0.017376117156688062,
0.09356608478802993,-0.009568522774456554,
0.09361596009975062,0.0004941781139390479,
0.09366583541147132,0.01121672204303,
0.09371571072319201,-0.012524311749386185,
0.09376558603491272,0.027569781868246334,
0.09381546134663342,-0.015524529427995865,
0.09386533665835411,-0.01375834972754928,
0.09391521197007481,-0.016732016621951264,
0.0939650872817955,0.016321063130836772,
0.09401496259351622,-0.023274152474260502,
0.09406483790523691,-0.007657262817290869,
0.09411471321695761,0.016316531909339543,
0.0941645885286783,0.01272618324557202,
0.094214463840399,-0.01879874894953664,
0.0942643391521197,-0.0055441781684946725,
0.0943142144638404,-0.0019841945770878904,
0.0943640897755611,-0.00911360140968241,
0.0944139650872818,-0.0031213238377326103,
0.09446384039900249,-0.007981100534022852,
0.09451371571072319,-0.01441448333061722,
0.0945635910224439,-0.020924716149015133,
0.09461346633416459,0.014070594061086229,
0.09466334164588529,0.005203175226148975,
0.09471321695760598,-0.0007036970801739262,
0.09476309226932668,-0.0005561036944432753,
0.09481296758104737,-0.004766158069151144,
0.09486284289276808,0.005614526863853286,
0.09491271820448878,-0.017916139544349508,
0.09496259351620948,0.004672548887330027,
0.09501246882793017,0.01232395154477539,
0.09506234413965087,0.0367410444737309,
0.09511221945137158,0.017154396022484746,
0.09516209476309227,-0.00023208868391002375,
0.09521197007481297,0.007074611000571854,
0.09526184538653366,0.021004707037055516,
0.09531172069825436,0.005503365660112604,
0.09536159600997507,0.00824211617499803,
0.09541147132169576,0.004439222690348714,
0.09546134663341646,-0.004512608071110242,
0.09551122194513716,-0.002621252971995394,
0.09556109725685785,0.014154770116304208,
0.09561097256857855,-0.0012968260884825195,
0.09566084788029926,0.022180716878232344,
0.09571072319201995,0.013593817682959964,
0.09576059850374065,0.008231370399853024,
0.09581047381546134,0.017941966681351184,
0.09586034912718204,-0.038069224523063834,
0.09591022443890275,0.003999541667176134,
0.09596009975062345,0.019737758324462198,
0.09600997506234414,0.019482612528129856,
0.09605985037406484,-0.029756363052220722,
0.09610972568578553,-0.00515755964450261,
0.09615960099750623,0.016912806480525882,
0.09620947630922694,0.022367460062244722,
0.09625935162094763,0.015046822711970182,
0.09630922693266833,-0.019327254695973947,
0.09635910224438902,-0.008717154416033438,
0.09640897755610972,-0.008188203544529432,
0.09645885286783043,0.010321802871346663,
0.09650872817955113,0.01056939570680744,
0.09655860349127182,0.0019060881638091514,
0.09660847880299252,0.04198760696092134,
0.09665835411471321,0.05074993932878207,
0.09670822942643391,0.0018580315534265316,
0.09675810473815462,-0.004969922671731342,
0.09680798004987531,0.02073220271848311,
0.09685785536159601,0.011262178639081275,
0.0969077306733167,0.0263666491606944,
0.0969576059850374,-0.00012625187493631174,
0.09700748129675811,0.024669460366780582,
0.0970573566084788,0.028181332725474025,
0.0971072319201995,0.02275584883653416,
0.0971571072319202,-0.01350995515891861,
0.0972069825436409,0.020786667583590695,
0.09725685785536159,0.02097064633788062,
0.0973067331670823,0.016570119896107852,
0.097356608478803,0.01705104214794496,
0.09740648379052369,0.04026915186758584,
0.09745635910224439,0.006177252562706063,
0.09750623441396508,0.005082121871439291,
0.09755610972568579,0.01646972654514612,
0.09760598503740649,0.0385015809006215,
0.09765586034912718,0.010970094946993674,
0.09770573566084788,0.007510060584432158,
0.09775561097256857,0.0455035524565664,
0.09780548628428928,0.006570209737989207,
0.09785536159600998,0.02397980471499348,
0.09790523690773068,0.05585246326394701,
0.09795511221945137,0.0439607542160711,
0.09800498753117207,0.016378883362825326,
0.09805486284289276,0.021854744660513056,
0.09810473815461347,0.03715259391944779,
0.09815461346633417,0.014307707902540238,
0.09820448877805486,0.04735132901930297,
0.09825436408977556,0.010061848429165651,
0.09830423940149625,0.007894444136833491,
0.09835411471321696,0.027366571204359508,
0.09840399002493766,0.00985561879484585,
0.09845386533665836,-0.004604782937380734,
0.09850374064837905,-0.008426003925682338,
0.09855361596009975,0.02932540613717735,
0.09860349127182044,0.014013461968090273,
0.09865336658354115,0.02992717793644046,
0.09870324189526185,0.019394323456585618,
0.09875311720698254,0.027018957182687677,
0.09880299251870324,0.026427320689283405,
0.09885286783042393,0.030502409802303364,
0.09890274314214464,0.014408417385881424,
0.09895261845386534,0.03052533206010288,
0.09900249376558604,0.04524961423477125,
0.09905236907730673,0.01847332014393976,
0.09910224438902743,0.015677545181437488,
0.09915211970074812,0.0392265708214445,
0.09920199501246883,0.019709317595105757,
0.09925187032418953,0.0456747524620339,
0.09930174563591022,0.03212502511904005,
0.09935162094763092,0.028118961457477408,
0.09940149625935162,0.0468768917064107,
0.09945137157107233,0.03773389837687454,
0.09950124688279302,0.011379180513390442,
0.09955112219451372,0.003555776841254032,
0.09960099750623441,-0.00047848905182800924,
0.09965087281795511,0.022235345517552952,
0.0997007481296758,0.0189930386097691,
0.09975062344139651,0.04756282786919738,
0.09980049875311721,0.03997061829513231,
0.0998503740648379,0.01619367110641698,
0.0999002493765586,-0.006705263701226639,
0.0999501246882793,0.007447318111164614,
0.1,-0.014263108060561705,
0.1000498753117207,0.017652931496431185,
0.1000997506234414,0.036440006541593364,
0.10014962593516209,0.04718770558965839,
0.10019950124688279,0.032460217913873726,
0.1002493765586035,0.025868524156777806,
0.1002992518703242,0.02380055673085126,
0.10034912718204489,0.00032827697697471875,
0.10039900249376559,0.0157415253288029,
0.10044887780548628,0.049518121516065036,
0.10049875311720698,0.05918447549091364,
0.10054862842892769,0.00967504331885155,
0.10059850374064838,0.028912885201326642,
0.10064837905236908,0.027081192478768182,
0.10069825436408977,0.01866256083502399,
0.10074812967581047,0.02742326525834089,
0.10079800498753118,0.052449202894337556,
0.10084788029925187,0.02216950794267347,
0.10089775561097257,-0.005826270965485485,
0.10094763092269327,0.03015160571737418,
0.10099750623441396,0.03950117600636751,
0.10104738154613466,0.02278353929380971,
0.10109725685785537,-0.004230658325398685,
0.10114713216957606,0.04749659952130499,
0.10119700748129676,0.016221298272958012,
0.10124688279301745,0.001979756066445376,
0.10129675810473815,0.02222632968156566,
0.10134663341645886,0.020764127586545913,
0.10139650872817955,0.009501521459954795,
0.10144638403990025,0.03194310540697928,
0.10149625935162095,0.04227092020669826,
0.10154613466334164,0.011009680666617776,
0.10159600997506234,0.04314256080755523,
0.10164588528678305,0.011004925945176602,
0.10169576059850374,0.027366649779200704,
0.10174563591022444,0.0382878786171648,
0.10179551122194513,0.03225974653870003,
0.10184538653366583,0.04358779920790573,
0.10189526184538654,0.013882032275008364,
0.10194513715710724,0.03672198452192432,
0.10199501246882793,0.04513225133949704,
0.10204488778054863,0.04543989577295986,
0.10209476309226932,0.028725195882118793,
0.10214463840399003,0.020769309830735005,
0.10219451371571073,0.01416738681118255,
0.10224438902743142,0.04640472148912338,
0.10229426433915212,-0.0014863685175596116,
0.10234413965087281,0.05181105793365405,
0.10239401496259351,0.030033836544896334,
0.10244389027431422,0.026825664322432195,
0.10249376558603492,-0.0017794435247292482,
0.10254364089775561,0.025142537261854322,
0.10259351620947631,0.023446480779533117,
0.102643391521197,0.03811803811659126,
0.10269326683291771,0.02286810744473874,
0.10274314214463841,0.03140195623405783,
0.1027930174563591,0.03472264785690408,
0.1028428927680798,0.045644901449605174,
0.1028927680798005,0.0017580260057007968,
0.10294264339152119,0.037582782174035774,
0.1029925187032419,-0.0042581805404469965,
0.1030423940149626,0.01679682346547903,
0.10309226932668329,0.02954917967919629,
0.10314214463840399,0.03226953464684691,
0.10319201995012468,0.05164731330349196,
0.10324189526184539,0.03191258751109381,
0.10329177057356609,0.044689920657271086,
0.10334164588528678,0.02432034564859785,
0.10339152119700748,0.03801252599112723,
0.10344139650872818,0.031149601880975274,
0.10349127182044887,0.014079275690138232,
0.10354114713216958,0.025909247770539164,
0.10359102244389028,0.018124706850011586,
0.10364089775561097,0.024267889165355834,
0.10369077306733167,0.02516131124851819,
0.10374064837905236,0.01996578743080909,
0.10379052369077307,0.021681347729541108,
0.10384039900249377,0.025622380717256223,
0.10389027431421446,0.010094060770305257,
0.10394014962593516,0.03949417772433974,
0.10399002493765586,0.010745199950426592,
0.10403990024937655,0.020705600366286138,
0.10408977556109726,0.0090684197656249,
0.10413965087281796,0.035050663744444585,
0.10418952618453865,0.011652390026053694,
0.10423940149625935,0.023965285804852653,
0.10428927680798004,0.010888256244870494,
0.10433915211970075,0.02693149272952878,
0.10438902743142145,0.0240106257165383,
0.10443890274314215,0.012437468082194973,
0.10448877805486284,0.020824786302141445,
0.10453865336658354,0.021188521209896265,
0.10458852867830425,0.011072141677017857,
0.10463840399002494,0.026650320539871195,
0.10468827930174564,0.028479977134219868,
0.10473815461346633,0.011671521694830642,
0.10478802992518703,-0.0016197951184495837,
0.10483790523690772,0.02180670318585526,
0.10488778054862843,0.023926308618173575,
0.10493765586034913,0.011656374304852729,
0.10498753117206983,0.02757517405978451,
0.10503740648379052,0.0317098083983042,
0.10508728179551122,-0.0017015703069375825,
0.10513715710723193,0.027679230055309118,
0.10518703241895262,-0.009587883173138405,
0.10523690773067332,0.02614584682925328,
0.10528678304239401,-0.005040345693410914,
0.10533665835411471,0.0012195134191345432,
0.1053865336658354,0.0319455024837408,
0.10543640897755611,0.011478024938772759,
0.10548628428927681,0.005137897277922003,
0.1055361596009975,0.031364646824140696,
0.1055860349127182,0.004395912360116321,
0.1056359102244389,0.015392821668796448,
0.10568578553615961,-0.004152537403841824,
0.1057356608478803,0.011378008962939607,
0.105785536159601,0.01081375606037331,
0.1058354114713217,-0.0029947067884333184,
0.10588528678304239,0.00016455524504954862,
0.10593516209476309,-0.010512427327621402,
0.1059850374064838,-0.020010337830605726,
0.10603491271820449,0.009269991890500935,
0.10608478802992519,0.000776331048814546,
0.10613466334164588,0.005518566811995638,
0.10618453865336658,0.015207541540192403,
0.10623441396508729,0.0042710511983899005,
0.10628428927680798,0.0007407933610397112,
0.10633416458852868,0.008006047827046748,
0.10638403990024937,0.016005594451661997,
0.10643391521197007,-0.004247542277361909,
0.10648379052369077,-0.0018644082559260118,
0.10653366583541148,0.012958583548102962,
0.10658354114713217,0.014610834846096769,
0.10663341645885287,0.01558783809045296,
0.10668329177057356,0.04015207900428668,
0.10673316708229426,-0.006934873286817812,
0.10678304239401497,-0.009157006252036715,
0.10683291770573566,0.0027442971268813524,
0.10688279301745636,0.014835076931007513,
0.10693266832917706,0.028196463543652274,
0.10698254364089775,0.016263554427642483,
0.10703241895261846,-0.017082132006729717,
0.10708229426433916,0.02032331292687501,
0.10713216957605985,-0.00032133866071818677,
0.10718204488778055,0.002374734297183408,
0.10723192019950124,-0.016200686399341056,
0.10728179551122194,0.0005227595100325026,
0.10733167082294265,-0.01501191820564499,
0.10738154613466334,-0.01475291849108978,
0.10743142144638404,-0.018773614365167272,
0.10748129675810474,0.012443252392057551,
0.10753117206982543,0.026653527556837458,
0.10758104738154614,-0.011147573067863686,
0.10763092269326684,0.0068740643746825906,
0.10768079800498753,-0.0009432967714042465,
0.10773067331670823,0.005937945060155252,
0.10778054862842892,0.008404444896594893,
0.10783042394014962,-0.0019914707069336305,
0.10788029925187033,-0.005132377321299371,
0.10793017456359102,-0.03712131998945649,
0.10798004987531172,-0.0070308064514852725,
0.10802992518703242,-8.418072961423459e-05,
0.10807980049875311,0.012440753899785502,
0.10812967581047382,-0.0043143619071759325,
0.10817955112219452,0.015026880012357439,
0.10822942643391521,0.005728725314025783,
0.10827930174563591,-0.00610794821889182,
0.1083291770573566,-0.009528587751875517,
0.1083790523690773,-0.004897724445308046,
0.10842892768079801,-0.00010508996413250999,
0.1084788029925187,0.014004845930160398,
0.1085286783042394,-0.007849145987302839,
0.1085785536159601,0.004220780153143975,
0.10862842892768079,0.013599930103625686,
0.1086783042394015,-0.005401411921664353,
0.1087281795511222,0.009726904772733148,
0.1087780548628429,-0.0009628973202778241,
0.10882793017456359,-0.0014550716948881276,
0.10887780548628428,-0.01859583382580815,
0.108927680798005,-0.00036832442027918966,
0.10897755610972569,-0.020454574150523604,
0.10902743142144639,-0.022378962056319573,
0.10907730673316708,-0.031062727381021754,
0.10912718204488778,-0.00012809030566269478,
0.10917705735660847,0.023162004820586914,
0.10922693266832918,-0.006423653349019494,
0.10927680798004988,0.020328534472825614,
0.10932668329177057,0.021572876192977958,
0.10937655860349127,0.023528532410315557,
0.10942643391521197,0.03482266620906935,
0.10947630922693267,0.011279366229198303,
0.10952618453865337,-0.012405401794645337,
0.10957605985037407,-0.0070216189129168535,
0.10962593516209476,0.008608826757215382,
0.10967581047381546,-0.003415442672688134,
0.10972568578553615,-0.01971952298487504,
0.10977556109725686,-0.023764894559137245,
0.10982543640897756,-0.01159765688292871,
0.10987531172069825,-0.02026719674986996,
0.10992518703241895,0.005587984835136331,
0.10997506234413965,-0.00380951805388597,
0.11002493765586036,-0.004289875743112259,
0.11007481296758105,-0.007991495235765448,
0.11012468827930175,-0.021211211686676158,
0.11017456359102244,-0.0007273776434438498,
0.11022443890274314,0.01359992533514159,
0.11027431421446383,-0.0009884013605097781,
0.11032418952618454,-0.007958622207534537,
0.11037406483790524,-0.00036525171146332795,
0.11042394014962593,0.00015945749244087454,
0.11047381546134663,-0.008623309554147935,
0.11052369077306733,-0.023350752627503926,
0.11057356608478804,-0.024336436734316725,
0.11062344139650873,-0.00421504444514188,
0.11067331670822943,-0.016678052487213817,
0.11072319201995012,0.015812991546406634,
0.11077306733167082,0.02083991591165677,
0.11082294264339151,-0.003373179355901524,
0.11087281795511222,-0.011590018570855428,
0.11092269326683292,-0.0039977878829069256,
0.11097256857855362,9.744494178977325e-05,
0.11102244389027431,-0.01097842402756091,
0.111072319201995,-0.05794311749706549,
0.11112219451371572,-0.010986451664393312,
0.11117206982543641,-0.027415371462351575,
0.11122194513715711,-0.00908137406424181,
0.1112718204488778,-0.026283040057948584,
0.1113216957605985,-0.024066273944544303,
0.11137157107231921,-0.04342584591660249,
0.1114214463840399,-0.0025874342528310265,
0.1114713216957606,-0.01370250740714413,
0.1115211970074813,-0.03347228245662248,
0.11157107231920199,-0.009575949862983192,
0.11162094763092269,-0.009236965100495076,
0.1116708229426434,-0.009797835927777854,
0.11172069825436409,-0.033411870908595404,
0.11177057356608479,-0.019002939531073744,
0.11182044887780548,0.004846154514023466,
0.11187032418952618,-0.01596733945798806,
0.11192019950124689,0.006677225691878327,
0.11197007481296758,-0.0017377712196664178,
0.11201995012468828,-0.009306756976010013,
0.11206982543640898,0.007190963878445825,
0.11211970074812967,-0.0030190141219422813,
0.11216957605985037,0.00189842559865765,
0.11221945137157108,0.01664010180844986,
0.11226932668329177,-0.017770922959052526,
0.11231920199501247,-0.04364670169016967,
0.11236907730673316,-0.02431587276701608,
0.11241895261845386,0.02085232110222228,
0.11246882793017457,-0.015193500416689728,
0.11251870324189527,-0.037625849110116516,
0.11256857855361596,-0.004012297338803876,
0.11261845386533666,-0.036186526417904416,
0.11266832917705735,0.0014055132318933645,
0.11271820448877805,-0.009832464381816649,
0.11276807980049876,0.004672005916436394,
0.11281795511221945,0.004465643411189643,
0.11286783042394015,-0.0030898600974910966,
0.11291770573566084,-0.01777528975929679,
0.11296758104738154,-0.01338437808071229,
0.11301745635910225,0.025899462905995086,
0.11306733167082295,0.022611270253790533,
0.11311720698254364,-0.027388499437145053,
0.11316708229426434,-0.027705895155202397,
0.11321695760598503,-0.013515054777568564,
0.11326683291770574,-0.00774232654879095,
0.11331670822942644,-0.04800142114861116,
0.11336658354114713,-0.0007519810630683731,
0.11341645885286783,-0.0012652100544323017,
0.11346633416458853,-0.0039630897129919965,
0.11351620947630922,0.0006510991416262485,
0.11356608478802993,0.004407218548299089,
0.11361596009975063,-0.014337373221671276,
0.11366583541147132,-0.008889373137001045,
0.11371571072319202,-0.005718538534427231,
0.11376558603491271,-0.0019463414848768252,
0.11381546134663342,0.01657367178124032,
0.11386533665835412,-0.009329993624586534,
0.11391521197007481,-0.009371210486222735,
0.11396508728179551,-0.01682897833068591,
0.1140149625935162,0.0016005297495058054,
0.1140648379052369,0.01696955482711044,
0.11411471321695761,-0.00586511207975776,
0.1141645885286783,0.00522604564582679,
0.114214463840399,0.01713493751740449,
0.1142643391521197,-0.01776755920159763,
0.1143142144638404,-0.009318553227217733,
0.1143640897755611,-0.005547122853979,
0.1144139650872818,0.005387230052695685,
0.1144638403990025,0.005309367875509048,
0.11451371571072319,-4.725668080484617e-05,
0.11456359102244389,0.002522757504696751,
0.11461346633416458,0.02014533489469114,
0.11466334164588529,0.003138430308719093,
0.11471321695760599,-0.002856272739533478,
0.11476309226932668,-0.006324904679667008,
0.11481296758104738,0.005971553226784788,
0.11486284289276807,-0.0059557911299578815,
0.11491271820448878,-0.008897103482469122,
0.11496259351620948,-0.004913126496907282,
0.11501246882793018,0.03166068672875824,
0.11506234413965087,0.008616132935618599,
0.11511221945137157,-0.013347370621382363,
0.11516209476309226,-0.0012627438837596776,
0.11521197007481297,-0.0075748586385747715,
0.11526184538653367,-0.0074392820670153535,
0.11531172069825436,0.010078135728056404,
0.11536159600997506,0.028196539271593112,
0.11541147132169575,0.0004606050092346237,
0.11546134663341646,0.004826307487930584,
0.11551122194513716,0.01590447989061345,
0.11556109725685786,-0.0006032006422300052,
0.11561097256857855,0.02053917389577995,
0.11566084788029925,-0.02039244538769796,
0.11571072319201996,0.014784004723294287,
0.11576059850374065,-0.01206645114216652,
0.11581047381546135,0.01937193882446636,
0.11586034912718204,-0.004281234688817045,
0.11591022443890274,0.016734657093897848,
0.11596009975062344,0.009962554739578989,
0.11600997506234415,0.017683443000611268,
0.11605985037406484,0.00885927630246871,
0.11610972568578554,0.006846139672898065,
0.11615960099750623,-0.0038150945241612645,
0.11620947630922693,-0.02192938963861156,
0.11625935162094764,0.0002089025770390402,
0.11630922693266833,0.0011729648328181793,
0.11635910224438903,0.031076081491258734,
0.11640897755610972,0.020819900201249058,
0.11645885286783042,0.011050425408646095,
0.11650872817955112,0.007902935325607034,
0.11655860349127183,0.010812083476776231,
0.11660847880299252,-0.0001393150161512289,
0.11665835411471322,0.0124517064280262,
0.11670822942643391,-0.016872875792065076,
0.11675810473815461,0.020472678730963416,
0.11680798004987532,-0.0022680715854070423,
0.11685785536159601,0.013760903814965352,
0.11690773067331671,0.010713540055292884,
0.1169576059850374,0.00990987177684757,
0.1170074812967581,0.025402683654593024,
0.1170573566084788,0.03321417911814541,
0.1171072319201995,0.005164054240054927,
0.1171571072319202,0.005205485861510874,
0.1172069825436409,0.03153264689586466,
0.1172568578553616,0.013500154026467618,
0.11730673316708229,0.012855270589383162,
0.117356608478803,0.005342503751437622,
0.1174064837905237,0.014381357665670244,
0.11745635910224439,0.012767441672794103,
0.11750623441396509,0.015364037842982207,
0.11755610972568578,0.018896499104177476,
0.11760598503740648,0.024557213286428705,
0.11765586034912719,0.006549543590389728,
0.11770573566084788,0.014163328992550801,
0.11775561097256858,0.026890974983014355,
0.11780548628428927,0.0056059009522459406,
0.11785536159600997,0.028677365665856522,
0.11790523690773068,-0.011276686846627998,
0.11795511221945137,-0.0012456171049431523,
0.11800498753117207,0.012670817063939946,
0.11805486284289277,0.023004892134068488,
0.11810473815461346,0.03608760680011154,
0.11815461346633417,0.04130777608738623,
0.11820448877805487,0.012956542632389403,
0.11825436408977556,0.020546311708648738,
0.11830423940149626,0.01184350816190093,
0.11835411471321695,-0.006163855136732076,
0.11840399002493765,0.01746808250256741,
0.11845386533665836,0.012806023587560868,
0.11850374064837906,0.002935971896510084,
0.11855361596009975,0.029231511736819045,
0.11860349127182045,0.02875879041873694,
0.11865336658354114,0.02207246429887775,
0.11870324189526185,0.027994327061462633,
0.11875311720698255,0.02139667575306512,
0.11880299251870324,0.04062973651569176,
0.11885286783042394,0.020580455522363966,
0.11890274314214463,-0.007093046520920632,
0.11895261845386533,0.024968093531034442,
0.11900249376558604,0.016284126979338884,
0.11905236907730674,0.03941376003181797,
0.11910224438902743,0.023866072795633998,
0.11915211970074813,0.0038140465012372234,
0.11920199501246882,0.030727736458784884,
0.11925187032418953,0.05815104277802861,
0.11930174563591023,0.00251513052177885,
0.11935162094763092,0.04623886345217765,
0.11940149625935162,0.018685136231675458,
0.11945137157107232,0.03303169958946086,
0.11950124688279301,0.04426211270747987,
0.11955112219451372,0.012674998912165487,
0.11960099750623442,0.03234319217045365,
0.11965087281795511,0.041872127674129976,
0.11970074812967581,0.04658117503274212,
0.1197506234413965,0.01850588473712926,
0.11980049875311721,0.041377614976414775,
0.11985037406483791,0.000483605807617922,
0.1199002493765586,0.052318769745834375,
0.1199501246882793,0.04046062860044477,
0.12,0.04708052747300808,
0.1200498753117207,0.046021137800005496,
0.1200997506234414,0.011676633480870509,
0.1201496259351621,0.019354757819015293,
0.12019950124688279,0.062493318502000156,
0.12024937655860349,0.006491745648539771,
0.12029925187032418,0.0399585970219425,
0.1203491271820449,0.03273115899108367,
0.12039900249376559,0.049275704089869976,
0.12044887780548628,0.0231395110812467,
0.12049875311720698,0.04003734524764782,
0.12054862842892768,0.032494464068428736,
0.12059850374064839,0.051064953254205486,
0.12064837905236908,-0.009333451888593025,
0.12069825436408978,0.030450119409250805,
0.12074812967581047,0.005569416805504261,
0.12079800498753117,0.045323900468255865,
0.12084788029925186,0.03416633442564266,
0.12089775561097257,0.020914030119603726,
0.12094763092269327,0.03718529968619974,
0.12099750623441397,0.05764849902310357,
0.12104738154613466,0.040222836955625056,
0.12109725685785536,0.019433230733901324,
0.12114713216957607,0.04107055656637617,
0.12119700748129676,0.03516697018561729,
0.12124688279301746,0.048433806970832965,
0.12129675810473815,0.025449144757736634,
0.12134663341645885,0.045901690755968554,
0.12139650872817954,0.02052724767106114,
0.12144638403990025,0.03011554731738369,
0.12149625935162095,0.043584002152046185,
0.12154613466334165,0.037951633128518146,
0.12159600997506234,0.06004472707685998,
0.12164588528678304,0.027674809017683495,
0.12169576059850375,0.041907954670144645,
0.12174563591022444,0.032606213597646844,
0.12179551122194514,0.03883195429092494,
0.12184538653366583,0.038459785672194415,
0.12189526184538653,0.029920320735481187,
0.12194513715710723,0.017149472591505538,
0.12199501246882793,0.037068442768255376,
0.12204488778054863,0.03858596352980956,
0.12209476309226933,0.02522279256866278,
0.12214463840399002,0.03178322360115379,
0.12219451371571072,0.02975818484518293,
0.12224438902743143,0.057962733282782945,
0.12229426433915212,0.03470769731806463,
0.12234413965087282,0.02680897707462745,
0.12239401496259351,0.007853671702256735,
0.12244389027431421,0.06275856836160251,
0.12249376558603492,0.02995090006442078,
0.12254364089775562,0.03633766192578167,
0.12259351620947631,0.024936755542044227,
0.122643391521197,0.026072725016148216,
0.1226932668329177,0.024395456421180885,
0.1227431421446384,0.03652749632818332,
0.12279301745635911,0.026629038260547393,
0.1228428927680798,0.004615876709011219,
0.1228927680798005,0.06089535092453043,
0.1229426433915212,0.010014336569407905,
0.12299251870324189,0.026680797596831476,
0.1230423940149626,0.012892404590424015,
0.1230922693266833,0.036169821735642,
0.12314214463840399,0.03685619954202272,
0.12319201995012469,0.003546745115312739,
0.12324189526184538,-0.009277103821332143,
0.12329177057356608,0.015008764051811905,
0.12334164588528679,0.03908212639878243,
0.12339152119700748,0.04026210792888391,
0.12344139650872818,0.02676861599385229,
0.12349127182044888,0.016594855954702992,
0.12354114713216957,0.009590378420640535,
0.12359102244389028,0.019685625570324522,
0.12364089775561098,0.036120157223318086,
0.12369077306733167,-0.002919339718220046,
0.12374064837905237,0.0472230821316127,
0.12379052369077306,0.01854046943277275,
0.12384039900249376,0.02897846969237708,
0.12389027431421447,0.017912601547565507,
0.12394014962593516,0.01797207620124775,
0.12399002493765586,0.010221826518284162,
0.12403990024937656,0.017593557114450837,
0.12408977556109725,0.025656009605022997,
0.12413965087281796,0.02895021327403567,
0.12418952618453866,0.015220057461953852,
0.12423940149625935,0.04308226059222624,
0.12428927680798005,0.03373821096784511,
0.12433915211970074,0.019969212923645483,
0.12438902743142144,0.03233865908642432,
0.12443890274314215,0.015087773714313885,
0.12448877805486284,0.052132726402175714,
0.12453865336658354,0.014770252075068956,
0.12458852867830424,0.013456528314502487,
0.12463840399002493,0.02447015346976709,
0.12468827930174564,0.009699231414696408,
0.12473815461346634,0.003989522255642284,
0.12478802992518703,0.01793260378772917,
0.12483790523690773,0.016251998101239295,
0.12488778054862842,0.0037914278488622756,
0.12493765586034913,0.032630482770476615,
0.12498753117206983,0.006996282542212575,
0.12503740648379053,0.016023764561833815,
0.12508728179551123,0.007081376533605684,
0.12513715710723192,0.03428113302461095,
0.12518703241895263,0.03441561064714787,
0.1252369077306733,0.03745130679016792,
0.12528678304239402,0.0207198554910743,
0.1253366583541147,-0.015486887415597173,
0.1253865336658354,0.023787869303821055,
0.12543640897755612,0.029688546958209924,
0.1254862842892768,0.017651185717126264,
0.1255361596009975,-0.002341194887071213,
0.1255860349127182,0.023324528114814575,
0.1256359102244389,0.02589270845667727,
0.1256857855361596,-0.0006111361792473739,
0.1257356608478803,0.008932182146261012,
0.125785536159601,-0.013755101122284081,
0.12583541147132168,-0.0018243536730922893,
0.1258852867830424,0.001598054960904453,
0.1259351620947631,0.011555854315880588,
0.12598503740648379,0.013746689731852602,
0.1260349127182045,0.017490787004585284,
0.12608478802992518,0.0039696571814499156,
0.1261346633416459,-0.019674055615654072,
0.1261845386533666,0.025653720227120327,
0.12623441396508728,0.011568039941644188,
0.126284289276808,-0.021815585914705695,
0.12633416458852867,-0.022029485207360654,
0.12638403990024938,0.0038945275126782575,
0.1264339152119701,0.009821376835878467,
0.12648379052369077,-0.004601030478540578,
0.12653366583541148,-0.025248260873955146,
0.12658354114713216,-0.0032284792314860155,
0.12663341645885287,-0.0009064511765795582,
0.12668329177057355,0.011691837251364662,
0.12673316708229426,0.019034373060790186,
0.12678304239401497,0.008467150970522678,
0.12683291770573565,-0.011709903870424464,
0.12688279301745636,0.014914650462010046,
0.12693266832917705,-0.013657016560881556,
0.12698254364089775,0.021269191151846948,
0.12703241895261846,-0.002319752984213495,
0.12708229426433915,0.0011253461791207002,
0.12713216957605986,0.013195226523838352,
0.12718204488778054,0.01690710371073426,
0.12723192019950125,-0.005099861064708588,
0.12728179551122196,0.0015634974556814718,
0.12733167082294264,-0.0033586925495940707,
0.12738154613466335,0.03107634669112267,
0.12743142144638403,-0.02529193034109271,
0.12748129675810474,0.008728264489363976,
0.12753117206982545,0.009249517707664818,
0.12758104738154613,0.008284236899527009,
0.12763092269326684,0.012278629600771675,
0.12768079800498752,-0.003713070354317459,
0.12773067331670823,0.03380337715043537,
0.1277805486284289,-0.003436837514496303,
0.12783042394014962,-0.002999011880471316,
0.12788029925187033,-0.006352021132778639,
0.12793017456359101,0.007152834346229975,
0.12798004987531172,-0.01299836591279721,
0.1280299251870324,0.020212173187039405,
0.12807980049875312,-0.0010470745443354576,
0.12812967581047383,0.00747680957494991,
0.1281795511221945,0.0004079552334147786,
0.12822942643391522,-0.026564235993077064,
0.1282793017456359,-0.016758226270815406,
0.1283291770573566,0.006485575355876839,
0.12837905236907732,-0.01341599618078619,
0.128428927680798,-0.0023423447229540015,
0.1284788029925187,-0.008048873653225808,
0.1285286783042394,-0.002393597504393095,
0.1285785536159601,-0.024702692793161195,
0.1286284289276808,-0.008752135654551445,
0.1286783042394015,-0.01759068220946859,
0.1287281795511222,0.010465585083349348,
0.12877805486284288,-0.007621657400948547,
0.1288279301745636,-0.019716767496103342,
0.1288778054862843,-0.006490359613227931,
0.12892768079800498,-0.010943866298394021,
0.1289775561097257,-0.0002503902101875623,
0.12902743142144638,-0.00940985054508284,
0.12907730673316709,-0.0006623933547834264,
0.12912718204488777,0.0013028071791869817,
0.12917705735660848,-0.013533894768286923,
0.1292269326683292,0.01106164233677854,
0.12927680798004987,-0.02482045382897318,
0.12932668329177058,0.0025260867029751333,
0.12937655860349126,0.013471228884099858,
0.12942643391521197,0.009211774796071551,
0.12947630922693268,0.013209106078036588,
0.12952618453865336,0.0036337884194040954,
0.12957605985037407,-0.04208880996004719,
0.12962593516209475,-0.013207450691968041,
0.12967581047381546,-0.005074146146595043,
0.12972568578553617,-0.010831700103164667,
0.12977556109725685,-0.008103815778727133,
0.12982543640897756,-0.011534949380840665,
0.12987531172069824,-0.010773613222479389,
0.12992518703241895,-0.002128832852068486,
0.12997506234413966,-0.00013261912528450027,
0.13002493765586035,-0.006296335630569782,
0.13007481296758105,-0.0298790632642415,
0.13012468827930174,-0.009474242554994567,
0.13017456359102245,-0.0014020029839531848,
0.13022443890274316,-0.009897635327658432,
0.13027431421446384,-0.019187098114247996,
0.13032418952618455,-0.017996522003254578,
0.13037406483790523,-0.003987450931238142,
0.13042394014962594,-0.009889845652243441,
0.13047381546134662,-0.024339508365647043,
0.13052369077306733,-0.027669316909062727,
0.13057356608478804,-0.020858496703159143,
0.13062344139650872,0.016441318569269947,
0.13067331670822943,-0.014087622439435735,
0.1307231920199501,-0.004788106090340436,
0.13077306733167082,-0.00882080374644825,
0.13082294264339153,-0.019966411603336048,
0.13087281795511221,0.0011019100603595587,
0.13092269326683292,-0.0025587744936360424,
0.1309725685785536,-0.01952304735252173,
0.13102244389027431,-0.004278353119722237,
0.13107231920199502,-7.194193850964398e-05,
0.1311221945137157,-0.04710890666682662,
0.13117206982543642,0.010357297948738358,
0.1312219451371571,0.011618817319658307,
0.1312718204488778,0.004684533201610776,
0.13132169576059852,-0.011577385614251704,
0.1313715710723192,-0.0298801395030591,
0.1314214463840399,-0.008342162960471357,
0.1314713216957606,-0.008812859250020798,
0.1315211970074813,-0.008995475019445599,
0.13157107231920198,0.0020999329409473726,
0.1316209476309227,-0.01997240980337247,
0.1316708229426434,-0.011869655607611738,
0.13172069825436408,-0.02039107318674869,
0.1317705735660848,0.009609497577413402,
0.13182044887780547,-0.0021153880689623317,
0.13187032418952618,-0.021137330396402153,
0.1319201995012469,-0.012924670736187294,
0.13197007481296757,-0.018291049285548523,
0.13201995012468828,-0.00999340730642388,
0.13206982543640897,-0.004459000230034137,
0.13211970074812968,-0.008204015592438196,
0.13216957605985039,-0.030171873437445706,
0.13221945137157107,-0.01093694100593421,
0.13226932668329178,0.022712200947046485,
0.13231920199501246,-0.03591948526850242,
0.13236907730673317,0.005096421995225073,
0.13241895261845388,-0.024493428890974847,
0.13246882793017456,-0.0032133512510428945,
0.13251870324189527,-0.02754846321137318,
0.13256857855361595,-0.006928100684594529,
0.13261845386533666,-0.026081542091347915,
0.13266832917705737,-0.023533457070782512,
0.13271820448877805,0.0016936346300180753,
0.13276807980049876,-0.018564904063789828,
0.13281795511221944,-0.017405096674165222,
0.13286783042394015,-0.024484873524455383,
0.13291770573566083,-0.016378684200435853,
0.13296758104738154,-0.02636844645221554,
0.13301745635910225,-0.029560117609359345,
0.13306733167082294,0.0055286982634267234,
0.13311720698254365,-0.005537452369963239,
0.13316708229426433,-0.033961789075721616,
0.13321695760598504,-0.015542750788581318,
0.13326683291770575,0.0114530154722637,
0.13331670822942643,-0.013757310384811443,
0.13336658354114714,-0.006150883819758936,
0.13341645885286782,-0.005171770048253154,
0.13346633416458853,-0.0026293567732403778,
0.13351620947630924,-0.03381792938089919,
0.13356608478802992,0.014056561038000081,
0.13361596009975063,-0.01565146786706749,
0.1336658354114713,0.023590040811481756,
0.13371571072319202,-0.003595558769266903,
0.13376558603491273,0.006488943768637413,
0.1338154613466334,-0.016464295407167623,
0.13386533665835412,0.019755459188515005,
0.1339152119700748,0.018648033379862917,
0.13396508728179551,0.00941818542929655,
0.1340149625935162,-0.014273193036128801,
0.1340648379052369,0.018599230293924948,
0.13411471321695762,-0.0286289644420216,
0.1341645885286783,0.0036519580186098683,
0.134214463840399,0.0012142602403392168,
0.1342643391521197,-0.006532270849577903,
0.1343142144638404,-0.010784309163779813,
0.1343640897755611,0.02080062679269585,
0.1344139650872818,0.02776331647814121,
0.1344638403990025,0.010577496686016916,
0.13451371571072318,0.005669499710083605,
0.1345635910224439,0.02238196439857487,
0.1346134663341646,0.02131265816912572,
0.13466334164588528,-0.009403783898798103,
0.134713216957606,-0.026751577879703343,
0.13476309226932667,-0.01951681247801089,
0.13481296758104738,-0.003668529292535347,
0.1348628428927681,-0.019727524553254452,
0.13491271820448877,0.0059322587285209685,
0.13496259351620948,0.004973328610416238,
0.13501246882793017,0.012248063935697372,
0.13506234413965088,-0.012652408439389917,
0.13511221945137158,0.0035947276570478404,
0.13516209476309227,-0.0021516962858918838,
0.13521197007481298,-0.014021828534158587,
0.13526184538653366,-0.01385719351408125,
0.13531172069825437,-0.003447143419959428,
0.13536159600997505,-0.016188705144188215,
0.13541147132169576,0.017536881249860407,
0.13546134663341647,-0.013239782666484408,
0.13551122194513715,0.013878641456948814,
0.13556109725685786,0.02005683860676472,
0.13561097256857854,0.0032966953792259563,
0.13566084788029925,-0.015759015392494233,
0.13571072319201996,0.0005324246957544177,
0.13576059850374064,-0.005105367517904401,
0.13581047381546135,-0.009650071972518702,
0.13586034912718203,-0.003589174924857259,
0.13591022443890274,-0.011086881678363096,
0.13596009975062345,0.002603924261389721,
0.13600997506234414,0.007887650165968764,
0.13605985037406484,0.008807698085830939,
0.13610972568578553,0.013347321141407565,
0.13615960099750624,0.003690426386191721,
0.13620947630922695,0.029388167001044376,
0.13625935162094763,0.03076436892450951,
0.13630922693266834,0.0024716344979196503,
0.13635910224438902,0.006751625413383706,
0.13640897755610973,0.020736041699736984,
0.1364588528678304,0.012637363980219484,
0.13650872817955112,0.00041032355949881597,
0.13655860349127183,0.018989601352909648,
0.1366084788029925,-0.008309659467497062,
0.13665835411471322,-0.014923211064477025,
0.1367082294264339,0.024787463660351068,
0.1367581047381546,-0.013692031606765746,
0.13680798004987532,0.006618068221921271,
0.136857855361596,-0.001956901927591523,
0.1369077306733167,0.024319578325661565,
0.1369576059850374,0.01674141923238865,
0.1370074812967581,0.024375086733419198,
0.13705735660847881,0.03917195052112874,
0.1371072319201995,0.001876969446334635,
0.1371571072319202,0.0337273516088541,
0.1372069825436409,0.017252739717153413,
0.1372568578553616,0.02918396673420235,
0.1373067331670823,-0.02085575179961161,
0.137356608478803,0.015463978533708681,
0.1374064837905237,0.04818675224410893,
0.13745635910224438,0.005587159459157795,
0.1375062344139651,0.019822104100106545,
0.1375561097256858,0.022264500105123822,
0.13760598503740648,0.005247422428555009,
0.1376558603491272,0.02888685994885304,
0.13770573566084787,0.01595921773559046,
0.13775561097256858,0.03465571402774552,
0.13780548628428926,0.0408399013373613,
0.13785536159600997,0.012890705020902959,
0.13790523690773068,0.010284977857998616,
0.13795511221945136,0.013394658186900225,
0.13800498753117207,0.026573457580265983,
0.13805486284289276,0.010380728786198362,
0.13810473815461347,0.04685053548466296,
0.13815461346633418,0.011617716567211462,
0.13820448877805486,0.02246603703121343,
0.13825436408977557,0.04422514248444,
0.13830423940149625,0.005684225048003925,
0.13835411471321696,0.0037786758354210782,
0.13840399002493767,-0.0013046413604993617,
0.13845386533665835,0.03908233189811849,
0.13850374064837906,0.030629087905388236,
0.13855361596009974,0.029664322315198294,
0.13860349127182045,0.006557552761250411,
0.13865336658354116,0.0236931992005783,
0.13870324189526184,0.01772222391145398,
0.13875311720698255,0.028038769003067784,
0.13880299251870323,0.007295887735549029,
0.13885286783042394,0.021786252485691493,
0.13890274314214462,0.021760147722944406,
0.13895261845386533,-0.009031670604992686,
0.13900249376558604,0.03287233298258648,
0.13905236907730673,0.007702171854733625,
0.13910224438902744,-0.0013440051005019077,
0.13915211970074812,0.05170718455666633,
0.13920199501246883,0.04072261322501677,
0.13925187032418954,0.015426267107945911,
0.13930174563591022,0.039942264912228284,
0.13935162094763093,0.06542300345148538,
0.1394014962593516,0.08387486798385771,
0.13945137157107232,0.01797907252167933,
0.13950124688279303,0.04046809190886361,
0.1395511221945137,0.005721025141816407,
0.13960099750623442,0.044292970091399236,
0.1396508728179551,0.036458984743861104,
0.1397007481296758,0.03849085760014368,
0.13975062344139652,0.02339022756523222,
0.1398004987531172,0.039854660447891266,
0.1398503740648379,0.03706400146805566,
0.1399002493765586,0.036399002188683305,
0.1399501246882793,0.040187262543272304,
0.14,0.0003343769358384145,
0.1400498753117207,0.03336369317333208,
0.1400997506234414,0.057904981477665186,
0.1401496259351621,0.02397867835963512,
0.1401995012468828,0.049265120063661474,
0.14024937655860348,0.04464736414466327,
0.1402992518703242,0.01369518366216789,
0.1403491271820449,0.052188339505577254,
0.14039900249376558,0.0024393445340001284,
0.1404488778054863,0.032373558546758385,
0.14049875311720697,0.05765877659823754,
0.14054862842892768,0.03216181387616309,
0.1405985037406484,0.06018684857128462,
0.14064837905236907,0.039461102730356634,
0.14069825436408978,0.03235203038054993,
0.14074812967581046,0.029177265847118276,
0.14079800498753117,0.0067302677027083965,
0.14084788029925188,0.04016163864320179,
0.14089775561097256,0.020323781412289334,
0.14094763092269327,0.017593551754230982,
0.14099750623441396,0.018499717975064032,
0.14104738154613466,0.024889361899302798,
0.14109725685785537,0.04037501242603743,
0.14114713216957606,0.012460887594874438,
0.14119700748129677,0.032369733301367346,
0.14124688279301745,0.05525376691140309,
0.14129675810473816,0.01246830607959137,
