time,amplitude,label
0.0,-0.010609966523279933,
4.987531172069826e-05,-0.01817371008205102,
9.975062344139652e-05,0.01105681993348392,
0.00014962593516209475,-0.009631440109074024,
0.00019950124688279303,-0.018566531533572184,
0.00024937655860349125,-0.017016146578927728,
0.0002992518703241895,0.018571335524585234,
0.00034912718204488776,-0.0055730328759299825,
0.00039900249376558606,-0.005122176429922735,
0.0004488778054862843,-0.010779663807144308,
0.0004987531172069825,0.009700218841337656,
0.0005486284289276808,-0.024248274785705595,
0.000598503740648379,-0.018619593901554456,
0.0006483790523690773,-0.0002933054421104279,
0.0006982543640897755,-0.018809695287689616,
0.0007481296758104738,-0.016697351662037882,
0.0007980049875311721,0.01014080177209353,
0.0008478802992518703,-0.013467849061849045,
0.0008977556109725686,0.003883560271514267,
0.0009476309226932668,-0.00918125982340563,
0.000997506234413965,0.004556258818203781,
0.0010473815461346633,-0.0006387268440431514,
0.0010972568578553616,-0.0120089377389706,
0.00114713216957606,-0.0026345233574081033,
0.001197007481296758,-0.020235949537258477,
0.0012468827930174563,-0.02082934065930932,
0.0012967581047381546,-0.0007236946957744253,
0.001346633416458853,-0.002135953245593949,
0.001396508728179551,0.006336569520719641,
0.0014463840399002493,0.01167475298840795,
0.0014962593516209476,0.018930074956881173,
0.001546134663341646,0.002454980649335781,
0.0015960099750623442,-0.0001990960761664926,
0.0016458852867830423,-0.022138365470187413,
0.0016957605985037406,0.01185417149979183,
0.001745635910224439,-0.007490992381247706,
0.0017955112219451373,0.008412301796074308,
0.0018453865336658353,0.009683589825498143,
0.0018952618453865336,0.006573616741103473,
0.001945137157107232,0.022977086361957614,
0.00199501246882793,0.0035564472113275196,
0.0020448877805486283,0.008200776866049322,
0.0020947630922693266,0.006831015851362499,
0.002144638403990025,0.0005897933627986942,
0.0021945137157107233,0.015332590502765898,
0.0022443890274314216,0.0038721638076649823,
0.00229426433915212,0.012771690948250897,
0.0023441396508728177,0.00879476244917289,
0.002394014962593516,-0.009290007678222627,
0.0024438902743142144,0.022850582611952656,
0.0024937655860349127,0.014977462700751093,
0.002543640897755611,0.003688804179993259,
0.0025935162094763093,-0.014142515401651373,
0.0026433915211970076,-0.0013009730533996445,
0.002693266832917706,-0.0028100929109674076,
0.002743142144638404,-0.021164498060632066,
0.002793017456359102,-0.013827621855300488,
0.0028428927680798004,-0.0020266269112029396,
0.0028927680798004987,0.0031290364243231356,
0.002942643391521197,0.007744577476284776,
0.0029925187032418953,-0.018264047921742667,
0.0030423940149625936,-0.00860836888581617,
0.003092269326683292,0.008951457636465134,
0.00314214463840399,0.016009690208535637,
0.0031920199501246885,0.015032406508117975,
0.0032418952618453864,0.0015674373662079369,
0.0032917705735660847,0.02497782443658668,
0.003341645885286783,0.017102702496664898,
0.0033915211970074813,-0.0016272624307818433,
0.0034413965087281796,0.008166906985175575,
0.003491271820448878,0.02122897396754874,
0.003541147132169576,-0.003175888333517245,
0.0035910224438902745,0.019072295389025155,
0.0036408977556109724,0.014249540415722375,
0.0036907730673316707,-0.0016006506302559675,
0.003740648379052369,-0.007164302477386425,
0.0037905236907730673,0.01296747307055557,
0.0038403990024937656,-0.011784130663777901,
0.003890274314214464,0.002682280510113681,
0.003940149625935162,0.021871019861060277,
0.00399002493765586,0.006925579709347767,
0.004039900249376558,0.0038845323046804558,
0.004089775561097257,0.0015103806408407403,
0.004139650872817955,0.007952953596022171,
0.004189526184538653,0.013774104325756592,
0.004239401496259352,0.016309850783938908,
0.00428927680798005,0.023798416855075707,
0.004339152119700748,0.04273948612206045,
0.0043890274314214465,0.027904315775082157,
0.004438902743142145,0.005211599981434646,
0.004488778054862843,0.07301738191326121,
0.004538653366583541,0.03195859387507217,
0.00458852867830424,1.993507030737668e-05,
0.004638403990024938,-0.0108336731289631,
0.0046882793017456355,-0.0004287471314223558,
0.004738154613466334,0.018875602311052286,
0.004788029925187032,-0.006526483913997672,
0.00483790523690773,0.0002641636754743687,
0.004887780548628429,0.019053748759051473,
0.004937655860349127,0.002993875174946592,
0.004987531172069825,0.008365794023537805,
0.005037406483790524,0.027637210137769073,
0.005087281795511222,0.034442416057375594,
0.00513715710723192,-0.0037770945741016325,
0.0051870324189526185,0.013270764359836502,
0.005236907730673317,-0.011302222258513454,
0.005286783042394015,0.019413264129766686,
0.0053366583541147134,0.0502237332507632,
0.005386533665835412,0.014570974342123136,
0.00543640897755611,0.018652607729138657,
0.005486284289276808,0.03036539301341307,
0.005536159600997507,0.044829589670490146,
0.005586034912718204,0.047713519727507134,
0.005635910224438902,0.022198939801438642,
0.005685785536159601,0.020081724679787357,
0.005735660847880299,0.027583042408405103,
0.005785536159600997,0.002439436450545309,
0.005835411471321696,0.04382728474478812,
0.005885286783042394,0.05341867759574159,
0.005935162094763092,0.00998676615698438,
0.0059850374064837905,0.014815667109101266,
0.006034912718204489,0.016054488258050392,
0.006084788029925187,0.012422424613396418,
0.0061346633416458855,0.016336650147706695,
0.006184538653366584,-0.012580135159464177,
0.006234413965087282,0.02622448502905565,
0.00628428927680798,0.01984494602103473,
0.006334164588528679,0.04803800309819953,
0.006384039900249377,0.043532864257672985,
0.006433915211970074,0.01501366254930329,
0.006483790523690773,0.037849804551458185,
0.006533665835411471,-0.0074418237711166915,
0.006583541147132169,0.025770804681320272,
0.006633416458852868,-0.005059741669673826,
0.006683291770573566,-0.002785389797319456,
0.006733167082294264,0.017662535371648906,
0.0067830423940149626,0.004827729472715904,
0.006832917705735661,0.005123209032946307,
0.006882793017456359,0.013993432095521799,
0.0069326683291770575,0.025700989682362944,
0.006982543640897756,0.008186171515687384,
0.007032418952618454,0.000521854094191105,
0.007082294264339152,0.037214875561059776,
0.007132169576059851,0.0049365392123075155,
0.007182044887780549,0.004148843686582752,
0.007231920199501247,-0.007190793526544937,
0.007281795511221945,0.03829141746615121,
0.007331670822942643,0.007454070836527904,
0.007381546134663341,0.028098498080913026,
0.00743142144638404,0.00674756589911491,
0.007481296758104738,0.0018472040217528476,
0.007531172069825436,0.020889218040501936,
0.007581047381546135,0.025179225020921802,
0.007630922693266833,0.008574644132608318,
0.007680798004987531,0.023121777360680155,
0.0077306733167082295,0.025288251450302564,
0.007780548628428928,-0.005066528449957114,
0.007830423940149626,-0.024016921128669298,
0.007880299251870324,0.025917425078807798,
0.007930174563591023,0.016441659198282943,
0.00798004987531172,0.020247801249193977,
0.00802992518703242,0.0006663124992216211,
0.008079800498753117,0.017005477025997008,
0.008129675810473816,0.009352700249714184,
0.008179551122194513,0.01801057670298246,
0.008229426433915213,0.019231757027942314,
0.00827930174563591,0.022380275125700712,
0.00832917705735661,0.04147850915155596,
0.008379052369077307,0.031233160430379152,
0.008428927680798006,0.017023737334846373,
0.008478802992518703,0.024262653986135266,
0.0085286783042394,0.023223595068197034,
0.0085785536159601,0.03849329750602733,
0.008628428927680797,0.01834357341398302,
0.008678304239401496,0.011812696294799209,
0.008728179551122194,0.007694605549031581,
0.008778054862842893,0.005386521350659932,
0.00882793017456359,0.010017858040820993,
0.00887780548628429,-0.002051794635738867,
0.008927680798004987,0.005095846061163981,
0.008977556109725686,0.01690013980013668,
0.009027431421446384,0.02374770554449034,
0.009077306733167083,0.025149970528728215,
0.00912718204488778,0.03425025156662484,
0.00917705735660848,-0.010633961990979905,
0.009226932668329177,-0.0018069614030010103,
0.009276807980049876,0.025130463153393328,
0.009326683291770574,-0.009268491042470883,
0.009376558603491271,0.01922264234039258,
0.00942643391521197,0.01999710252395772,
0.009476309226932668,0.003069750364990605,
0.009526184538653367,0.02788549209228607,
0.009576059850374064,0.02655486368013723,
0.009625935162094763,0.02799635191182223,
0.00967581047381546,0.03029695716917838,
0.00972568578553616,0.0016273665076511675,
0.009775561097256857,-0.0019241282381490012,
0.009825436408977557,0.020161698749626412,
0.009875311720698254,-0.01445061839275876,
0.009925187032418953,0.015880174687904144,
0.00997506234413965,0.014116719713713472,
0.01002493765586035,0.04172115891461179,
0.010074812967581047,0.03196975418600323,
0.010124688279301746,-0.010360094031487195,
0.010174563591022444,0.004856643244205017,
0.010224438902743141,0.008074310629276755,
0.01027431421446384,0.025157841998055992,
0.010324189526184538,-0.0003404327712074433,
0.010374064837905237,-0.014892157434084702,
0.010423940149625935,0.0005188200898275357,
0.010473815461346634,0.010627943979745518,
0.010523690773067331,-0.009251979730913075,
0.01057356608478803,0.02512349691829464,
0.010623441396508728,0.007224132697599359,
0.010673316708229427,-0.00610097276498015,
0.010723192019950124,0.007790328148190084,
0.010773067331670824,0.0017161111203363218,
0.010822942643391521,0.0227505500868935,
0.01087281795511222,0.012163623560679177,
0.010922693266832918,0.018857522897129254,
0.010972568578553617,0.009407315203353639,
0.011022443890274314,-0.005915163010487046,
0.011072319201995013,0.006253193333959751,
0.01112219451371571,0.001774174243737857,
0.011172069825436408,-0.0035612593129040575,
0.011221945137157107,-0.006931413214206723,
0.011271820448877805,-0.004933917583135096,
0.011321695760598504,-0.013555767131506533,
0.011371571072319201,0.01828066271636514,
0.0114214463840399,-0.01717228243627632,
0.011471321695760598,-0.0027831133561658935,
0.011521197007481297,0.006744869094870234,
0.011571072319201995,-0.03285005144116523,
0.011620947630922694,0.028689433006971757,
0.011670822942643391,1.1586517067828448e-05,
0.01172069825436409,-0.03617455635915379,
0.011770573566084788,0.007216349515926812,
0.011820448877805487,0.00835824412294285,
0.011870324189526184,0.011657776277356759,
0.011920199501246884,-0.031084905275501052,
0.011970074812967581,-0.013376539227060986,
0.012019950124688279,0.01286810899610927,
0.012069825436408978,0.013852815762342967,
0.012119700748129675,-0.022258604754752807,
0.012169576059850374,0.011589226574494037,
0.012219451371571072,-0.012172197778464684,
0.012269326683291771,-0.001046122176722353,
0.012319201995012468,-0.006902893562843483,
0.012369077306733168,0.002838333685048597,
0.012418952618453865,-0.0052631439927098116,
0.012468827930174564,0.004413215775423306,
0.012518703241895262,-0.004846762128901358,
0.01256857855361596,0.013219111720925434,
0.012618453865336658,0.012436602315308586,
0.012668329177057357,-0.005810559911589541,
0.012718204488778055,0.00849694849319468,
0.012768079800498754,-0.014629815042234751,
0.012817955112219451,0.001521258897713912,
0.012867830423940149,-0.0029704027970612924,
0.012917705735660848,-0.022045868802084048,
0.012967581047381545,-0.020275505245527493,
0.013017456359102245,-0.016427685059348503,
0.013067331670822942,-0.015818158807810442,
0.013117206982543641,-0.014070434318953166,
0.013167082294264339,0.0075451066955723005,
0.013216957605985038,-0.0206760558873847,
0.013266832917705735,0.008932896023094161,
0.013316708229426434,-0.0030489988521867645,
0.013366583541147132,-0.005931625010500981,
0.013416458852867831,0.015069950329112293,
0.013466334164588529,-0.0015598679835139035,
0.013516209476309228,-0.002515804966282526,
0.013566084788029925,-7.811285579027195e-05,
0.013615960099750624,-0.010204438385147785,
0.013665835411471322,0.008893388576739535,
0.01371571072319202,-0.022924377634992367,
0.013765586034912718,-0.010064209073848153,
0.013815461346633416,-0.009190561446550904,
0.013865336658354115,0.01420143536931981,
0.013915211970074812,-0.00942531526907792,
0.013965087281795512,-0.024616352337233048,
0.014014962593516209,-0.029085285539926082,
0.014064837905236908,-0.0028019304194486297,
0.014114713216957606,-0.012699631997442819,
0.014164588528678305,-0.011956307281413149,
0.014214463840399002,0.004500880007286143,
0.014264339152119701,-0.005985987858522628,
0.014314214463840399,-0.00037870130239881297,
0.014364089775561098,-0.02069497457184706,
0.014413965087281795,-0.008686324676964782,
0.014463840399002495,-0.017586091245403414,
0.014513715710723192,-0.013421451803123383,
0.01456359102244389,-0.03286175577226731,
0.014613466334164589,-0.04025949961239575,
0.014663341645885286,-0.005491175992981184,
0.014713216957605985,-0.005759740427882999,
0.014763092269326683,-0.027267721108438815,
0.014812967581047382,0.0011579177818938809,
0.01486284289276808,-0.007980973219852897,
0.014912718204488778,-0.006765265658640489,
0.014962593516209476,-0.024666188601108578,
0.015012468827930175,-0.007686452402620725,
0.015062344139650873,-0.010453151334298652,
0.015112219451371572,-0.011613432116343688,
0.01516209476309227,-0.011427614539835176,
0.015211970074812968,-0.03625126065792774,
0.015261845386533666,-0.016972405347245315,
0.015311720698254365,-0.005708142726254695,
0.015361596009975062,-0.02239243945590938,
0.01541147132169576,-0.009911729259640331,
0.015461346633416459,-0.026903842534784228,
0.015511221945137156,-0.018275456570621084,
0.015561097256857856,-0.04047680396681734,
0.015610972568578553,-0.022677618636408846,
0.015660847880299252,0.006750054722159275,
0.01571072319201995,-0.01701847662462276,
0.015760598503740647,-0.004437630895315769,
0.015810473815461346,-0.02548176531994549,
0.015860349127182045,0.0009698249283773969,
0.015910224438902745,-0.045140708987885955,
0.01596009975062344,-0.01387317442931702,
0.01600997506234414,-0.029602321560696934,
0.01605985037406484,-0.02028795081543181,
0.016109725685785538,-0.03104447239672005,
0.016159600997506234,-0.003662493859489779,
0.016209476309226933,-0.036132731097129445,
0.016259351620947632,-0.029505666935838084,
0.016309226932668328,0.013083603295568857,
0.016359102244389027,-0.033140716346594594,
0.016408977556109726,-0.012657385466451402,
0.016458852867830425,-0.0266832713437629,
0.01650872817955112,-0.023701803602050577,
0.01655860349127182,-0.011678694327545997,
0.01660847880299252,-0.023894041450876907,
0.01665835411471322,-0.007671189336645356,
0.016708229426433914,-0.012975091540924234,
0.016758104738154613,-0.011469478690515157,
0.016807980049875312,0.0005940987003760431,
0.01685785536159601,-0.02866758512457466,
0.016907730673316707,-0.024989597559756226,
0.016957605985037406,-0.038394820406904645,
0.017007481296758106,-0.028474122638057223,
0.0170573566084788,-0.057088574019365894,
0.0171072319201995,-0.03597096540504035,
0.0171571072319202,-0.026941678276317327,
0.0172069825436409,-0.028767599558156567,
0.017256857855361595,-0.013160158975318689,
0.017306733167082294,-0.011536574365235575,
0.017356608478802993,-0.011721973686595975,
0.017406483790523692,-0.02573241706153527,
0.017456359102244388,-0.01430917499490157,
0.017506234413965087,-0.019217379715269104,
0.017556109725685786,-0.0022733499300346526,
0.017605985037406485,-0.012908752441675254,
0.01765586034912718,-0.019289511489005085,
0.01770573566084788,-0.01152918117160823,
0.01775561097256858,-0.03454178732512024,
0.01780548628428928,-0.050244362983283344,
0.017855361596009974,-0.032361194127371096,
0.017905236907730673,-0.04767979249622755,
0.017955112219451373,-0.032807475107592986,
0.018004987531172068,-0.03247079089329541,
0.018054862842892767,-0.02250739404941874,
0.018104738154613467,-0.002678430902171151,
0.018154613466334166,0.005269102914123167,
0.01820448877805486,-0.014158160790660632,
0.01825436408977556,-0.025329782406183804,
0.01830423940149626,-0.009841094627971076,
0.01835411471321696,-0.047215545883612084,
0.018403990024937655,-0.004859269229118878,
0.018453865336658354,-0.04450068388719606,
0.018503740648379053,-0.009425048445926038,
0.018553615960099752,-0.007483700039566774,
0.018603491271820448,-0.009200803582766637,
0.018653366583541147,-0.005197959020113656,
0.018703241895261846,-0.018517877642308736,
0.018753117206982542,-0.017710326266936076,
0.01880299251870324,-0.030510480479682134,
0.01885286783042394,-0.04571959306296715,
0.01890274314214464,-0.0074197534667832295,
0.018952618453865335,-0.004897498146891135,
0.019002493765586034,-0.010629283807850992,
0.019052369077306733,-0.004568195194732928,
0.019102244389027433,0.017816683180659366,
0.01915211970074813,-0.03334088210756514,
0.019201995012468828,-0.008544480027787115,
0.019251870324189527,-0.018338270537309295,
0.019301745635910226,-0.028722874131648417,
0.01935162094763092,-0.011397352573896534,
0.01940149625935162,-0.02646680816955262,
0.01945137157107232,-0.018205879733826417,
0.01950124688279302,-0.006842936247999655,
0.019551122194513715,-0.015309307495892936,
0.019600997506234414,0.018486340590831547,
0.019650872817955113,-0.003117637634239615,
0.01970074812967581,0.007753798403106211,
0.019750623441396508,-0.01972615008418501,
0.019800498753117207,-0.012200720962719541,
0.019850374064837906,-0.0262167776177975,
0.019900249376558602,-0.014285397831263914,
0.0199501246882793,-0.010384125672171767,
0.02,-0.021748361007594336,
0.0200498753117207,0.003975542364732353,
0.020099750623441395,0.015258266639350775,
0.020149625935162094,0.005270145425683274,
0.020199501246882794,0.01655044187778468,
0.020249376558603493,0.02214870874369885,
0.02029925187032419,-0.003548652958210217,
0.020349127182044888,-0.011414008913370691,
0.020399002493765587,-0.02269901754495792,
0.020448877805486283,0.008843214386285743,
0.02049875311720698,-0.004956881519599813,
0.02054862842892768,-0.006653118658461956,
0.02059850374064838,0.01005171367164695,
0.020648379052369076,0.022469849192753043,
0.020698254364089775,0.005013268687118538,
0.020748129675810474,0.020078311974982006,
0.020798004987531173,-0.006862171732161934,
0.02084788029925187,-0.012158396772598098,
0.020897755610972568,0.0010542634675394635,
0.020947630922693267,0.006985507014606833,
0.020997506234413967,-0.00939273635876052,
0.021047381546134662,-0.004107330586872253,
0.02109725685785536,-0.016187469295965637,
0.02114713216957606,0.01579430052370799,
0.02119700748129676,0.0012594776962899191,
0.021246882793017455,-0.0022860390782733107,
0.021296758104738155,0.007312578379074417,
0.021346633416458854,-0.00020329571138709776,
0.02139650872817955,-0.0006683568300293985,
0.02144638403990025,0.013318192858100762,
0.021496259351620948,0.018823901946195265,
0.021546134663341647,-0.004714759104873441,
0.021596009975062343,0.013200814797672652,
0.021645885286783042,0.0013090940375430583,
0.02169576059850374,0.004673809579809772,
0.02174563591022444,0.03358799354681249,
0.021795511221945136,-0.004440085648842392,
0.021845386533665835,0.025319442355359163,
0.021895261845386534,0.014424189667292005,
0.021945137157107233,0.007556019184615018,
0.02199501246882793,-0.001215340906526312,
0.02204488778054863,0.012422285066658517,
0.022094763092269327,0.008994230529129333,
0.022144638403990027,-0.004447041133807279,
0.022194513715710722,0.0033647902371230004,
0.02224438902743142,0.008841827271687412,
0.02229426433915212,-0.018926600525395992,
0.022344139650872816,0.015639831317107368,
0.022394014962593516,0.02357042612914311,
0.022443890274314215,0.013010643287295003,
0.022493765586034914,0.005917027567732462,
0.02254364089775561,0.024738918092963635,
0.02259351620947631,-0.0031768829420555766,
0.022643391521197008,0.005305188453994716,
0.022693266832917707,-0.004632718842378005,
0.022743142144638403,0.02620995075149754,
0.022793017456359102,0.008930566962688204,
0.0228428927680798,-0.0019859478732533378,
0.0228927680798005,0.01398484157227897,
0.022942643391521196,0.028128626789389738,
0.022992518703241895,0.005045206002977157,
0.023042394014962594,0.0418431038230611,
0.02309226932668329,-0.00021032332025457817,
0.02314214463840399,0.03207835052331589,
0.02319201995012469,0.0067421086538662365,
0.023241895261845388,0.008102125291330625,
0.023291770573566083,0.015503971429628742,
0.023341645885286783,-0.006223049461872106,
0.02339152119700748,-0.015036803095704269,
0.02344139650872818,0.018872161749912065,
0.023491271820448877,-0.014159684279369754,
0.023541147132169576,0.008758393132631687,
0.023591022443890275,0.015818733496118863,
0.023640897755610974,-0.0068352789658443075,
0.02369077306733167,-0.0016516292911818598,
0.02374064837905237,0.025377176272791208,
0.023790523690773068,0.009538005829208485,
0.023840399002493767,0.01627975544540919,
0.023890274314214463,0.024576189814749416,
0.023940149625935162,-0.0012863382073876155,
0.02399002493765586,0.005523154658589748,
0.024039900249376557,0.027823980536774692,
0.024089775561097256,-0.00214345806995667,
0.024139650872817955,0.02503236677568344,
0.024189526184538655,-0.0005601940769995352,
0.02423940149625935,0.018707501679731127,
0.02428927680798005,0.005681102479282175,
0.02433915211970075,0.010404149824382657,
0.024389027431421448,-0.0003098183001147524,
0.024438902743142144,0.012582557915143611,
0.024488778054862843,0.02674441488842075,
0.024538653366583542,0.0016735921270428986,
0.02458852867830424,0.021474001805892835,
0.024638403990024937,-0.000206209190151109,
0.024688279301745636,0.024951258600969434,
0.024738154613466335,0.004976163107805295,
0.02478802992518703,0.041639487898684324,
0.02483790523690773,0.011358345180661974,
0.02488778054862843,0.019627168313457635,
0.02493765586034913,0.004075626075704901,
0.024987531172069824,0.037900056500138946,
0.025037406483790523,0.016312731120896422,
0.025087281795511222,0.04718904127648798,
0.02513715710723192,0.04482253242852454,
0.025187032418952617,0.01913305172175728,
0.025236907730673316,0.015672295726711746,
0.025286783042394016,0.02761083067650008,
0.025336658354114715,-0.00331772802838929,
0.02538653366583541,0.002232039318935935,
0.02543640897755611,0.0076576653214004056,
0.02548628428927681,0.03423926144865053,
0.025536159600997508,0.036461297100682404,
0.025586034912718204,0.04238446230849913,
0.025635910224438903,0.007362451775130341,
0.025685785536159602,0.026756882305738,
0.025735660847880298,0.013904699535354809,
0.025785536159600997,0.014400276656505537,
0.025835411471321696,0.011112769121032158,
0.025885286783042395,0.0005371218445295797,
0.02593516209476309,-0.007978362885154178,
0.02598503740648379,0.0346747934701221,
0.02603491271820449,0.023959361687356122,
0.02608478802992519,0.05444598027349085,
0.026134663341645884,0.03793461438517665,
0.026184538653366583,0.004532786719060492,
0.026234413965087282,0.02725780788456443,
0.02628428927680798,0.029656516119390946,
0.026334164588528677,0.026793326596405192,
0.026384039900249377,0.033375943690330145,
0.026433915211970076,0.010454402971587343,
0.02648379052369077,0.033347121886608225,
0.02653366583541147,0.042558980303525784,
0.02658354114713217,0.047354720451718735,
0.02663341645885287,0.004677170645114099,
0.026683291770573565,0.012777196429348471,
0.026733167082294264,0.02864651978089599,
0.026783042394014963,0.02456705351859452,
0.026832917705735662,0.021048298181877183,
0.026882793017456358,0.019148557617248776,
0.026932668329177057,-0.009393585322383463,
0.026982543640897756,0.026942970495553182,
0.027032418952618455,0.01910095084316228,
0.02708229426433915,0.04608576458642301,
0.02713216957605985,0.02312054018077877,
0.02718204488778055,0.0025323062040692526,
0.02723192019950125,0.024702722384442315,
0.027281795511221944,0.013589879031608059,
0.027331670822942643,-0.015400082251753915,
0.027381546134663343,0.019711032633400977,
0.02743142144638404,0.03620930035973231,
0.027481296758104738,0.017088882538833602,
0.027531172069825437,0.020441029583819707,
0.027581047381546136,0.03413137290145084,
0.02763092269326683,0.016964923075626467,
0.02768079800498753,0.05048654534909069,
0.02773067331670823,0.020606037573034502,
0.02778054862842893,0.027136612379262178,
0.027830423940149625,0.002799544825791603,
0.027880299251870324,0.02638773794028333,
0.027930174563591023,-0.009372970989393662,
0.027980049875311722,0.013966960546842499,
0.028029925187032418,0.03785314369193701,
0.028079800498753117,0.036625409894822845,
0.028129675810473816,-0.01264632334418754,
0.028179551122194512,0.03396451110341923,
0.02822942643391521,0.01381839155166371,
0.02827930174563591,0.005130777022680902,
0.02832917705735661,0.024004365340651673,
0.028379052369077305,0.019052521825512838,
0.028428927680798004,0.030545252102197173,
0.028478802992518704,0.015076560818901113,
0.028528678304239403,-0.00014214843223007284,
0.0285785536159601,0.03361121460792713,
0.028628428927680798,0.01612617622698021,
0.028678304239401497,0.02239974043195562,
0.028728179551122196,0.016674318223430403,
0.02877805486284289,0.018084786064326654,
0.02882793017456359,0.022338275756015234,
0.02887780548628429,-0.0031784838773014946,
0.02892768079800499,0.01229349291041455,
0.028977556109725685,0.02437422644370361,
0.029027431421446384,0.0007770368218346403,
0.029077306733167083,0.03255042996521071,
0.02912718204488778,0.02070047639004612,
0.029177057356608478,0.021185681749670685,
0.029226932668329177,0.024842868774640654,
0.029276807980049877,0.002721213739937778,
0.029326683291770572,-0.01314019339057739,
0.02937655860349127,5.6805251071431057e-05,
0.02942643391521197,-0.001463266146692916,
0.02947630922693267,0.015617538306895863,
0.029526184538653365,0.025745488370110897,
0.029576059850374065,0.01604708377452441,
0.029625935162094764,0.019215231607474,
0.029675810473815463,0.039281864579710335,
0.02972568578553616,-0.009726687985484818,
0.029775561097256858,0.038460932251338655,
0.029825436408977557,0.02386524984997295,
0.029875311720698253,0.01699257467861222,
0.029925187032418952,0.013865647568981102,
0.02997506234413965,0.00948642085912501,
0.03002493765586035,0.01679545882451744,
0.030074812967581046,0.018858239643865418,
0.030124688279301745,-0.0014863561032761596,
0.030174563591022444,-0.01749061075662929,
0.030224438902743143,-0.006402507141215354,
0.03027431421446384,0.00010332948690438756,
0.03032418952618454,-0.005795465091839428,
0.030374064837905237,0.03258397212637831,
0.030423940149625937,-0.0049789311825279604,
0.030473815461346632,0.0328127003693007,
0.03052369077306733,-0.0040605154567893795,
0.03057356608478803,0.02494212179284178,
0.03062344139650873,0.010462623538883309,
0.030673316708229426,0.030689979212369017,
0.030723192019950125,0.021093669543846873,
0.030773067331670824,-0.006990908725252413,
0.03082294264339152,-0.004516270091288846,
0.03087281795511222,-0.0018493754738607218,
0.030922693266832918,0.013958317459180039,
0.030972568578553617,0.0040782911404410975,
0.031022443890274313,-0.003964426144265169,
0.031072319201995012,0.01840310297584448,
0.03112219451371571,0.025081017109823342,
0.03117206982543641,-0.0021108670001966775,
0.031221945137157106,-0.01493449625401456,
0.03127182044887781,-0.00524138975956775,
0.031321695760598504,0.02014311017004505,
0.0313715710723192,0.013958957219165805,
0.0314214463840399,-0.02208264857241856,
0.0314713216957606,-0.0007118249887215111,
0.031521197007481294,0.03235164037516097,
0.031571072319202,0.005571852014848741,
0.03162094763092269,0.009782313345992949,
0.03167082294264339,-0.02889554556256907,
0.03172069825436409,0.014220276810217272,
0.03177057356608479,-0.0005309083535028824,
0.03182044887780549,-0.013943433983589812,
0.031870324189526185,-0.0018289429312455803,
0.03192019950124688,0.004519068111216947,
0.03197007481296758,0.01871937052853768,
0.03201995012468828,-0.016236012030541265,
0.032069825436408975,0.00568746309683571,
0.03211970074812968,-0.007964360949780135,
0.03216957605985037,-0.016150773383453162,
0.032219451371571076,0.01380185100583018,
0.03226932668329177,-0.006442840766566318,
0.03231920199501247,-0.03872357108925358,
0.03236907730673317,-0.007531997977746325,
0.032418952618453865,-0.001019956627720491,
0.03246882793017456,-0.027777122506187742,
0.032518703241895264,-0.023109876389040638,
0.03256857855361596,-0.016375244966191478,
0.032618453865336655,-0.02906475769008196,
0.03266832917705736,-0.010624013620332395,
0.032718204488778053,0.006507153571138225,
0.032768079800498756,0.0011189828886711013,
0.03281795511221945,0.007834594756340643,
0.03286783042394015,0.008455932549477515,
0.03291770573566085,-0.011416223407934314,
0.032967581047381546,0.002336996623871176,
0.03301745635910224,-5.810361334517705e-05,
0.033067331670822944,0.010363123843336998,
0.03311720698254364,-0.0021157217571618515,
0.03316708229426434,0.03847870188297299,
0.03321695760598504,-0.03200419427788656,
0.033266832917705734,-0.024972510072754688,
0.03331670822942644,-0.005487818562065001,
0.03336658354114713,-0.022774201575893847,
0.03341645885286783,-0.013984692662144249,
0.03346633416458853,-0.009904160614628572,
0.033516209476309226,-0.0020693394738450464,
0.03356608478802992,0.0007887214236778472,
0.033615960099750625,-0.0012827293020074761,
0.03366583541147132,0.0021225560679541833,
0.03371571072319202,-0.028395885148670363,
0.03376558603491272,0.0031122038051938344,
0.033815461346633414,0.0020282978589643095,
0.03386533665835412,-0.015141877073438826,
0.03391521197007481,-0.0282791017263888,
0.03396508728179551,-0.015538888725351235,
0.03401496259351621,-0.0007169207693183306,
0.03406483790523691,-0.009674712242209112,
0.0341147132169576,-0.002742105821415602,
0.034164588528678305,-0.017211267126924105,
0.034214463840399,-0.03449275902050449,
0.034264339152119704,-0.011030321876537137,
0.0343142144638404,-0.013549547941304535,
0.034364089775561095,-0.01914427366736647,
0.0344139650872818,0.0024780374273857247,
0.03446384039900249,-0.025649799559870706,
0.03451371571072319,-0.014721845968662694,
0.03456359102244389,-0.011857022299713544,
0.03461346633416459,0.001023959181550585,
0.03466334164588529,0.008022692294171914,
0.034713216957605986,-0.015095422400022188,
0.03476309226932668,0.017155133830924936,
0.034812967581047384,-0.0025179008853816656,
0.03486284289276808,0.013520480296266128,
0.034912718204488775,0.002902408067983527,
0.03496259351620948,-0.02227723584713434,
0.035012468827930174,-0.021726310527229203,
0.03506234413965087,-0.02230941330153363,
0.03511221945137157,-0.002784940639334722,
0.03516209476309227,-0.031038298241399705,
0.03521197007481297,-0.03876212196793159,
0.035261845386533666,0.009079188996099836,
0.03531172069825436,-0.02289642678409676,
0.035361596009975065,0.0029411549481787383,
0.03541147132169576,0.004489897685014441,
0.035461346633416456,-0.035932221772883514,
0.03551122194513716,-0.013921535803918642,
0.035561097256857854,-0.01270346734634036,
0.03561097256857856,-0.023518862307469846,
0.03566084788029925,-0.0002683006569036868,
0.03571072319201995,0.00883195616719714,
0.03576059850374065,-0.03188159239622723,
0.03581047381546135,-0.016757040275130825,
0.03586034912718204,-0.03501333260535812,
0.035910224438902745,-0.01817051085548892,
0.03596009975062344,0.015002619888714732,
0.036009975062344136,-0.014508427544675104,
0.03605985037406484,-0.02964399965826733,
0.036109725685785535,-0.049669997200295725,
0.03615960099750624,-0.03636231469038448,
0.03620947630922693,0.0032709615796255136,
0.03625935162094763,-0.003776069913815584,
0.03630922693266833,-0.025291440598914583,
0.03635910224438903,-0.002370789120908349,
0.03640897755610972,-0.025913990466025223,
0.036458852867830426,-0.007953933078053246,
0.03650872817955112,-0.015778913270051667,
0.036558603491271824,-0.006457557919587301,
0.03660847880299252,-0.017701161034277137,
0.036658354114713215,-0.021811399627759794,
0.03670822942643392,0.0034369360598535716,
0.036758104738154614,0.008865865195224726,
0.03680798004987531,0.0005089350221539925,
0.03685785536159601,-0.011924271381045513,
0.03690773067331671,-0.00942390954272486,
0.0369576059850374,-0.0028084596790109786,
0.037007481296758106,-0.011931232863257256,
0.0370573566084788,-0.02141906702345864,
0.037107231920199504,0.004453659766414115,
0.0371571072319202,-0.029852900004703455,
0.037206982543640896,-0.014719173324820584,
0.0372568578553616,-0.036291988504162515,
0.037306733167082294,-0.02102417932626064,
0.03735660847880299,-0.031639950941199466,
0.03740648379052369,-0.028333412071323623,
0.03745635910224439,-0.03155727096242826,
0.037506234413965084,-0.00629793297704233,
0.037556109725685786,-0.0016396835485273566,
0.03760598503740648,-0.014817101305599456,
0.037655860349127185,0.0015018972347092506,
0.03770573566084788,-0.012313378957213836,
0.037755610972568576,-0.02934625972735503,
0.03780548628428928,-0.0035292080063213972,
0.037855361596009975,-0.02752319718182066,
0.03790523690773067,-0.005787280617091712,
0.03795511221945137,-0.035730912483637856,
0.03800498753117207,-0.01937094456770646,
0.03805486284289277,0.01438625037361117,
0.03810473815461347,-0.014011742911565879,
0.03815461346633416,-0.016919284958941662,
0.038204488778054865,-0.0019629028075580524,
0.03825436408977556,-0.023587647237370345,
0.03830423940149626,-0.023228457746806534,
0.03835411471321696,0.0026814639010935247,
0.038403990024937655,-0.028587452956605267,
0.03845386533665835,0.013707955361116395,
0.03850374064837905,-0.0427574866813178,
0.03855361596009975,-0.03319551146826294,
0.03860349127182045,-0.0025928934440773536,
0.03865336658354115,-0.01453318863828124,
0.03870324189526184,0.025808490760908194,
0.038753117206982546,-0.013618093312444271,
0.03880299251870324,-0.029976278855337955,
0.03885286783042394,-0.01604630646444539,
0.03890274314214464,-0.011194225903796488,
0.038952618453865336,0.0009606738024452426,
0.03900249376558604,-0.0008245045909740217,
0.039052369077306734,-0.016812352134043865,
0.03910224438902743,-0.0035011296701584855,
0.03915211970074813,-0.017995514979201196,
0.03920199501246883,-0.009929633344718055,
0.039251870324189524,-0.021740679232394866,
0.039301745635910226,-0.0026100412757263753,
0.03935162094763092,-0.030263767540381115,
0.03940149625935162,-0.018412470934010987,
0.03945137157107232,-0.024058418172302264,
0.039501246882793016,0.004273028769495871,
0.03955112219451372,0.023835282542998996,
0.039600997506234414,0.0022715970714349276,
0.03965087281795511,-0.010660073242541368,
0.03970074812967581,-0.02481978038622424,
0.03975062344139651,0.0028791354444607682,
0.039800498753117204,0.004355612169480381,
0.03985037406483791,-0.022704737280504483,
0.0399002493765586,-0.0006710422613373035,
0.039950124688279305,-0.035122716546913145,
0.04,-0.012604615397927788,
0.0400498753117207,-0.012071634046068485,
0.0400997506234414,-0.0360319868479647,
0.040149625935162095,-0.034412292005361646,
0.04019950124688279,-0.011993985760349234,
0.04024937655860349,-0.009135112761852434,
0.04029925187032419,-0.02622228120586164,
0.040349127182044885,0.008784380519070347,
0.04039900249376559,-0.0005886343923470726,
0.04044887780548628,-0.00740732704731421,
0.040498753117206986,-0.02584071366792807,
0.04054862842892768,0.003177430364493062,
0.04059850374064838,0.01730049961523877,
0.04064837905236908,0.013850025789225196,
0.040698254364089775,-0.016738138554533457,
0.04074812967581047,0.011475390615501986,
0.040798004987531174,0.013744387290457991,
0.04084788029925187,-4.118491995915366e-06,
0.040897755610972565,-0.015431205761083854,
0.04094763092269327,-0.0023866160848825123,
0.04099750623441396,0.017905537670380618,
0.041047381546134666,0.005762134231361968,
0.04109725685785536,0.02053364430224173,
0.04114713216957606,0.009462542199680048,
0.04119700748129676,0.01273194203777842,
0.041246882793017456,0.016539760125751025,
0.04129675810473815,-0.004711075741938853,
0.041346633416458854,-0.044676815729314034,
0.04139650872817955,-0.011740394910749479,
0.04144638403990025,0.024815231489733944,
0.04149625935162095,-0.0037355919847276934,
0.041546134663341644,0.029201709583545274,
0.04159600997506235,0.019889128957525277,
0.04164588528678304,-0.01121032153779972,
0.04169576059850374,0.03009464830076581,
0.04174563591022444,0.01708029248157783,
0.041795511221945136,-0.01695660425185725,
0.04184538653366583,0.010093801535367226,
0.041895261845386535,0.022058881539689608,
0.04194513715710723,-0.0023531280543373544,
0.04199501246882793,0.028026532514342267,
0.04204488778054863,0.011292316442633073,
0.042094763092269324,0.012347756877680647,
0.04214463840399003,0.0012026231198121202,
0.04219451371571072,0.019348121751589356,
0.04224438902743142,-0.0017810805886371234,
0.04229426433915212,0.03167939907485408,
0.04234413965087282,0.027339772557603843,
0.04239401496259352,-0.011905547965751393,
0.042443890274314215,0.004038597833442587,
0.04249376558603491,0.009179553730961087,
0.042543640897755614,0.01065382720365034,
0.04259351620947631,0.015486398292553926,
0.042643391521197005,0.016212873894774563,
0.04269326683291771,0.027418620236404123,
0.0427431421446384,-0.002340767767210797,
0.0427930174563591,0.0388437006462736,
0.0428428927680798,-0.0015193747024089196,
0.0428927680798005,0.013435998768464708,
0.0429426433915212,0.009514172929008916,
0.042992518703241896,0.012530859696991945,
0.04304239401496259,0.005775104421648633,
0.043092269326683294,0.018372369066555254,
0.04314214463840399,0.0339988340006394,
0.043192019950124685,0.028687990098747958,
0.04324189526184539,0.018391129816741764,
0.043291770573566084,0.015159334859088476,
0.043341645885286786,0.026550638267903798,
0.04339152119700748,0.004588571659557285,
0.04344139650872818,0.018607141503248808,
0.04349127182044888,0.002622453248155401,
0.043541147132169576,0.006967873392594023,
0.04359102244389027,0.03340124049390654,
0.043640897755610975,0.004604900392887657,
0.04369077306733167,-0.0013042617769325228,
0.043740648379052366,0.021175425263326046,
0.04379052369077307,0.01872188237794192,
0.043840399002493764,0.02896701415154241,
0.04389027431421447,0.014606736183962136,
0.04394014962593516,0.009733552571837055,
0.04399002493765586,0.012660628852294,
0.04403990024937656,0.011805681207121884,
0.04408977556109726,0.008938957818271047,
0.04413965087281795,0.03533444924951002,
0.044189526184538655,0.025423391359720715,
0.04423940149625935,0.0560813108171119,
0.04428927680798005,0.00411811272618256,
0.04433915211970075,0.008774242720104504,
0.044389027431421445,0.01577745849146561,
0.04443890274314215,0.02661982825184481,
0.04448877805486284,0.012710456274339959,
0.04453865336658354,0.005249550698800438,
0.04458852867830424,0.01568946582167838,
0.04463840399002494,0.019157276086656516,
0.04468827930174563,0.013481805624420536,
0.044738154613466335,0.016489914380807342,
0.04478802992518703,-0.0013397948574580924,
0.044837905236907734,0.04162774922645994,
0.04488778054862843,0.034197242621863605,
0.044937655860349125,0.015721664696779176,
0.04498753117206983,0.01668759159377827,
0.045037406483790524,0.03656974469977922,
0.04508728179551122,0.016391991096962155,
0.04513715710723192,-0.0023030082214911367,
0.04518703241895262,0.017886557599226048,
0.04523690773067331,0.01994950214951861,
0.045286783042394016,0.004333296351681934,
0.04533665835411471,0.03138537633423255,
0.045386533665835414,0.031423096895334804,
0.04543640897755611,0.020293873895147432,
0.045486284289276806,0.01425990457681033,
0.04553615960099751,-0.0029398947804435555,
0.045586034912718204,0.0025538246105273853,
0.0456359102244389,0.02084744903085404,
0.0456857855361596,0.028227276700405996,
0.0457356608478803,0.03767547651072977,
0.045785536159601,0.03326871967046244,
0.045835411471321696,0.0367898265416072,
0.04588528678304239,-0.007276363297486717,
0.045935162094763095,0.029511782541388098,
0.04598503740648379,0.025964736656958632,
0.046034912718204486,0.011980436591486952,
0.04608478802992519,0.028151297760114907,
0.046134663341645885,0.011398753133851608,
0.04618453865336658,0.033898026097881874,
0.04623441396508728,0.03357710469484937,
0.04628428927680798,0.04955663335493872,
0.04633416458852868,0.028493336162644357,
0.04638403990024938,0.02835250559571938,
0.04643391521197007,-0.015951861281899384,
0.046483790523690775,0.0477553586249229,
0.04653366583541147,0.012527923868006701,
0.04658354114713217,-0.008504525428736455,
0.04663341645885287,0.04025529122923946,
0.046683291770573565,0.022128094102608922,
0.04673316708229427,0.025459128055417928,
0.04678304239401496,0.025550564306453274,
0.04683291770573566,0.029851552109835307,
0.04688279301745636,0.03658314460676639,
0.04693266832917706,0.030089810319062844,
0.04698254364089775,0.007318906107706455,
0.047032418952618456,0.00669295811391965,
0.04708229426433915,0.03227005157377693,
0.04713216957605985,-0.004276465979452911,
0.04718204488778055,0.013912321901701694,
0.047231920199501246,-0.006616673033974906,
0.04728179551122195,0.04766046059773148,
0.047331670822942644,0.032883839104958346,
0.04738154613466334,0.03474049025277642,
0.04743142144638404,0.028305726877567487,
0.04748129675810474,0.030573571728776523,
0.047531172069825434,0.02989118592639433,
0.047581047381546136,0.04765324728496268,
0.04763092269326683,0.04948060678575279,
0.047680798004987535,0.018960614908628604,
0.04773067331670823,0.02128159527186027,
0.047780548628428926,-0.0017863087401944443,
0.04783042394014963,0.02555586536432836,
0.047880299251870324,0.05447409438365594,
0.04793017456359102,0.0094438804998948,
0.04798004987531172,0.027728424874776076,
0.04802992518703242,0.03239716661915926,
0.048079800498753114,-0.005759659683745616,
0.04812967581047382,0.040724472580670024,
0.04817955112219451,0.01721334014840232,
0.048229426433915215,0.04112135763453092,
0.04827930174563591,0.02169451425047943,
0.048329177057356607,0.025493618174035164,
0.04837905236907731,0.030273592995361857,
0.048428927680798005,0.010013720304898093,
0.0484788029925187,0.040933201922463844,
0.0485286783042394,0.013413474418280596,
0.0485785536159601,0.023272588276011294,
0.048628428927680795,0.02978551105738044,
0.0486783042394015,0.005895959372331993,
0.04872817955112219,0.023219234278440724,
0.048778054862842896,0.010566515816326423,
0.04882793017456359,0.01934656428168658,
0.04887780548628429,0.019227758301004,
0.04892768079800499,0.03233626636109301,
0.048977556109725685,0.007594871009981956,
0.04902743142144638,0.01752599941024952,
0.049077306733167084,0.011501129131911439,
0.04912718204488778,0.029324394357638315,
0.04917705735660848,-0.0063072984570090584,
0.04922693266832918,0.036301623596312386,
0.04927680798004987,0.0035898768842219063,
0.049326683291770576,-0.003433703073623725,
0.04937655860349127,0.030825089162537712,
0.04942643391521197,0.009967982056105721,
0.04947630922693267,0.022345330586356484,
0.049526184538653366,0.020984053515701973,
0.04957605985037406,0.019153484441870428,
0.049625935162094764,-0.0007971362614367476,
0.04967581047381546,0.013636992786958005,
0.04972568578553616,0.012741817080455024,
0.04977556109725686,0.006066380025496304,
0.049825436408977554,0.007319059014307657,
0.04987531172069826,0.004627649756663108,
0.04992518703241895,0.006262118508278521,
0.04997506234413965,0.0006547453893091838,
0.05002493765586035,-0.0072257330055729065,
0.050074812967581046,-0.00755362735804618,
0.05012468827930175,0.022539697355076205,
0.050174563591022445,0.017097487121465648,
0.05022443890274314,-0.008081620463395852,
0.05027431421446384,-0.008564380510460014,
0.05032418952618454,0.010553956819456405,
0.050374064837905234,0.021150638073030636,
0.05042394014962594,0.023906097317537435,
0.05047381546134663,0.028273529362102555,
0.05052369077306733,0.021186089798924515,
0.05057356608478803,0.016636871545597808,
0.05062344139650873,0.016666088840367892,
0.05067331670822943,-0.016338438169418885,
0.050723192019950125,0.0027328634528728454,
0.05077306733167082,-0.01025589849109954,
0.050822942643391524,0.0065512923792695075,
0.05087281795511222,-0.003346379190482274,
0.050922693266832915,-0.02802152840840619,
0.05097256857855362,0.012714348141910952,
0.05102244389027431,-0.014802548890367861,
0.051072319201995016,0.03410668723495349,
0.05112219451371571,0.005236701166264247,
0.05117206982543641,0.0195492076064571,
0.05122194513715711,0.011524275707022738,
0.051271820448877806,0.014904398229988012,
0.0513216957605985,-0.0116989119595254,
0.051371571072319204,-0.0008115554409628264,
0.0514214463840399,0.009635039866637014,
0.051471321695760595,0.0024061511366222474,
0.0515211970074813,0.0052936021947043825,
0.051571072319201994,-0.015594127084080015,
0.051620947630922696,0.0015527616950174713,
0.05167082294264339,0.012952963575931595,
0.05172069825436409,0.02996540146264347,
0.05177057356608479,0.014696167454085512,
0.051820448877805486,-0.003909407960321145,
0.05187032418952618,-0.015637149432392777,
0.051920199501246884,-0.004035593156292408,
0.05197007481296758,0.0039988640156845435,
0.052019950124688276,-0.010827396108745266,
0.05206982543640898,0.023199810838868986,
0.052119700748129674,0.024658149148749333,
0.05216957605985038,-0.0013737188680315402,
0.05221945137157107,-0.03867252529477451,
0.05226932668329177,0.008931547951636636,
0.05231920199501247,-0.004011985665121525,
0.05236907730673317,-0.0250642062437877,
0.05241895261845386,0.0068886261367301985,
0.052468827930174565,0.013342506861811336,
0.05251870324189526,-0.02240576410563767,
0.05256857855361596,-0.01027222651151451,
0.05261845386533666,0.004069483345184828,
0.052668329177057355,0.010024595108484632,
0.05271820448877806,0.00964523808204708,
0.05276807980049875,0.016847831351945244,
0.05281795511221945,0.009551725091199049,
0.05286783042394015,0.00792181579951552,
0.05291770573566085,-0.007448202591590708,
0.05296758104738154,-0.005310737214842532,
0.053017456359102245,0.027417249712840708,
0.05306733167082294,-0.003163676179933883,
0.053117206982543644,-0.0021507332718677338,
0.05316708229426434,0.004784433911544979,
0.053216957605985035,-0.0028183016215371447,
0.05326683291770574,0.017025872809304527,
0.053316708229426434,-0.021111647338128432,
0.05336658354114713,0.0035943271265961923,
0.05341645885286783,0.0004454945450333529,
0.05346633416458853,-0.033043900566469185,
0.05351620947630923,-0.014312233703046696,
0.053566084788029926,-0.009040312904646013,
0.05361596009975062,-0.027081659026995664,
0.053665835411471324,-0.025552413305608545,
0.05371571072319202,-0.042931377444238784,
0.053765586034912716,-0.0003434553847421872,
0.05381546134663342,0.014742509943328017,
0.053865336658354114,0.019659867684035225,
0.05391521197007481,-0.02621895676368976,
0.05396508728179551,-0.002833554289415346,
0.05401496259351621,-0.02650360991398181,
0.05406483790523691,0.014925437342674559,
0.054114713216957606,-0.01612028293291142,
0.0541645885286783,-0.005937476291192128,
0.054214463840399005,-0.04543619573324357,
0.0542643391521197,-0.011411156202274455,
0.054314214463840396,-0.006466608831098315,
0.0543640897755611,-0.02593039537245057,
0.054413965087281795,-0.0011782377437328812,
0.0544638403990025,-0.009615596402541301,
0.05451371571072319,-0.0009913177038939503,
0.05456359102244389,0.017330494830410225,
0.05461346633416459,-0.030139195699657506,
0.05466334164588529,-0.02410210970279432,
0.05471321695760598,0.010541322372849937,
0.054763092269326685,-0.012176144514390815,
0.05481296758104738,-0.019179632562697717,
0.05486284289276808,-0.024077166115763285,
0.05491271820448878,-0.01806100202703997,
0.054962593516209475,0.005974478286839467,
0.05501246882793018,-0.02248584111686122,
0.05506234413965087,-0.0009741494421637558,
0.05511221945137157,0.010042565088117654,
0.05516209476309227,-0.035541145974189906,
0.05521197007481297,-0.0006333817683852137,
0.05526184538653366,-0.039162931396323875,
0.055311720698254366,-0.025300588948962074,
0.05536159600997506,-0.03381650660006246,
0.05541147132169576,-0.015389400626286664,
0.05546134663341646,-0.016669786887437216,
0.055511221945137156,-0.014990966124592588,
0.05556109725685786,-0.03849769983374837,
0.055610972568578554,0.004675094859892962,
0.05566084788029925,-0.01805078583661111,
0.05571072319201995,0.010658910333482463,
0.05576059850374065,-0.0015615875358921932,
0.055810473815461344,-0.02233527934011701,
0.055860349127182046,-0.023533920639011673,
0.05591022443890274,-0.016999019899349797,
0.055960099750623445,-0.010427760135260923,
0.05600997506234414,-0.03473051526029618,
0.056059850374064836,-0.0002799384683790634,
0.05610972568578554,-0.028833213644306403,
0.056159600997506234,-0.007177084978577171,
0.05620947630922693,-0.014664354766093755,
0.05625935162094763,-0.01874679657785549,
0.05630922693266833,0.0014461010829973052,
0.056359102244389024,-0.0022534133284303672,
0.05640897755610973,-0.0016087757135586443,
0.05645885286783042,-0.001116251345363457,
0.056508728179551125,-0.011763478671376688,
0.05655860349127182,-0.02179395796597669,
0.056608478802992516,-0.018080511120638118,
0.05665835411471322,-0.0019323195930817574,
0.056708229426433915,-0.0066356638443181015,
0.05675810473815461,-0.04370402513925799,
0.05680798004987531,-0.022336932283305133,
0.05685785536159601,-0.011668637887129591,
0.05690773067331671,-0.00952342325568183,
0.05695760598503741,0.019174252051009855,
0.0570074812967581,-0.03629575090970932,
0.057057356608478806,0.005114143532243367,
0.0571072319201995,-0.015899854946233558,
0.0571571072319202,-0.034814388534828156,
0.0572069825436409,-0.01827743781839787,
0.057256857855361595,-0.03092812504598069,
0.05730673316708229,-0.013039939651387347,
0.057356608478802994,-0.013375361116144836,
0.05740648379052369,-0.015691259109293088,
0.05745635910224439,-0.025848591160766335,
0.05750623441396509,-0.013244826808719749,
0.05755610972568578,-0.015785542750120368,
0.057605985037406486,-0.028290562836424747,
0.05765586034912718,-0.03092648506648706,
0.05770573566084788,-0.0221871643525669,
0.05775561097256858,0.0189289402928457,
0.057805486284289276,-0.019555910492091343,
0.05785536159600998,0.0012391545572023564,
0.057905236907730674,-0.018512361328846715,
0.05795511221945137,0.0005037791703789672,
0.05800498753117207,-0.0073096579565327885,
0.05805486284289277,-0.02857831580387339,
0.058104738154613464,-0.04290622249125371,
0.05815461346633417,-0.05194782346995557,
0.05820448877805486,-0.02880140166172011,
0.05825436408977556,-0.0009393733739752139,
0.05830423940149626,-0.00811542799929139,
0.058354114713216956,-0.018279498011380946,
0.05840399002493766,-0.009554548145258081,
0.058453865336658355,0.010634075015831758,
0.05850374064837905,-0.005247711705132496,
0.05855361596009975,0.019184448610246777,
0.05860349127182045,0.003050835177611637,
0.058653366583541144,-0.009621934747233404,
0.05870324189526185,-0.004888895231672787,
0.05875311720698254,-0.009385003796384798,
0.05880299251870324,-0.01514128883857882,
0.05885286783042394,-0.014721796585295467,
0.05890274314214464,-0.029764184974921025,
0.05895261845386534,-0.03660741081726134,
0.059002493765586035,0.009084632369524167,
0.05905236907730673,-0.03564418823011445,
0.059102244389027433,-0.0433289372190739,
0.05915211970074813,0.01188155933799313,
0.059201995012468825,0.0018225099389127287,
0.05925187032418953,-0.0020333837514096235,
0.05930174563591022,-0.029788357383673084,
0.059351620947630926,0.009749452715743089,
0.05940149625935162,-0.04092913728688437,
0.05945137157107232,-0.0037494200582551367,
0.05950124688279302,-0.002445331181670886,
0.059551122194513716,-0.02041957362279305,
0.05960099750623441,-0.004616488386704422,
0.059650872817955114,-0.0166551130801245,
0.05970074812967581,-0.012743125050449337,
0.059750623441396505,-0.00976323319357349,
0.05980049875311721,-0.024595325809383995,
0.059850374064837904,-0.004077207140738472,
0.059900249376558606,-0.0009149181851780992,
0.0599501246882793,-0.02535267168774272,
0.06,0.0023063631494154614,
0.0600498753117207,0.006911206129554089,
0.060099750623441396,0.03474750652636072,
0.06014962593516209,-0.013464473349217437,
0.060199501246882794,0.011003699722986642,
0.06024937655860349,0.0005959613699943458,
0.06029925187032419,-0.006667245824750637,
0.06034912718204489,0.0026795692865716307,
0.060399002493765584,0.0050585144170206394,
0.06044887780548629,0.003736359293942868,
0.06049875311720698,0.008504196894365084,
0.06054862842892768,-0.006128824315303053,
0.06059850374064838,0.007181962017016389,
0.06064837905236908,0.009353677313356939,
0.06069825436408977,-0.0035878110391479347,
0.060748129675810475,-0.0029376918757099413,
0.06079800498753117,0.03647197993661891,
0.06084788029925187,-0.001645544488375005,
0.06089775561097257,0.0231988388465353,
0.060947630922693265,-0.016707899605858147,
0.06099750623441397,-0.002860396679279152,
0.06104738154613466,0.03141900808773591,
0.06109725685785536,0.0159732570052594,
0.06114713216957606,-0.013586380936076179,
0.06119700748129676,-0.005504225600880642,
0.06124688279301746,-0.005009291350117512,
0.061296758104738155,-0.014967784318034479,
0.06134663341645885,0.015202261546946445,
0.061396508728179554,0.03052755209296594,
0.06144638403990025,0.001612863460885051,
0.061496259351620945,0.0005581949506748493,
0.06154613466334165,0.024150170648260638,
0.061596009975062344,0.03492066938797847,
0.06164588528678304,0.031060633976526586,
0.06169576059850374,-0.009185272679271179,
0.06174563591022444,0.007871365713678576,
0.06179551122194514,0.010634853021083128,
0.061845386533665836,-0.0041171890602710245,
0.06189526184538653,0.013151839650897168,
0.061945137157107234,0.0006550220906206975,
0.06199501246882793,0.017990337072578744,
0.062044887780548626,0.022264178508948344,
0.06209476309226933,0.0012071783311672609,
0.062144638403990024,0.012124389210799388,
0.06219451371571072,0.0028194400206777845,
0.06224438902743142,0.01387884698368785,
0.06229426433915212,0.00977354213873801,
0.06234413965087282,0.0007558489831818484,
0.062394014962593516,0.022941987634080677,
0.06244389027431421,0.01404812593403057,
0.062493765586034915,-0.006535412225922275,
0.06254364089775562,-0.0013704267412893937,
0.06259351620947631,0.037757232766634494,
0.06264339152119701,-0.01074933438615304,
0.0626932668329177,0.00601611890208214,
0.0627431421446384,0.000865977399666585,
0.0627930174563591,0.003450800351266655,
0.0628428927680798,-0.00851854247929522,
0.0628927680798005,0.020313795863597276,
0.0629426433915212,0.021168031324974447,
0.06299251870324189,0.017245824832649664,
0.06304239401496259,-0.009908554411614402,
0.0630922693266833,0.00851174530695041,
0.063142144638404,-0.009502582362439426,
0.06319201995012469,-0.006255014811541396,
0.06324189526184539,-0.035342964376700196,
0.06329177057356608,0.00754383765495875,
0.06334164588528678,0.014090154511907477,
0.06339152119700749,0.0018527001505181644,
0.06344139650872818,0.01844963917978581,
0.06349127182044888,0.013232813026796861,
0.06354114713216957,0.008268572999829353,
0.06359102244389027,0.015807988624420337,
0.06364089775561098,0.01697413716047877,
0.06369077306733167,0.013540980092030322,
0.06374064837905237,0.024064584279303813,
0.06379052369077307,0.0203544649147847,
0.06384039900249376,0.03154639526146083,
0.06389027431421446,0.015552778878485414,
0.06394014962593517,0.032708040190354816,
0.06399002493765586,0.03845024480572115,
0.06403990024937656,0.024863747264666725,
0.06408977556109725,0.02868252043412643,
0.06413965087281795,0.011382883659704612,
0.06418952618453866,-0.007685059538226648,
0.06423940149625935,0.06787974998806538,
0.06428927680798005,0.03157709023014636,
0.06433915211970075,0.003293209419397477,
0.06438902743142144,0.0022600112166099515,
0.06443890274314215,0.001787357801989152,
0.06448877805486285,0.008470508942108573,
0.06453865336658354,0.023715283918782748,
0.06458852867830424,0.021502773422844228,
0.06463840399002493,0.03416514653917645,
0.06468827930174563,0.03624970798974674,
0.06473815461346634,0.022506690109362647,
0.06478802992518704,0.04591405682469532,
0.06483790523690773,0.03163135587081698,
0.06488778054862843,0.03269369423253517,
0.06493765586034912,0.03013837385918508,
0.06498753117206983,-0.003921503617871153,
0.06503740648379053,0.0068504673815668535,
0.06508728179551122,0.017577020184009695,
0.06513715710723192,-0.0022954180579859637,
0.06518703241895261,0.025240493596874126,
0.06523690773067331,-0.008843528550072713,
0.06528678304239402,0.041462292685866375,
0.06533665835411472,0.04924861970489779,
0.06538653366583541,0.031879152458295444,
0.06543640897755611,0.01720940403040372,
0.0654862842892768,0.02129481548330273,
0.06553615960099751,0.011137212801568154,
0.06558603491271821,0.026646455789816503,
0.0656359102244389,0.027222699652004485,
0.0656857855361596,-0.006965525098337651,
0.0657356608478803,0.02935429672025467,
0.06578553615960099,0.014660673224281395,
0.0658354114713217,0.03495136676052331,
0.0658852867830424,0.03462884878188733,
0.06593516209476309,0.0034674112304687137,
0.06598503740648379,0.0416781005473844,
0.06603491271820448,0.008397009982544303,
0.06608478802992519,0.028652676060450494,
0.06613466334164589,0.0031331454888587733,
0.06618453865336658,0.006897205254672665,
0.06623441396508728,0.034394474980843304,
0.06628428927680798,0.042725448976802874,
0.06633416458852869,0.019188344689646114,
0.06638403990024938,0.0237759077376232,
0.06643391521197008,0.011765257638656193,
0.06648379052369077,0.015760278871475023,
0.06653366583541147,0.021293029081364576,
0.06658354114713216,0.044620574723594014,
0.06663341645885287,0.024110245136564384,
0.06668329177057357,0.034123846946727446,
0.06673316708229426,0.018435088342736577,
0.06678304239401496,-0.0028353689441311253,
0.06683291770573566,0.05631828063823431,
0.06688279301745637,0.06444224775580676,
0.06693266832917706,0.013068715981265355,
0.06698254364089776,0.04014489091185261,
0.06703241895261845,0.04348635044309665,
0.06708229426433915,0.026011616795676363,
0.06713216957605984,0.008472616337363199,
0.06718204488778055,0.04197108332467739,
0.06723192019950125,0.03838449822150986,
0.06728179551122195,0.011715433520711716,
0.06733167082294264,0.024546922641711332,
0.06738154613466334,0.03885719757765657,
0.06743142144638405,0.04180580801752176,
0.06748129675810474,-0.004788594220986656,
0.06753117206982544,0.033042353213694614,
0.06758104738154613,0.045517710697559534,
0.06763092269326683,0.026265288802325586,
0.06768079800498752,0.010570038835294933,
0.06773067331670823,0.044331654959468225,
0.06778054862842893,0.005675066530268148,
0.06783042394014963,0.013915657250067878,
0.06788029925187032,0.03902674498822207,
0.06793017456359102,0.023533727225925952,
0.06798004987531173,0.02808060564939879,
0.06802992518703242,0.023884880995510317,
0.06807980049875312,-0.00286293233786427,
0.06812967581047381,0.020920659968295667,
0.06817955112219451,0.010465100873092222,
0.0682294264339152,0.012719414587367837,
0.06827930174563591,-0.011955679852286585,
0.06832917705735661,0.021214454890585217,
0.0683790523690773,0.015543647495823104,
0.068428927680798,0.018762024820774652,
0.0684788029925187,0.016853843731977576,
0.06852867830423941,0.011826540041354569,
0.0685785536159601,0.011499900014624033,
0.0686284289276808,0.05960252371693601,
0.0686783042394015,0.031786096708718764,
0.06872817955112219,0.023077817219309307,
0.0687780548628429,0.038989503723915284,
0.0688279301745636,0.047112920518364354,
0.06887780548628429,0.002199198684766125,
0.06892768079800499,0.022761708650617128,
0.06897755610972568,-0.005515642104358769,
0.06902743142144638,0.06047504129471275,
0.06907730673316709,0.011017179345134765,
0.06912718204488778,-0.004796212074378661,
0.06917705735660848,0.004480405971196304,
0.06922693266832917,0.018669304524694043,
0.06927680798004987,0.02701479507574913,
0.06932668329177058,0.03880053711119556,
0.06937655860349128,0.024009708733542273,
0.06942643391521197,0.030964191130520104,
0.06947630922693267,0.02590637264446942,
0.06952618453865336,0.021631945463663826,
0.06957605985037406,0.005920733760616005,
0.06962593516209477,0.015195207872043223,
0.06967581047381546,-0.0004693128875006315,
0.06972568578553616,-0.010686343524420664,
0.06977556109725686,-0.00259526208448993,
0.06982543640897755,-0.0034170903284698947,
0.06987531172069826,-9.908432210797673e-05,
0.06992518703241896,-0.0019333948174905975,
0.06997506234413965,0.05994241876373919,
0.07002493765586035,0.024727493702701484,
0.07007481296758104,-0.010965237499004056,
0.07012468827930174,0.02160034986199668,
0.07017456359102245,0.016449491821536443,
0.07022443890274314,0.02754261443039798,
0.07027431421446384,-0.004849343986408182,
0.07032418952618454,0.019728921319178964,
0.07037406483790523,0.004266523538200813,
0.07042394014962594,-0.007044515288404548,
0.07047381546134664,0.009707144572062516,
0.07052369077306733,0.02971240905347753,
0.07057356608478803,0.008395737128532955,
0.07062344139650872,0.008462422168768248,
0.07067331670822943,-0.013641011934362492,
0.07072319201995013,0.035998672253257355,
0.07077306733167082,0.00733684725095967,
0.07082294264339152,0.02402159585202291,
0.07087281795511222,0.016283252193137573,
0.07092269326683291,-0.007482984915042705,
0.07097256857855362,0.006197015086545901,
0.07102244389027432,0.004039015382474363,
0.07107231920199501,0.019300878767459985,
0.07112219451371571,0.004245548756644893,
0.0711720698254364,0.0014003464232236924,
0.07122194513715711,-0.0053556145965432105,
0.07127182044887781,0.020649908807424705,
0.0713216957605985,-0.0030412676098929064,
0.0713715710723192,0.008713432912592314,
0.0714214463840399,-0.0031850633527191995,
0.07147132169576059,0.020569494537758484,
0.0715211970074813,0.007531110199405625,
0.071571072319202,0.017687965124792877,
0.0716209476309227,-0.01018913582690402,
0.07167082294264339,-0.0005723661939915055,
0.07172069825436408,-0.010031021083941043,
0.0717705735660848,-0.008214749203233179,
0.07182044887780549,-0.009969096205236592,
0.07187032418952619,-0.008464296223479276,
0.07192019950124688,0.005504535774090031,
0.07197007481296758,0.008375457200970434,
0.07201995012468827,0.013667462208738029,
0.07206982543640898,0.026080190698301225,
0.07211970074812968,0.02673200245498075,
0.07216957605985037,-0.008575905845338232,
0.07221945137157107,0.005142938630744064,
0.07226932668329177,0.01634473549025084,
0.07231920199501247,-0.006853426059681916,
0.07236907730673317,0.0037138876113933556,
0.07241895261845387,0.0006443370885787893,
0.07246882793017456,-0.019916525810681523,
0.07251870324189526,-0.022458885465059437,
0.07256857855361595,-0.010703651200416766,
0.07261845386533666,0.02778474706606568,
0.07266832917705736,-0.003475811677676208,
0.07271820448877805,-0.016232362239975016,
0.07276807980049875,0.002113207037564244,
0.07281795511221945,0.016379097493055356,
0.07286783042394016,0.01033068825020228,
0.07291770573566085,-0.004632508777407852,
0.07296758104738155,-0.005602834558574698,
0.07301745635910224,0.018218030016808776,
0.07306733167082294,0.02396678969158181,
0.07311720698254365,-0.0026593468258488463,
0.07316708229426434,-0.014553344089102655,
0.07321695760598504,-0.024663111288317257,
0.07326683291770573,-0.0158703887970549,
0.07331670822942643,-0.021333239460963507,
0.07336658354114713,-0.016772913301274874,
0.07341645885286784,-0.021069855653474304,
0.07346633416458853,0.009118519106632314,
0.07351620947630923,-0.005007728266295625,
0.07356608478802992,-0.01486436489983646,
0.07361596009975062,-0.06135802235595516,
0.07366583541147133,-0.033990450916261676,
0.07371571072319202,-0.02267820040987868,
0.07376558603491272,-0.029063592832191794,
0.07381546134663342,-0.018256223534776597,
0.07386533665835411,0.014508610113324032,
0.0739152119700748,0.012014636377504967,
0.07396508728179552,-0.02060606281134577,
0.07401496259351621,-0.030562585989400988,
0.07406483790523691,-0.026662601167608657,
0.0741147132169576,-0.013391874687067363,
0.0741645885286783,-0.03401926598574874,
0.07421446384039901,-0.01331005580111437,
0.0742643391521197,-0.028539924076528483,
0.0743142144638404,-0.007434892882717116,
0.0743640897755611,-0.0176573675500677,
0.07441396508728179,-0.030787626129235305,
0.07446384039900249,-0.019586789306442635,
0.0745137157107232,0.014739649601089193,
0.07456359102244389,-0.0010541442980809036,
0.07461346633416459,-0.00186669484603238,
0.07466334164588528,-0.03462293390425051,
0.07471321695760598,-0.0005227279472898218,
0.07476309226932669,0.007944343335132959,
0.07481296758104738,-0.01711757701004342,
0.07486284289276808,0.01531233409212246,
0.07491271820448878,-0.010627629510171863,
0.07496259351620947,-0.019521684232802292,
0.07501246882793017,-0.028869125177075485,
0.07506234413965088,-0.0050662834115832505,
0.07511221945137157,-0.01626880590596637,
0.07516209476309227,-0.02577625416939293,
0.07521197007481296,0.0031019161343651055,
0.07526184538653366,0.006809688383673558,
0.07531172069825437,-0.01592485885278839,
0.07536159600997507,-0.015528560757932358,
0.07541147132169576,-0.005379580979575864,
0.07546134663341646,-0.014482961979395574,
0.07551122194513715,-0.018005804434587578,
0.07556109725685786,0.001403545162819573,
0.07561097256857856,-0.01810103737826753,
0.07566084788029925,0.00692690915290956,
0.07571072319201995,-0.00487361913882522,
0.07576059850374064,-0.03237138812106685,
0.07581047381546134,-4.2779219934854784e-05,
0.07586034912718205,-0.006174458900152181,
0.07591022443890275,-0.02771128590181231,
0.07596009975062344,-0.004897387490211713,
0.07600997506234414,-0.011669795274819256,
0.07605985037406483,-0.016100110791856012,
0.07610972568578554,-0.007361453817823338,
0.07615960099750624,-0.008442468544090434,
0.07620947630922693,-0.036702374795477846,
0.07625935162094763,-0.01930427360665203,
0.07630922693266833,-0.0023537995153088097,
0.07635910224438902,-0.003864874784897363,
0.07640897755610973,-0.017256027591955263,
0.07645885286783043,-0.002618943406354615,
0.07650872817955112,0.010313634271112206,
0.07655860349127182,-0.0019683391505092487,
0.07660847880299251,-0.020520828722783945,
0.07665835411471322,-0.007762004074291281,
0.07670822942643392,0.000999951733130746,
0.07675810473815461,-0.01184765089467759,
0.07680798004987531,0.012298638813467579,
0.076857855361596,-0.017750381769599536,
0.0769077306733167,-0.027279917112617735,
0.07695760598503741,-0.008643875632125004,
0.0770074812967581,-0.017671451159319247,
0.0770573566084788,-0.0015976908851682917,
0.0771072319201995,-0.020325972008009383,
0.0771571072319202,-0.020223887762703473,
0.0772069825436409,0.01867187842371324,
0.0772568578553616,-0.015636440492855192,
0.0773067331670823,-0.019213890331385368,
0.07735660847880299,-0.014272461954166416,
0.07740648379052369,-0.026080065640389803,
0.0774563591022444,-0.01766976643272389,
0.07750623441396509,-0.022837819898944955,
0.07755610972568579,-0.0030724943110078187,
0.07760598503740648,0.01075485447459586,
0.07765586034912718,-0.016026939440738776,
0.07770573566084787,0.010468938091029178,
0.07775561097256858,-0.012643463810607627,
0.07780548628428928,-0.030788713144200938,
0.07785536159600998,0.0043249862450528,
0.07790523690773067,-0.01076797375696454,
0.07795511221945137,-0.03410118888673576,
0.07800498753117208,-0.014962612143662712,
0.07805486284289277,-0.009853190190939512,
0.07810473815461347,-0.03658891996426232,
0.07815461346633416,-0.01694773304182032,
0.07820448877805486,-0.015962482975412678,
0.07825436408977555,0.030108533710081424,
0.07830423940149626,-0.002337948442075636,
0.07835411471321696,-0.0073317407017466675,
0.07840399002493766,0.01555629249194972,
0.07845386533665835,-0.004769415150746079,
0.07850374064837905,-0.0073033273914030385,
0.07855361596009976,0.01673519338155034,
0.07860349127182045,-0.026937640965805358,
0.07865336658354115,-0.016409540660073507,
0.07870324189526184,-0.010174784950405299,
0.07875311720698254,-0.004844022664332746,
0.07880299251870324,-0.004520478690137872,
0.07885286783042394,0.02132706390411903,
0.07890274314214464,-0.03344419273053789,
0.07895261845386534,0.013463824052098098,
0.07900249376558603,-0.014049771283499591,
0.07905236907730673,0.0006883577912251554,
0.07910224438902744,0.001043043263649908,
0.07915211970074813,-0.007718724879182435,
0.07920199501246883,0.012570541024464605,
0.07925187032418952,-0.005793379734512808,
0.07930174563591022,-0.0015358338825073115,
0.07935162094763092,0.007942486910563682,
0.07940149625935163,-0.005299675658879541,
0.07945137157107232,0.006429405056312065,
0.07950124688279302,-0.0028695121478848526,
0.07955112219451371,-0.007572230637710263,
0.07960099750623441,-0.02143843820872072,
0.07965087281795512,-0.022553861102429004,
0.07970074812967581,-0.019147145558814357,
0.07975062344139651,0.0013116533110546572,
0.0798004987531172,-0.04647739611364314,
0.0798503740648379,-0.028225264805528835,
0.07990024937655861,0.009172012273844477,
0.0799501246882793,0.011348259361676797,
0.08,-0.011711947077951312,
0.0800498753117207,-0.01405987154170783,
0.0800997506234414,0.00564373738760789,
0.08014962593516209,-0.003604375218760649,
0.0801995012468828,0.009862742762199669,
0.0802493765586035,-0.010574828340488495,
0.08029925187032419,-0.017850483131304863,
0.08034912718204489,0.0015711676865773818,
0.08039900249376558,-0.008132467174487347,
0.08044887780548629,0.004950315476439979,
0.08049875311720699,0.003716479653485545,
0.08054862842892768,0.013109634030836708,
0.08059850374064838,-0.02734671218499971,
0.08064837905236907,0.0034572238624367793,
0.08069825436408977,0.002815081997655919,
0.08074812967581048,0.006682803492106274,
0.08079800498753117,-0.009611797883694225,
0.08084788029925187,0.018763286920681584,
0.08089775561097257,-0.00509533648383586,
0.08094763092269326,0.02030852339693002,
0.08099750623441397,-0.02566559586549702,
0.08104738154613467,0.008098136167845913,
0.08109725685785536,0.02185983716612876,
0.08114713216957606,-0.004791323982330686,
0.08119700748129675,-0.006279592502107989,
0.08124688279301745,0.011748963658732589,
0.08129675810473816,-0.0019238465671209525,
0.08134663341645886,-0.010159143786383378,
0.08139650872817955,0.010884699561922832,
0.08144638403990025,0.009890485982075425,
0.08149625935162094,-0.006590213150740604,
0.08154613466334165,0.0005809205719878967,
0.08159600997506235,0.013780749496908107,
0.08164588528678304,0.02472918727420572,
0.08169576059850374,0.01471730447862567,
0.08174563591022443,0.011296383783575727,
0.08179551122194513,0.018723470126514728,
0.08184538653366584,0.01578165166054966,
0.08189526184538654,0.014173593761879051,
0.08194513715710723,-0.024934917350603,
0.08199501246882793,0.0037794453378027885,
0.08204488778054862,0.021992112093191896,
0.08209476309226933,0.008373017570921727,
0.08214463840399003,0.007485451092895924,
0.08219451371571072,-0.02675861877080241,
0.08224438902743142,0.007399039411838217,
0.08229426433915212,0.02964236700558208,
0.08234413965087282,0.0037993331645844496,
0.08239401496259352,0.003030141686848113,
0.08244389027431422,0.028769786450232787,
0.08249376558603491,-0.004678659395269442,
0.08254364089775561,0.004540266519901944,
0.0825935162094763,0.02405205174429472,
0.08264339152119701,0.0205696098840567,
0.08269326683291771,0.05012675777676885,
0.0827431421446384,0.001444100505190133,
0.0827930174563591,-0.004365742756131965,
0.0828428927680798,0.006882479783105824,
0.0828927680798005,0.021579122234943942,
0.0829426433915212,0.031102491556409775,
0.0829925187032419,-0.0021442596595936565,
0.08304239401496259,0.04673917811333968,
0.08309226932668329,0.025104201224494943,
0.08314214463840398,0.030050607086451978,
0.0831920199501247,0.013792566720260566,
0.08324189526184539,0.05212134660825407,
0.08329177057356608,0.000722791291547429,
0.08334164588528678,0.03423055269775835,
0.08339152119700748,0.021230581803245684,
0.08344139650872819,0.03640132427636121,
0.08349127182044888,0.005504892176452492,
0.08354114713216958,0.01748720360333004,
0.08359102244389027,0.013231639980565875,
0.08364089775561097,0.012524422333660235,
0.08369077306733166,0.02906884851779224,
0.08374064837905237,0.01310571465414435,
0.08379052369077307,0.03900760180342701,
0.08384039900249377,0.0020941029929429783,
0.08389027431421446,0.030971906768006364,
0.08394014962593516,0.025896535411851555,
0.08399002493765587,0.01834889650305649,
0.08403990024937656,0.038605386154097546,
0.08408977556109726,0.03979566988317532,
0.08413965087281795,0.014784692402913925,
0.08418952618453865,0.017112741085500077,
0.08423940149625936,0.027737165237012876,
0.08428927680798005,-0.004120984086019078,
0.08433915211970075,0.001873182810129423,
0.08438902743142145,0.009611297027832186,
0.08443890274314214,0.013375685918763503,
0.08448877805486284,0.028678907570432153,
0.08453865336658355,0.021330218021628385,
0.08458852867830424,0.03505236713982038,
0.08463840399002494,0.041815735675619164,
0.08468827930174563,0.03989299568078818,
0.08473815461346633,0.027888285523138108,
0.08478802992518704,0.03478271702312678,
0.08483790523690773,0.02278010358146172,
0.08488778054862843,0.02314525766844375,
0.08493765586034913,0.01581692100537002,
0.08498753117206982,0.03653157726273187,
0.08503740648379052,0.028804430278552402,
0.08508728179551123,0.013349113608883436,
0.08513715710723192,0.030558798836518193,
0.08518703241895262,0.009373769261598018,
0.08523690773067331,0.0170565813461351,
0.08528678304239401,-1.6112002341188425e-05,
0.08533665835411472,0.018220668324034666,
0.08538653366583542,0.03479348299074825,
0.08543640897755611,0.03915293541812591,
0.0854862842892768,0.01849105614731652,
0.0855361596009975,0.01394488370477068,
0.0855860349127182,0.010657341732908,
0.08563591022443891,0.016748477340410704,
0.0856857855361596,0.029547805999061295,
0.0857356608478803,0.04891858241794626,
0.085785536159601,0.021236938320669467,
0.08583541147132169,0.003419165319625335,
0.0858852867830424,0.020758231481675066,
0.0859351620947631,0.023745958441444757,
0.08598503740648379,0.03959790432825502,
0.08603491271820449,0.008939930081332204,
0.08608478802992518,0.03212336260402168,
0.08613466334164588,0.010055382040715068,
0.08618453865336659,0.07824211780506005,
0.08623441396508728,0.01960809377007645,
0.08628428927680798,0.013034243500024927,
0.08633416458852868,0.0373760889472183,
0.08638403990024937,0.06564964808449456,
0.08643391521197008,0.017600380329902986,
0.08648379052369078,0.016918882689190062,
0.08653366583541147,0.03734498773352845,
0.08658354114713217,0.036435350073810394,
0.08663341645885286,0.03366281282923448,
0.08668329177057357,0.04002325523246918,
0.08673316708229427,0.03646677873280388,
0.08678304239401496,0.01590616710569509,
0.08683291770573566,0.029030965938840976,
0.08688279301745636,0.013170848427068428,
0.08693266832917705,0.040764755241405645,
0.08698254364089776,0.006927582804645362,
0.08703241895261846,0.04097367444078719,
0.08708229426433915,0.021464568114265954,
0.08713216957605985,0.02861737268729403,
0.08718204488778054,0.030965410687515533,
0.08723192019950125,0.027089710631195838,
0.08728179551122195,0.003130802220136432,
0.08733167082294264,0.022008761311433395,
0.08738154613466334,0.028797604885505743,
0.08743142144638404,0.03750288765547555,
0.08748129675810473,0.022095842129731223,
0.08753117206982544,0.03650246143557237,
0.08758104738154614,0.024344855179061434,
0.08763092269326683,0.014745035969586144,
0.08768079800498753,0.010434214338557934,
0.08773067331670822,0.02553378194601623,
0.08778054862842893,0.021773873247781968,
0.08783042394014963,0.02164761209840057,
0.08788029925187033,0.043122590862729834,
0.08793017456359102,-0.0024571429975630103,
0.08798004987531172,0.01937377477696147,
0.08802992518703241,0.05616656547725717,
0.08807980049875312,0.015858285533298933,
0.08812967581047382,0.010106600019413294,
0.08817955112219451,0.01996626651825036,
0.08822942643391521,0.012957769867389807,
0.0882793017456359,0.037400622381919234,
0.08832917705735661,-0.0005940333617940156,
0.08837905236907731,0.012872774515047973,
0.088428927680798,-0.01745629086010797,
0.0884788029925187,0.024320715015721996,
0.0885286783042394,0.011903429084632938,
0.0885785536159601,0.023161480629230992,
0.0886284289276808,0.040329637364432507,
0.0886783042394015,0.0016910505480413028,
0.0887281795511222,0.00709973193411342,
0.08877805486284289,0.033674042133764126,
0.08882793017456359,0.028586955459416443,
0.0888778054862843,0.025806870430147566,
0.08892768079800499,0.05977054247068846,
0.08897755610972569,0.02160886078782275,
0.08902743142144638,0.03550404874525257,
0.08907730673316708,0.031128645766357856,
0.08912718204488779,0.04794773321497387,
0.08917705735660848,0.005223591249590046,
0.08922693266832918,0.021044187781927026,
0.08927680798004987,0.005374460648444173,
0.08932668329177057,0.02645918017856194,
0.08937655860349127,0.02841804475422422,
0.08942643391521198,0.0382641267558929,
0.08947630922693267,-0.004808497990251598,
0.08952618453865337,0.021293578120138146,
0.08957605985037406,0.024541991560947368,
0.08962593516209476,0.03669427516545046,
0.08967581047381547,0.030950767021262066,
0.08972568578553616,0.03509700069404391,
0.08977556109725686,-0.01140502562611316,
0.08982543640897755,0.019863695168496773,
0.08987531172069825,0.005035836220580462,
0.08992518703241895,-0.010728259901209496,
0.08997506234413966,0.030380091412350797,
0.09002493765586035,0.03294980738200866,
0.09007481296758105,0.023083840397542747,
0.09012468827930174,0.015457048531132507,
0.09017456359102244,-0.0070331367488037436,
0.09022443890274315,0.00040292498529239003,
0.09027431421446384,0.028386032311054153,
0.09032418952618454,-0.0006627022119982725,
0.09037406483790524,0.029045993399430443,
0.09042394014962593,0.027393346430376133,
0.09047381546134663,0.028067962903350785,
0.09052369077306734,-0.003147406958420109,
0.09057356608478803,0.02241139013297046,
0.09062344139650873,0.011587135480589376,
0.09067331670822942,-0.025226392633968572,
0.09072319201995012,0.016912804747388994,
0.09077306733167083,0.012279268263579222,
0.09082294264339152,0.023368145208476215,
0.09087281795511222,0.028681842881783416,
0.09092269326683292,0.015769323006308456,
0.09097256857855361,-0.004749099944928226,
0.09102244389027432,0.00045969455863556843,
0.09107231920199502,0.00024382576904343617,
0.09112219451371571,-0.0013282777444410948,
0.09117206982543641,0.022197400183205863,
0.0912219451371571,0.006971123862247387,
0.0912718204488778,-0.00846520649275073,
0.09132169576059851,0.011322457819199022,
0.0913715710723192,-0.005870072009381024,
0.0914214463840399,-0.018675319982778833,
0.0914713216957606,0.0008995546144648231,
0.09152119700748129,0.0022058009297952234,
0.091571072319202,0.014173551124292784,
0.0916209476309227,-0.01094342063350113,
0.09167082294264339,-0.002268765742609454,
0.09172069825436409,0.008753328040418739,
0.09177057356608478,0.00383767451229565,
0.09182044887780548,-0.00012654575268144976,
0.09187032418952619,0.0031463584077938344,
0.09192019950124689,0.015958872185467363,
0.09197007481296758,0.012530406906314488,
0.09201995012468828,0.005256747922966767,
0.09206982543640897,-0.002249515192824516,
0.09211970074812968,-0.001482192732523804,
0.09216957605985038,0.01179104073695154,
0.09221945137157107,-0.017102632882993178,
0.09226932668329177,0.006474624721193943,
0.09231920199501246,0.0058802203704465626,
0.09236907730673316,0.025469382477800697,
0.09241895261845387,-0.03121371125122955,
0.09246882793017457,0.012846881849216145,
0.09251870324189526,0.012104633979094755,
0.09256857855361596,-0.0008915965373941582,
0.09261845386533665,-0.013496234676304498,
0.09266832917705736,0.01670877636524022,
0.09271820448877806,-0.0026967108234159493,
0.09276807980049875,0.003031578776913209,
0.09281795511221945,-0.012890919214479473,
0.09286783042394015,-0.02345093190017492,
0.09291770573566084,-0.017990613016678834,
0.09296758104738155,-0.006696045506106767,
0.09301745635910225,0.01095334653076772,
0.09306733167082294,-0.005011380349007917,
0.09311720698254364,-0.002521080116380813,
0.09316708229426433,-0.002048529130122062,
0.09321695760598504,-0.02344685305981694,
0.09326683291770574,0.013861635777513995,
0.09331670822942643,-0.0073558069210554935,
0.09336658354114713,0.024535475086916177,
0.09341645885286783,-0.017828194515766067,
0.09346633416458854,0.0023100440737950064,
0.09351620947630923,-0.013656768145376755,
0.09356608478802993,-0.025782030371444203,
0.09361596009975062,-0.020608440498639018,
0.09366583541147132,-0.02027352290423956,
0.09371571072319201,0.00022858444326369614,
0.09376558603491272,-0.006589790523825334,
0.09381546134663342,-0.01584783126268112,
0.09386533665835411,-0.01131407418837326,
0.09391521197007481,-0.00432687328373462,
0.0939650872817955,0.001673932354499483,
0.09401496259351622,-0.009237267792273508,
0.09406483790523691,0.0036200798125192134,
0.09411471321695761,-0.012387453372571001,
0.0941645885286783,0.006538361990282457,
0.094214463840399,0.01522306269340701,
0.0942643391521197,-0.017409943884560755,
0.0943142144638404,-0.014793973285993352,
0.0943640897755611,-0.010825036760586153,
0.0944139650872818,0.0038704624069596464,
0.09446384039900249,-0.01064456973894773,
0.09451371571072319,-0.013364192931498752,
0.0945635910224439,-0.03607897023409501,
0.09461346633416459,-0.0036606786794343912,
0.09466334164588529,-0.02181028178599764,
0.09471321695760598,-0.014022087279929565,
0.09476309226932668,-0.005201288529427781,
0.09481296758104737,0.012431030049867346,
0.09486284289276808,-0.008715756586856804,
0.09491271820448878,-0.04148424069824751,
0.09496259351620948,0.0024403106637060027,
0.09501246882793017,-0.016040752054281335,
0.09506234413965087,-0.031313223904994955,
0.09511221945137158,0.0054663607324181435,
0.09516209476309227,0.00908639311378586,
0.09521197007481297,-0.019886048709591306,
0.09526184538653366,-0.004026306254084011,
0.09531172069825436,0.008248130997278462,
0.09536159600997507,0.0022961156362383533,
0.09541147132169576,0.004687306009099548,
0.09546134663341646,-0.005674268316787567,
0.09551122194513716,-0.0010615390972909654,
0.09556109725685785,-0.033416978626182925,
0.09561097256857855,-0.02095627425330006,
0.09566084788029926,-0.014261632779128175,
0.09571072319201995,-0.032884925305938985,
0.09576059850374065,-0.01493258029727288,
0.09581047381546134,-0.00977580636627175,
0.09586034912718204,-0.011523672800774577,
0.09591022443890275,-0.02022113981451503,
0.09596009975062345,-0.014323382973357316,
0.09600997506234414,-0.0341768595014577,
0.09605985037406484,-0.02444430614694726,
0.09610972568578553,-0.01782517355850148,
0.09615960099750623,-0.026479762659630715,
0.09620947630922694,0.026611638532821044,
0.09625935162094763,-0.014052337432897789,
0.09630922693266833,-0.036835521972222895,
0.09635910224438902,-0.03340083522650604,
0.09640897755610972,-0.031438539474990465,
0.09645885286783043,-0.0011522002738459085,
0.09650872817955113,-0.0036312076032551325,
0.09655860349127182,-0.013387526575977872,
0.09660847880299252,0.011588674860328267,
0.09665835411471321,-0.005270193592543027,
0.09670822942643391,0.006781729132418653,
0.09675810473815462,-0.00022115352835067048,
0.09680798004987531,-0.005517104692968258,
0.09685785536159601,-0.021655013079628874,
0.0969077306733167,-0.00943534411004362,
0.0969576059850374,-0.012015609646978214,
0.09700748129675811,0.006899993001906361,
0.0970573566084788,-0.020548986526345216,
0.0971072319201995,-0.02285388842385651,
0.0971571072319202,-0.009390028883278131,
0.0972069825436409,-0.017333297023162435,
0.09725685785536159,-0.011046176498693907,
0.0973067331670823,-0.03597651490846814,
0.097356608478803,-0.015668014705103386,
0.09740648379052369,-0.022134678121293692,
0.09745635910224439,-0.045606568159136926,
0.09750623441396508,0.0069052534086607165,
0.09755610972568579,-0.010560503123778056,
0.09760598503740649,-0.04481946358298059,
0.09765586034912718,-0.01047415502258512,
0.09770573566084788,-0.005887037964399109,
0.09775561097256857,-0.03310029523211401,
0.09780548628428928,-0.010375165396724048,
0.09785536159600998,-0.0019747883120485293,
0.09790523690773068,-0.009835457013735846,
0.09795511221945137,-0.01772998234130258,
0.09800498753117207,-0.034214463305895434,
0.09805486284289276,-0.010445735269262783,
0.09810473815461347,0.0042941843746076985,
0.09815461346633417,0.00950064841573587,
0.09820448877805486,0.00013063273978613718,
0.09825436408977556,-0.026022575188958265,
0.09830423940149625,-0.01015681057729246,
0.09835411471321696,0.01848372594007499,
0.09840399002493766,-0.04120087091440415,
0.09845386533665836,-0.015944427276683562,
0.09850374064837905,0.01968624268019463,
0.09855361596009975,0.002529871648471802,
0.09860349127182044,0.005812404093401917,
0.09865336658354115,-0.005148484695027896,
0.09870324189526185,0.0194778848195734,
0.09875311720698254,-0.00840797180635033,
0.09880299251870324,0.006247563701105706,
0.09885286783042393,-0.014771403908094376,
0.09890274314214464,-0.017666040898027056,
0.09895261845386534,-0.015657906727392562,
0.09900249376558604,-0.030297340158660306,
0.09905236907730673,-0.014078223177667408,
0.09910224438902743,-0.009852022894607203,
0.09915211970074812,-0.01180641621431465,
0.09920199501246883,-0.015718612151003064,
0.09925187032418953,0.029748845339849957,
0.09930174563591022,-0.01005632269846727,
0.09935162094763092,0.005788959481073892,
0.09940149625935162,-0.010755882756185654,
0.09945137157107233,-0.014026009391828631,
0.09950124688279302,-0.013408494512801386,
0.09955112219451372,-0.008342860591384612,
0.09960099750623441,-0.012867815299896865,
0.09965087281795511,0.013142483427848939,
0.0997007481296758,-0.0151072091286991,
0.09975062344139651,0.026264109510337273,
0.09980049875311721,0.0006684011760519776,
0.0998503740648379,-0.008796326031578875,
0.0999002493765586,-0.012287743746165772,
0.0999501246882793,-0.019340668165026904,
0.1,0.011604625232213586,
0.1000498753117207,-0.012621733743558138,
0.1000997506234414,0.007400022254951574,
0.10014962593516209,0.018493797122982172,
0.10019950124688279,-0.0025953494992944264,
0.1002493765586035,-0.01785419996267569,
0.1002992518703242,-0.0009175234223932782,
0.10034912718204489,-0.00031157016301106005,
0.10039900249376559,0.02764571935471007,
0.10044887780548628,0.009010646689411782,
0.10049875311720698,0.015509271811139251,
0.10054862842892769,-0.006383981006064705,
0.10059850374064838,0.01946097329227835,
0.10064837905236908,0.0034792406614470145,
0.10069825436408977,-0.016149663997487105,
0.10074812967581047,0.025734820349199248,
0.10079800498753118,-0.01893959099199532,
0.10084788029925187,0.0012313615333667536,
0.10089775561097257,0.0013704686275783995,
0.10094763092269327,0.01312037070339755,
0.10099750623441396,0.018199791232831296,
0.10104738154613466,0.003259769264305999,
0.10109725685785537,0.005881522321267471,
0.10114713216957606,-0.019204683886227297,
0.10119700748129676,-0.0031574442846149927,
0.10124688279301745,-0.016687629729250024,
0.10129675810473815,0.008867453968863261,
0.10134663341645886,0.008795894672756726,
0.10139650872817955,0.017452722451038745,
0.10144638403990025,0.0011948927782164899,
0.10149625935162095,-0.0193269947662441,
0.10154613466334164,-0.004412682233132528,
0.10159600997506234,0.01039068044434405,
0.10164588528678305,0.024623080480765454,
0.10169576059850374,0.011006907071706555,
0.10174563591022444,0.014548563655624094,
0.10179551122194513,-0.007158329757504441,
0.10184538653366583,-0.005683007810285511,
0.10189526184538654,0.014963483975326961,
0.10194513715710724,0.027324316294891203,
0.10199501246882793,0.009698723800287995,
0.10204488778054863,0.017828349098440555,
0.10209476309226932,-0.005890353262861858,
0.10214463840399003,0.009446333451340667,
0.10219451371571073,0.027132398886176974,
0.10224438902743142,0.022670497280209492,
0.10229426433915212,0.012329146676632806,
0.10234413965087281,0.0161481721133518,
0.10239401496259351,0.01342407232180976,
0.10244389027431422,0.008640170131665383,
0.10249376558603492,0.0028767910795147594,
0.10254364089775561,0.012368437138593803,
0.10259351620947631,0.018643689525374305,
0.102643391521197,0.027338050387026323,
0.10269326683291771,0.019532332771663868,
0.10274314214463841,0.02520411514861797,
0.1027930174563591,0.018673954086651477,
0.1028428927680798,0.018570830028656747,
0.1028927680798005,0.015140706928653411,
0.10294264339152119,0.00017576800538753046,
0.1029925187032419,0.016412553135332807,
0.1030423940149626,0.015161601859642474,
0.10309226932668329,0.0019340025799159319,
0.10314214463840399,0.01902753014204705,
0.10319201995012468,0.027275134295541435,
0.10324189526184539,0.034083933447991085,
0.10329177057356609,0.03322414396051448,
0.10334164588528678,0.0008230509929447634,
0.10339152119700748,-0.004732822633378965,
0.10344139650872818,0.028604538995502492,
0.10349127182044887,0.006354675446970387,
0.10354114713216958,0.05164793302308934,
0.10359102244389028,0.02035573313329276,
0.10364089775561097,0.016082953623538038,
0.10369077306733167,0.02450729760161602,
0.10374064837905236,0.019126381441693582,
0.10379052369077307,-0.016803133486486904,
0.10384039900249377,0.0006966917532543887,
0.10389027431421446,0.024706746864370903,
0.10394014962593516,0.04079777010998145,
0.10399002493765586,0.025345440685561597,
0.10403990024937655,0.02140564925608359,
0.10408977556109726,0.0025703111760467696,
0.10413965087281796,0.036607588612689784,
0.10418952618453865,0.02772970842880538,
0.10423940149625935,0.018813327001342976,
0.10428927680798004,0.008834119537174164,
0.10433915211970075,0.025912893225594102,
0.10438902743142145,0.01248040682224707,
0.10443890274314215,-0.005687483778915651,
0.10448877805486284,0.03773490899616124,
0.10453865336658354,0.00556900955774603,
0.10458852867830425,0.021314369503332965,
0.10463840399002494,-0.0036577217596870555,
0.10468827930174564,0.04132226232411456,
0.10473815461346633,0.02006245278395114,
0.10478802992518703,0.040562557815232915,
0.10483790523690772,0.012358718293734274,
0.10488778054862843,0.036692636905243395,
0.10493765586034913,0.030218625578053833,
0.10498753117206983,0.021851455845488782,
0.10503740648379052,0.019875901409643612,
0.10508728179551122,0.0026996461602197368,
0.10513715710723193,0.003354085426046191,
0.10518703241895262,0.030783443757602193,
0.10523690773067332,0.02952127784246803,
0.10528678304239401,0.03889583311809541,
0.10533665835411471,0.014496755066006242,
0.1053865336658354,0.017680854759243584,
0.10543640897755611,0.017872307877548815,
0.10548628428927681,0.027919357553457418,
0.1055361596009975,0.01493461058402433,
0.1055860349127182,0.03349771108210517,
0.1056359102244389,-0.008629450158487175,
0.10568578553615961,0.028587047151306853,
0.1057356608478803,0.027508785547851515,
0.105785536159601,0.01971787540499105,
0.1058354114713217,0.022169186611198325,
0.10588528678304239,0.0660595302345951,
0.10593516209476309,0.022829204083832697,
0.1059850374064838,0.04476650110759827,
0.10603491271820449,0.030828194975728893,
0.10608478802992519,0.024087095027478335,
0.10613466334164588,0.03206235787532527,
0.10618453865336658,0.030225168028055503,
0.10623441396508729,0.014106168929222883,
0.10628428927680798,0.057413084778008446,
0.10633416458852868,0.0356369243884965,
0.10638403990024937,0.02063771299400425,
0.10643391521197007,0.026837084481944922,
0.10648379052369077,0.04624209441727819,
0.10653366583541148,0.028513423490205598,
0.10658354114713217,0.03840345148736529,
0.10663341645885287,-0.003196756545562285,
0.10668329177057356,0.038725629775035804,
0.10673316708229426,0.03561385442909049,
0.10678304239401497,0.03930815909358201,
0.10683291770573566,0.04574280306724107,
0.10688279301745636,0.018446595392495657,
0.10693266832917706,0.04441369591676454,
0.10698254364089775,0.0417875137554444,
0.10703241895261846,0.024749512551003994,
0.10708229426433916,0.018566609958240894,
0.10713216957605985,0.057646025908049736,
0.10718204488778055,0.036961774860153375,
0.10723192019950124,0.02639620438848657,
0.10728179551122194,-0.00030277778337056,
0.10733167082294265,0.017018096788143304,
0.10738154613466334,0.02694822381740206,
0.10743142144638404,0.025064667695152705,
0.10748129675810474,0.020896926287031724,
0.10753117206982543,0.02597583659168136,
0.10758104738154614,0.03096718138281066,
0.10763092269326684,0.01948945933082363,
0.10768079800498753,0.07922373681080536,
0.10773067331670823,0.014077553384122227,
0.10778054862842892,0.032135310880895614,
0.10783042394014962,0.01727385974619711,
0.10788029925187033,0.014828094088140802,
0.10793017456359102,0.012865902597580112,
0.10798004987531172,0.029529413921365103,
0.10802992518703242,0.03202559721306262,
0.10807980049875311,0.029990969817256685,
0.10812967581047382,0.015264448556625511,
0.10817955112219452,0.03375783588580286,
0.10822942643391521,0.04599438113986255,
0.10827930174563591,0.045029027172360264,
0.1083291770573566,0.03801231522569927,
0.1083790523690773,0.01975565183360871,
0.10842892768079801,0.026222486731331693,
0.1084788029925187,0.023578794383173025,
0.1085286783042394,0.02102703171849082,
0.1085785536159601,0.02776382110543952,
0.10862842892768079,0.02743745386452821,
0.1086783042394015,0.01947342675771408,
0.1087281795511222,0.0673449947783975,
0.1087780548628429,0.040762844826260414,
0.10882793017456359,0.045547613453911236,
0.10887780548628428,0.036096754472589934,
0.108927680798005,0.0285476516748176,
0.10897755610972569,0.0221342572780154,
0.10902743142144639,0.03120533627882307,
0.10907730673316708,0.027021987948209494,
0.10912718204488778,0.016672141245828075,
0.10917705735660847,0.025558919040079307,
0.10922693266832918,0.01674705944663395,
0.10927680798004988,0.04083585085453409,
0.10932668329177057,0.011613461221394561,
0.10937655860349127,0.02858152740880926,
0.10942643391521197,0.02374342686204235,
0.10947630922693267,0.018615793500729724,
0.10952618453865337,0.008913639410793437,
0.10957605985037407,0.04020739736291673,
0.10962593516209476,0.057946341507688945,
0.10967581047381546,0.047173695855509915,
0.10972568578553615,0.05323618570889878,
0.10977556109725686,0.03017771513085775,
0.10982543640897756,0.008451665561879847,
0.10987531172069825,-0.006969075586059498,
0.10992518703241895,0.02210109052857788,
0.10997506234413965,0.015935700641147608,
0.11002493765586036,0.04840103277317013,
0.11007481296758105,0.024059494847924925,
0.11012468827930175,0.031040627905993746,
0.11017456359102244,-0.001289592215828781,
0.11022443890274314,0.009521941195569785,
0.11027431421446383,0.0014158512777150915,
0.11032418952618454,0.001226684250294605,
0.11037406483790524,-0.006692478475945306,
0.11042394014962593,0.013787268516641304,
0.11047381546134663,0.00046104687297559427,
0.11052369077306733,0.029843651572465532,
0.11057356608478804,0.037584512446811866,
0.11062344139650873,0.012473874386911143,
0.11067331670822943,0.0023553513455073817,
0.11072319201995012,0.0023138296761649867,
0.11077306733167082,-0.0020072422415021267,
0.11082294264339151,0.003250180652432686,
0.11087281795511222,0.010648246627990786,
0.11092269326683292,9.666562580327304e-05,
0.11097256857855362,0.02001513521325478,
0.11102244389027431,-0.0061973541153437835,
0.111072319201995,0.04716813655612351,
0.11112219451371572,0.027128271784696265,
0.11117206982543641,0.005618934503769882,
0.11122194513715711,0.03020126418805185,
0.1112718204488778,0.016747994582124753,
0.1113216957605985,0.01735334340145077,
0.11137157107231921,0.0010006311503966293,
0.1114214463840399,0.022257945375608826,
0.1114713216957606,-0.003752334651409424,
0.1115211970074813,-0.004346268833771864,
0.11157107231920199,0.03545569763009498,
0.11162094763092269,-0.023027265026231085,
0.1116708229426434,-0.0005033755363050936,
0.11172069825436409,-0.00795317655310886,
0.11177057356608479,-0.012646636277207532,
0.11182044887780548,0.0015263300634859268,
0.11187032418952618,0.0027407344825421775,
0.11192019950124689,-0.011171797651238229,
0.11197007481296758,0.01696540317897918,
0.11201995012468828,0.012553225094490346,
0.11206982543640898,0.01751069185311764,
0.11211970074812967,0.01311401256930108,
0.11216957605985037,0.017411708066287813,
0.11221945137157108,-0.009164366308551157,
0.11226932668329177,-0.01162067221453903,
0.11231920199501247,0.025657727772036454,
0.11236907730673316,-0.009427331072140395,
0.11241895261845386,0.008178227226383533,
0.11246882793017457,0.006255401811943352,
0.11251870324189527,-0.01182718394617643,
0.11256857855361596,0.017296348358878937,
0.11261845386533666,0.002101550515236304,
0.11266832917705735,-0.01589558455725959,
0.11271820448877805,-0.01692631666402587,
0.11276807980049876,-0.005617081785830529,
0.11281795511221945,0.026002772730314993,
0.11286783042394015,-0.01615094346836508,
0.11291770573566084,-0.011627821472339154,
0.11296758104738154,-0.012271989840146517,
0.11301745635910225,0.02204717837326512,
0.11306733167082295,-0.017762090995907944,
0.11311720698254364,0.007471335578558443,
0.11316708229426434,-0.01674530226523558,
0.11321695760598503,-0.014158494053994953,
0.11326683291770574,-0.013475928814510598,
0.11331670822942644,-0.008405769449565028,
0.11336658354114713,-0.010734705854202256,
0.11341645885286783,-0.00028265207854309953,
0.11346633416458853,0.014849524815914363,
0.11351620947630922,-0.024416288589648335,
0.11356608478802993,0.006859671112992875,
0.11361596009975063,-0.004917153256273337,
0.11366583541147132,-0.009842716522330453,
0.11371571072319202,-0.007532390451166584,
0.11376558603491271,0.029707295195146713,
0.11381546134663342,0.01725765097564263,
0.11386533665835412,-0.014149820919102364,
0.11391521197007481,0.008599959800584783,
0.11396508728179551,-0.01151550984092797,
0.1140149625935162,-0.010751346831257187,
0.1140648379052369,2.332591580360508e-05,
0.11411471321695761,-0.006000702309496479,
0.1141645885286783,0.0005670272266215482,
0.114214463840399,0.005529648369298909,
0.1142643391521197,-0.015687816111025973,
0.1143142144638404,-0.010733981457390695,
0.1143640897755611,-0.013308284018465566,
0.1144139650872818,0.006527743346603568,
0.1144638403990025,-0.03060919429585999,
0.11451371571072319,-0.017295537680363574,
0.11456359102244389,-5.693296305942647e-05,
0.11461346633416458,-0.022615978053538634,
0.11466334164588529,-0.017764465770337374,
0.11471321695760599,-0.01443752696076122,
0.11476309226932668,-0.0011388323182751807,
0.11481296758104738,-0.014236969363364419,
0.11486284289276807,-0.007400511999727422,
0.11491271820448878,-0.006935698085721024,
0.11496259351620948,-0.008527140980313094,
0.11501246882793018,-0.0062211528830565235,
0.11506234413965087,-0.03471922418538077,
0.11511221945137157,-0.0288172292530033,
0.11516209476309226,-0.01741935725012759,
0.11521197007481297,-0.0017814050899369084,
0.11526184538653367,-0.01196744401489306,
0.11531172069825436,0.00637188929223464,
0.11536159600997506,-0.03510534189108014,
0.11541147132169575,0.0069444296507973815,
0.11546134663341646,-0.006513093773806638,
0.11551122194513716,0.020130422728821245,
0.11556109725685786,-0.02245271099928801,
0.11561097256857855,-0.008664498864667834,
0.11566084788029925,-0.03310391977739913,
0.11571072319201996,-0.015829811737535702,
0.11576059850374065,-0.027784835736642345,
0.11581047381546135,-0.030893467912391115,
0.11586034912718204,-0.02497941427287302,
0.11591022443890274,0.005342879887052563,
0.11596009975062344,0.011096914464763082,
0.11600997506234415,0.025658634670110987,
0.11605985037406484,0.025746061854677392,
0.11610972568578554,-0.009069765398147054,
0.11615960099750623,-0.007146055979874853,
0.11620947630922693,-0.007719701715067124,
0.11625935162094764,0.004206040637702836,
0.11630922693266833,-0.036344602524578634,
0.11635910224438903,-0.03121356162612606,
0.11640897755610972,-0.015437036399475869,
0.11645885286783042,-0.0025667311283233633,
0.11650872817955112,0.002647613928132687,
0.11655860349127183,0.0012443419099773517,
0.11660847880299252,-0.0261165530778009,
0.11665835411471322,-0.034783662284731065,
0.11670822942643391,0.006639081677671806,
0.11675810473815461,-0.010084993973606746,
0.11680798004987532,-0.016731700125656966,
0.11685785536159601,-0.01187978719139383,
0.11690773067331671,-0.03563571099429527,
0.1169576059850374,-0.013638249984492094,
0.1170074812967581,-0.0014555456951117745,
0.1170573566084788,-0.009246058255052866,
0.1171072319201995,-0.009025111346464217,
0.1171571072319202,-0.011913214042687626,
0.1172069825436409,-0.023179442585284815,
0.1172568578553616,-0.004172227912454702,
0.11730673316708229,0.015025705883508872,
0.117356608478803,0.011326634202977217,
0.1174064837905237,0.014643535971020133,
0.11745635910224439,0.01882637548601558,
0.11750623441396509,-0.00516098974210869,
0.11755610972568578,-0.014078766542420568,
0.11760598503740648,-0.003093151220171283,
0.11765586034912719,0.0076631142006769615,
0.11770573566084788,-0.024294213131570663,
0.11775561097256858,-0.007539870832957854,
0.11780548628428927,-0.021323496778296862,
0.11785536159600997,-0.00035875504651598604,
0.11790523690773068,-0.020276023522623737,
0.11795511221945137,-0.010602346769451666,
0.11800498753117207,0.0002718341672638368,
0.11805486284289277,-0.013507487027794855,
0.11810473815461346,0.019236338270271817,
0.11815461346633417,-0.00703144419638331,
0.11820448877805487,-0.030653218353471977,
0.11825436408977556,-0.005900290224587242,
0.11830423940149626,-0.008692537085748474,
0.11835411471321695,0.01786689871783757,
0.11840399002493765,0.0018179120292743794,
0.11845386533665836,0.005389041158843345,
0.11850374064837906,-0.02653402265554791,
0.11855361596009975,0.0044671908008777645,
0.11860349127182045,-0.013926152189913367,
0.11865336658354114,-0.014615636206165749,
0.11870324189526185,0.019209160817849888,
0.11875311720698255,0.0005610678837806695,
0.11880299251870324,-0.03518233371422967,
0.11885286783042394,0.00026178103771072863,
0.11890274314214463,-0.034523852128683884,
0.11895261845386533,-0.023181313954022106,
0.11900249376558604,-0.001605492583445764,
0.11905236907730674,-0.0025242846790268286,
0.11910224438902743,-0.015913386342016382,
0.11915211970074813,0.016016724217038085,
0.11920199501246882,-0.00837669354927374,
0.11925187032418953,-0.01947970525308272,
0.11930174563591023,-0.016482936559054622,
0.11935162094763092,-0.009964103975338003,
0.11940149625935162,-0.01952197401329131,
0.11945137157107232,0.011036496195193238,
0.11950124688279301,0.006740805663230881,
0.11955112219451372,-0.029756000801618863,
0.11960099750623442,0.00946077875506913,
0.11965087281795511,-0.012239861987161545,
0.11970074812967581,-0.015652791497773655,
0.1197506234413965,0.0025662601352211606,
0.11980049875311721,0.004707828411438408,
0.11985037406483791,-0.0034047397090343997,
0.1199002493765586,0.002075015333439829,
0.1199501246882793,-0.025878249568132485,
0.12,-0.01872469063002044,
0.1200498753117207,0.01781692225493284,
0.1200997506234414,-0.038926921029208146,
0.1201496259351621,-0.010362604476703162,
0.12019950124688279,-0.013149013468325301,
0.12024937655860349,0.017767656422199962,
0.12029925187032418,-0.0035844331405353418,
0.1203491271820449,0.02117751247859944,
0.12039900249376559,0.0276436616043157,
0.12044887780548628,-0.008438340542229899,
0.12049875311720698,-0.005854313119898445,
0.12054862842892768,-0.006830367405643178,
0.12059850374064839,0.006754221955359982,
0.12064837905236908,0.018594918234775156,
0.12069825436408978,0.009748303195748296,
0.12074812967581047,0.012357216943624232,
0.12079800498753117,0.01808650548482521,
0.12084788029925186,0.025124688140539822,
0.12089775561097257,-0.0005018871671994274,
0.12094763092269327,0.01302387726257273,
0.12099750623441397,0.046424510296216664,
0.12104738154613466,0.01112298060717825,
0.12109725685785536,-0.008678081474619457,
0.12114713216957607,0.018150543723178633,
0.12119700748129676,0.012798931550277472,
0.12124688279301746,0.007600928827382335,
0.12129675810473815,0.0064819464750353415,
0.12134663341645885,0.018137774889609964,
0.12139650872817954,-0.00902690982800719,
0.12144638403990025,-0.007297328639033859,
0.12149625935162095,0.01412903056950882,
0.12154613466334165,0.007739872579484766,
0.12159600997506234,0.004896492390505793,
0.12164588528678304,0.0212369849633191,
0.12169576059850375,0.016861851674243155,
0.12174563591022444,0.005806673990447159,
0.12179551122194514,0.03275636280658955,
0.12184538653366583,0.015629414841724684,
0.12189526184538653,-0.0016573118752430428,
0.12194513715710723,0.028031838940153878,
0.12199501246882793,0.0370941010170982,
0.12204488778054863,0.041454500523004985,
0.12209476309226933,0.015458083094928524,
0.12214463840399002,0.0009510389287870243,
0.12219451371571072,0.022431482206442192,
0.12224438902743143,0.05437997154086432,
0.12229426433915212,0.01982276112418207,
0.12234413965087282,-0.021978683187789345,
0.12239401496259351,0.02774366289182746,
0.12244389027431421,0.0025917264552998247,
0.12249376558603492,0.004641873593710053,
0.12254364089775562,0.026847768744124145,
0.12259351620947631,0.023655101498075037,
0.122643391521197,0.015635633689472687,
0.1226932668329177,0.01974376780698152,
0.1227431421446384,0.0390616547817387,
0.12279301745635911,0.00720092570551111,
0.1228428927680798,-0.015277938111071324,
0.1228927680798005,0.040317987041102524,
0.1229426433915212,0.01928298425397317,
0.12299251870324189,0.02941873540510386,
0.1230423940149626,0.02483429185566012,
0.1230922693266833,0.015345825427245323,
0.12314214463840399,0.022535265513065558,
0.12319201995012469,0.00809142847759898,
0.12324189526184538,0.029622415972901286,
0.12329177057356608,0.03159278680108033,
0.12334164588528679,0.017021514454914965,
0.12339152119700748,0.013407918419299726,
0.12344139650872818,0.03642766522450164,
0.12349127182044888,0.011073630462783753,
0.12354114713216957,0.042613131998549963,
0.12359102244389028,0.031717104754969395,
0.12364089775561098,0.02018650265381159,
0.12369077306733167,0.018038667664594853,
0.12374064837905237,0.029630049539955176,
0.12379052369077306,0.024617701166192916,
0.12384039900249376,0.02306402051262905,
0.12389027431421447,0.028312487521823644,
0.12394014962593516,0.004530997377298899,
0.12399002493765586,0.03786514245422558,
0.12403990024937656,0.03654253600855322,
0.12408977556109725,0.013429065893102698,
0.12413965087281796,0.017423482558691816,
0.12418952618453866,0.043229556356603305,
0.12423940149625935,0.033606991416161774,
0.12428927680798005,0.006477197099879376,
0.12433915211970074,0.028003008568475412,
0.12438902743142144,0.000416920358814174,
0.12443890274314215,0.04470609572168458,
0.12448877805486284,0.01868373506569302,
0.12453865336658354,0.03331220607482792,
0.12458852867830424,0.0066883868989773484,
0.12463840399002493,0.011412930798237502,
0.12468827930174564,0.020373635365547964,
0.12473815461346634,0.029317344504988494,
0.12478802992518703,0.016501310216729563,
0.12483790523690773,0.025949293029133572,
0.12488778054862842,0.022557487451020854,
0.12493765586034913,-0.002969979837552674,
0.12498753117206983,0.0005997471457756046,
0.12503740648379053,0.0364144370330433,
0.12508728179551123,0.006892395773087506,
0.12513715710723192,0.011862257735550807,
0.12518703241895263,0.02998688988339138,
0.1252369077306733,0.024042417978903115,
0.12528678304239402,0.03363625356355607,
0.1253366583541147,0.03281785668987429,
0.1253865336658354,0.021069641911162482,
0.12543640897755612,0.03421974550017015,
0.1254862842892768,0.025276352874239655,
0.1255361596009975,0.043597533675959435,
0.1255860349127182,0.057443628543275886,
0.1256359102244389,0.03730695540314756,
0.1256857855361596,0.04552341039668592,
0.1257356608478803,0.008495830145418992,
0.125785536159601,0.025966727394506867,
0.12583541147132168,0.017615140138408793,
0.1258852867830424,0.03778838796137611,
0.1259351620947631,0.025225230527428307,
0.12598503740648379,0.0304236694093947,
0.1260349127182045,0.04248926275228286,
0.12608478802992518,0.007152097954698532,
0.1261346633416459,0.009776400243584064,
0.1261845386533666,0.02926991416164553,
0.12623441396508728,0.027053281935240134,
0.126284289276808,0.04141193090094478,
0.12633416458852867,0.03634035618222327,
0.12638403990024938,0.015354181561980457,
0.1264339152119701,0.06108140324810859,
0.12648379052369077,0.029548687916567166,
0.12653366583541148,0.05326707354468066,
0.12658354114713216,0.03018908697860136,
0.12663341645885287,0.039993192850099876,
0.12668329177057355,0.03957493966322451,
0.12673316708229426,0.04345930262719795,
0.12678304239401497,0.05464811036868772,
0.12683291770573565,0.0266712444592412,
0.12688279301745636,0.03807436196283787,
0.12693266832917705,0.012165563372749093,
0.12698254364089775,0.03702760045127703,
0.12703241895261846,0.03441180953985712,
0.12708229426433915,0.024482907422785374,
0.12713216957605986,0.047544824028871474,
0.12718204488778054,0.023395413552826497,
0.12723192019950125,0.022693336788332377,
0.12728179551122196,0.030371631278059613,
0.12733167082294264,0.023870844099427243,
0.12738154613466335,0.027880177558122582,
0.12743142144638403,0.008081992756611946,
0.12748129675810474,0.03282117757667786,
0.12753117206982545,0.04309079623442394,
0.12758104738154613,0.02872363355520767,
0.12763092269326684,0.011581786616042207,
0.12768079800498752,0.0611488205885167,
0.12773067331670823,0.03006995155208378,
0.1277805486284289,0.035879932304323146,
0.12783042394014962,0.03162058718764274,
0.12788029925187033,0.04995536287850394,
0.12793017456359101,0.041831484531363095,
0.12798004987531172,0.06295081604564069,
0.1280299251870324,0.030063934664901388,
0.12807980049875312,0.04283505295992039,
0.12812967581047383,0.03143873117181973,
0.1281795511221945,0.037308854393083235,
0.12822942643391522,0.04006224117164207,
0.1282793017456359,0.02534304400666986,
0.1283291770573566,-0.011347900925720106,
0.12837905236907732,0.04966374758658895,
0.128428927680798,0.02767653192564412,
0.1284788029925187,0.028475854925409192,
0.1285286783042394,0.013023970866960796,
0.1285785536159601,0.024836829923412875,
0.1286284289276808,0.029299055877444018,
0.1286783042394015,0.0484312953438686,
0.1287281795511222,0.026968334644170457,
0.12877805486284288,0.0021554822049945424,
0.1288279301745636,0.022931677962443088,
0.1288778054862843,0.03458275922663988,
0.12892768079800498,0.023854814550505515,
0.1289775561097257,0.05061549358105299,
0.12902743142144638,0.03314135606079611,
0.12907730673316709,0.026499659773148082,
0.12912718204488777,0.03170648679877341,
0.12917705735660848,0.026668504030803165,
0.1292269326683292,0.04045293140067512,
0.12927680798004987,0.026495804165035584,
0.12932668329177058,0.01409007290184853,
0.12937655860349126,0.015302544504457873,
0.12942643391521197,0.03627581721777136,
0.12947630922693268,0.011016111556621829,
0.12952618453865336,0.017202416541332255,
0.12957605985037407,0.015897118622201334,
0.12962593516209475,0.006933410778938297,
0.12967581047381546,0.03802876752954569,
0.12972568578553617,0.008896694730854538,
0.12977556109725685,0.034371735491474036,
0.12982543640897756,0.029831639234095632,
0.12987531172069824,0.00710495544254376,
0.12992518703241895,0.010654106967410211,
0.12997506234413966,0.021573726685440737,
0.13002493765586035,0.025773058124439998,
0.13007481296758105,0.023889803290464032,
0.13012468827930174,0.03250673062192411,
0.13017456359102245,0.01944586236264731,
0.13022443890274316,0.04421863390566211,
0.13027431421446384,0.03363762902048147,
0.13032418952618455,0.018181792494600817,
0.13037406483790523,0.0005937317718115592,
0.13042394014962594,0.012655072330956401,
0.13047381546134662,0.03368018475345658,
0.13052369077306733,0.013009568819639947,
0.13057356608478804,0.010709103301211043,
0.13062344139650872,0.020160554442962227,
0.13067331670822943,0.031971868568397496,
0.1307231920199501,0.026092541860416776,
0.13077306733167082,0.02075787543339069,
0.13082294264339153,0.01904324284203201,
0.13087281795511221,0.0017598811727164865,
0.13092269326683292,0.0174912634235528,
0.1309725685785536,0.0037874574352687543,
0.13102244389027431,-0.01884250637159162,
0.13107231920199502,0.0220053948051095,
0.1311221945137157,0.021906933838500318,
0.13117206982543642,-0.0010428107426757698,
0.1312219451371571,0.01459149912973811,
0.1312718204488778,0.008803889929041221,
0.13132169576059852,0.006190920610708462,
0.1313715710723192,0.01964017824724385,
0.1314214463840399,0.045377296985623886,
0.1314713216957606,0.012261649777635938,
0.1315211970074813,0.00214705303162265,
0.13157107231920198,0.020429393424567052,
0.1316209476309227,-0.0036649205398250114,
0.1316708229426434,0.022400049648559767,
0.13172069825436408,0.028937133064913755,
0.1317705735660848,0.017361611495132552,
0.13182044887780547,-0.00997766375324851,
0.13187032418952618,0.0016795849985358326,
0.1319201995012469,0.010062867830703034,
0.13197007481296757,0.0063843587820093355,
0.13201995012468828,0.035724779881675425,
0.13206982543640897,-0.02693593052134063,
0.13211970074812968,0.01716538175901431,
0.13216957605985039,-0.012141482921317661,
0.13221945137157107,-0.011059395491236496,
0.13226932668329178,-0.008834754250016074,
0.13231920199501246,0.016137112093693604,
0.13236907730673317,0.01378421029101786,
0.13241895261845388,-0.013795979937839757,
0.13246882793017456,0.02961912987658735,
0.13251870324189527,-0.006803287969755429,
0.13256857855361595,-0.002373633561921374,
0.13261845386533666,0.00594280974896017,
0.13266832917705737,0.013065371395640724,
0.13271820448877805,-0.003411333342505504,
0.13276807980049876,-0.010479601101566885,
0.13281795511221944,-0.005577893438551394,
0.13286783042394015,0.0003271897120223329,
0.13291770573566083,0.025713537723634515,
0.13296758104738154,0.020174338485877175,
0.13301745635910225,0.01769147715239899,
0.13306733167082294,0.014784330060307492,
0.13311720698254365,-0.0018043248409125804,
0.13316708229426433,0.007418374207989304,
0.13321695760598504,-0.012152813075099599,
0.13326683291770575,0.015332333754461221,
0.13331670822942643,-0.0029587245525176547,
0.13336658354114714,-0.012022246951806736,
0.13341645885286782,-0.02399924550868065,
0.13346633416458853,-0.014803027883847535,
0.13351620947630924,-0.003342693551108296,
0.13356608478802992,-0.008675723595530298,
0.13361596009975063,0.006215832981266895,
0.1336658354114713,-0.03553448510951941,
0.13371571072319202,0.02717064001867972,
0.13376558603491273,-0.009867734246410704,
0.1338154613466334,0.027036513432221347,
0.13386533665835412,0.028728904198858304,
0.1339152119700748,0.009963265531468906,
0.13396508728179551,0.007458626275840449,
0.1340149625935162,0.008850620106999465,
0.1340648379052369,-0.013144611050567148,
0.13411471321695762,0.010150064464560066,
0.1341645885286783,0.007950808332235245,
0.134214463840399,-0.019561072758032365,
0.1342643391521197,-0.03263490992505217,
0.1343142144638404,-0.015095343251631402,
0.1343640897755611,0.005458060369855078,
0.1344139650872818,-0.00967934556967839,
0.1344638403990025,-0.023094282921539068,
0.13451371571072318,0.004005152758467509,
0.1345635910224439,0.011955601342888481,
0.1346134663341646,0.015355188222099763,
0.13466334164588528,0.002256343845952611,
0.134713216957606,0.010676739777579259,
0.13476309226932667,0.001650142638458021,
0.13481296758104738,-0.003518263262190284,
0.1348628428927681,0.0005200259435657944,
0.13491271820448877,0.001390825122274236,
0.13496259351620948,-0.028794979912074782,
0.13501246882793017,-0.003978348012893958,
0.13506234413965088,-0.0196892669174911,
0.13511221945137158,0.017541549181187815,
0.13516209476309227,-0.008200070299536956,
0.13521197007481298,-0.007889478331173216,
0.13526184538653366,0.00010270061682146614,
0.13531172069825437,-0.0036182471452864892,
0.13536159600997505,0.008321537646968295,
0.13541147132169576,0.0007596358006926648,
0.13546134663341647,-0.024380746120816733,
0.13551122194513715,-0.007702789701431836,
0.13556109725685786,-0.0398725962497452,
0.13561097256857854,0.013192917686377668,
0.13566084788029925,-0.015553875904514871,
0.13571072319201996,-0.036935883291096386,
0.13576059850374064,0.01845711122947406,
0.13581047381546135,-0.011344236436472133,
0.13586034912718203,0.0021131220808258706,
0.13591022443890274,-0.013658636868543204,
0.13596009975062345,-0.01032979585432811,
0.13600997506234414,-0.012949567698687001,
0.13605985037406484,-0.002573545803613765,
0.13610972568578553,-0.0017513154209069324,
0.13615960099750624,-0.009171332617368647,
0.13620947630922695,0.002058334326914768,
0.13625935162094763,-0.0008394123418740077,
0.13630922693266834,0.02631390939829944,
0.13635910224438902,-0.028135847085410687,
0.13640897755610973,-0.015860386446307963,
0.1364588528678304,-0.027709642612089802,
0.13650872817955112,-0.04096353233416451,
0.13655860349127183,-0.014335521683199388,
0.1366084788029925,-0.022754190480631695,
0.13665835411471322,-0.005855790915127657,
0.1367082294264339,-0.006485405226153309,
0.1367581047381546,-0.023946843814524256,
0.13680798004987532,-0.002470699285448248,
0.136857855361596,-0.020315439659601725,
0.1369077306733167,-0.0010184108575016382,
0.1369576059850374,-0.033964705915021966,
0.1370074812967581,0.002940922393315625,
0.13705735660847881,-0.026572525615681786,
0.1371072319201995,-0.0007693341183155952,
0.1371571072319202,0.01620978817567308,
0.1372069825436409,-0.05088665626668155,
0.1372568578553616,-0.021893938804102328,
0.1373067331670823,-0.01688139272041429,
0.137356608478803,-0.043138716247008616,
0.1374064837905237,0.02132856652992041,
0.13745635910224438,0.010540681392910476,
0.1375062344139651,-0.008088598175732936,
0.1375561097256858,-0.01720366755031936,
0.13760598503740648,0.00988463984877256,
0.1376558603491272,0.005725615573338047,
0.13770573566084787,0.014453837583754008,
0.13775561097256858,-0.019309566627027708,
0.13780548628428926,0.010873364220015568,
0.13785536159600997,-0.0015324536336648303,
0.13790523690773068,0.0017866735530708208,
0.13795511221945136,-0.005412100810641114,
0.13800498753117207,0.014239658058443959,
0.13805486284289276,-0.015774132919492936,
0.13810473815461347,-0.030407186150647796,
0.13815461346633418,0.00989529046473876,
0.13820448877805486,0.006019082142858696,
0.13825436408977557,-0.0018192974666488776,
0.13830423940149625,-0.03599999837905067,
0.13835411471321696,0.013912910167009844,
0.13840399002493767,0.015225361033004774,
0.13845386533665835,-0.018862905166286095,
0.13850374064837906,-0.00693090083717282,
0.13855361596009974,0.0007327341472069407,
0.13860349127182045,-0.016095066658412746,
0.13865336658354116,-0.004283092384835012,
0.13870324189526184,-0.002572404265532603,
0.13875311720698255,-0.010481086671648905,
0.13880299251870323,-0.004544056005182787,
0.13885286783042394,-0.014198301005830952,
0.13890274314214462,-0.016668707215683934,
0.13895261845386533,-0.005719382363477132,
0.13900249376558604,-0.023601844823673654,
0.13905236907730673,0.002465427586238771,
0.13910224438902744,-0.0008041738803620246,
0.13915211970074812,0.008816620531720441,
0.13920199501246883,-0.01466021435391756,
0.13925187032418954,0.023408374366616132,
0.13930174563591022,0.0011994542851061505,
0.13935162094763093,0.015013197154076447,
0.1394014962593516,0.0006613222201086208,
0.13945137157107232,0.005119005658092349,
0.13950124688279303,0.01981900391809726,
0.1395511221945137,0.009348383988199909,
0.13960099750623442,0.007965078733382383,
0.1396508728179551,-0.007878721489935453,
0.1397007481296758,0.028192237396159985,
0.13975062344139652,0.021002359850961404,
0.1398004987531172,0.014229721345816845,
0.1398503740648379,-0.016278687339634734,
0.1399002493765586,-0.007383789589637138,
0.1399501246882793,0.0019327882004219908,
0.14,0.000732831375329736,
0.1400498753117207,0.006619806517848884,
0.1400997506234414,0.011270228972572472,
0.1401496259351621,-0.011258909214778677,
0.1401995012468828,-0.025589803379486988,
0.14024937655860348,0.003359486043819111,
0.1402992518703242,0.006513749921793098,
0.1403491271820449,-0.011512032568109893,
0.14039900249376558,0.02372597115550951,
0.1404488778054863,0.03278145896362823,
0.14049875311720697,-0.013814926902913294,
0.14054862842892768,0.012055449168020352,
0.1405985037406484,-0.020798781093715246,
0.14064837905236907,0.018290380771825782,
0.14069825436408978,0.018434934036239317,
0.14074812967581046,0.0067769974934775165,
0.14079800498753117,-0.01865330832420333,
0.14084788029925188,0.006709221964458497,
0.14089775561097256,0.02253174382228959,
0.14094763092269327,0.0071328577183899285,
0.14099750623441396,0.004301120168048768,
0.14104738154613466,0.016773132005113028,
0.14109725685785537,0.016390645241541123,
0.14114713216957606,-0.000904793034722174,
0.14119700748129677,0.013121835251297242,
0.14124688279301745,-0.012528801744210127,
0.14129675810473816,-0.004205334307535873,
