time,amplitude,label
0.0,-0.04558690567470966,
4.987531172069826e-05,-0.022873865013613798,
9.975062344139652e-05,0.00024049139251216406,
0.00014962593516209475,-0.004830132691252242,
0.00019950124688279303,0.0021700907288757787,
0.00024937655860349125,-0.025964488632828575,
0.0002992518703241895,-0.04733108345605011,
0.00034912718204488776,-0.03880013292547201,
0.00039900249376558606,0.00540768963394574,
0.0004488778054862843,-0.028771408008137836,
0.0004987531172069825,0.0020008746874478935,
0.0005486284289276808,-0.02103788454709126,
0.000598503740648379,-0.020514712616607943,
0.0006483790523690773,-0.04510789936957875,
0.0006982543640897755,-0.016952397612941827,
0.0007481296758104738,-0.022914022193636148,
0.0007980049875311721,-0.021631284794033187,
0.0008478802992518703,-0.02005916619155961,
0.0008977556109725686,-0.0020439386029916795,
0.0009476309226932668,-0.024068912287813025,
0.000997506234413965,-0.030263587579787168,
0.0010473815461346633,-0.0382090509918451,
0.0010972568578553616,0.009329849000171225,
0.00114713216957606,-0.01701390646462413,
0.001197007481296758,-0.016504486625252276,
0.0012468827930174563,-0.012858123870875569,
0.0012967581047381546,-0.03365305019185317,
0.001346633416458853,-0.03072151096214875,
0.001396508728179551,-0.009007350918775728,
0.0014463840399002493,0.004218863990454791,
0.0014962593516209476,-0.020421886086873012,
0.001546134663341646,-0.03676434818071173,
0.0015960099750623442,-0.029003633352350747,
0.0016458852867830423,-0.028637159725907843,
0.0016957605985037406,0.0014078771526041707,
0.001745635910224439,-0.021711433565261132,
0.0017955112219451373,-0.02685368655917348,
0.0018453865336658353,0.003821886503144134,
0.0018952618453865336,-0.02688168830000187,
0.001945137157107232,-0.020455236067197752,
0.00199501246882793,-0.04211445715401268,
0.0020448877805486283,-0.02843553875289704,
0.0020947630922693266,-0.01981851335749318,
0.002144638403990025,-0.008111395461515144,
0.0021945137157107233,0.01521260292327356,
0.0022443890274314216,-0.03184803014351933,
0.00229426433915212,-0.02008831577162441,
0.0023441396508728177,-0.04303394547047527,
0.002394014962593516,-0.024998768651922264,
0.0024438902743142144,0.011529874484942932,
0.0024937655860349127,-0.039760596415094655,
0.002543640897755611,-0.0009228662173040303,
0.0025935162094763093,-0.0018327708361598263,
0.0026433915211970076,-0.017049296643810836,
0.002693266832917706,-0.02793029861931927,
0.002743142144638404,-0.02637706008218107,
0.002793017456359102,-0.03250690663824084,
0.0028428927680798004,0.005312782273778911,
0.0028927680798004987,0.00272935180342156,
0.002942643391521197,0.006199386402685768,
0.0029925187032418953,-0.0027334829254851128,
0.0030423940149625936,-0.0086909190636184,
0.003092269326683292,-0.03522528704266749,
0.00314214463840399,-0.027119481326698884,
0.0031920199501246885,-0.014972033306029493,
0.0032418952618453864,-0.01971775578663476,
0.0032917705735660847,-0.002483241328319726,
0.003341645885286783,-0.013614718094427212,
0.0033915211970074813,-0.009789165334220092,
0.0034413965087281796,-0.007714055011329877,
0.003491271820448878,-0.0151926087141953,
0.003541147132169576,-0.023014322747918817,
0.0035910224438902745,-0.006966708450051876,
0.0036408977556109724,-0.02234950424373683,
0.0036907730673316707,-0.0002312943002540941,
0.003740648379052369,-0.03435721782473995,
0.0037905236907730673,-0.015510062259244114,
0.0038403990024937656,-0.009386971006606213,
0.003890274314214464,-0.009383966509298977,
0.003940149625935162,-0.002548396609241818,
0.00399002493765586,-0.019429037139352897,
0.004039900249376558,-0.016633892268615648,
0.004089775561097257,-0.02935997532086637,
0.004139650872817955,-0.026829690792838756,
0.004189526184538653,-0.022473589527563516,
0.004239401496259352,-0.00819932930882667,
0.00428927680798005,-0.01357432041068971,
0.004339152119700748,0.002259260460006853,
0.0043890274314214465,-0.03279263360925451,
0.004438902743142145,-0.03427706064846931,
0.004488778054862843,-0.0291028905026525,
0.004538653366583541,-0.024775837578996172,
0.00458852867830424,-0.007891387420393393,
0.004638403990024938,-0.028883539755636164,
0.0046882793017456355,-0.00984585155767207,
0.004738154613466334,0.013680187421229303,
0.004788029925187032,-0.04393733382855817,
0.00483790523690773,-0.007056087202507919,
0.004887780548628429,-0.02108363580724317,
0.004937655860349127,0.016424535921190146,
0.004987531172069825,-0.02451960538027681,
0.005037406483790524,-0.01725754199761582,
0.005087281795511222,-0.00944726408552126,
0.00513715710723192,-0.0027331979752173545,
0.0051870324189526185,-0.018616049957303635,
0.005236907730673317,-0.009257308382452537,
0.005286783042394015,-0.002047077003447189,
0.0053366583541147134,0.006832516909566311,
0.005386533665835412,0.01754745314858283,
0.00543640897755611,-0.01334153831004252,
0.005486284289276808,0.002390901324244377,
0.005536159600997507,-0.02120371497268006,
0.005586034912718204,-0.01379030574345215,
0.005635910224438902,-0.02291291281341184,
0.005685785536159601,0.01709655191964165,
0.005735660847880299,0.008738644981807243,
0.005785536159600997,-0.006614046497563976,
0.005835411471321696,-0.005730362280186273,
0.005885286783042394,-0.01164192410746108,
0.005935162094763092,0.006210000200415776,
0.0059850374064837905,0.004722247930356516,
0.006034912718204489,0.006477990706135996,
0.006084788029925187,-0.021734125988556813,
0.0061346633416458855,0.01555988340072939,
0.006184538653366584,0.012820907542615272,
0.006234413965087282,-0.017569175761442155,
0.00628428927680798,-0.03028886967294711,
0.006334164588528679,-0.015547419328134556,
0.006384039900249377,0.012657460571179162,
0.006433915211970074,0.005650396984571817,
0.006483790523690773,0.018705271224879985,
0.006533665835411471,0.011615148122466628,
0.006583541147132169,0.0026155016984744893,
0.006633416458852868,0.015827452953945255,
0.006683291770573566,-0.03386888371373879,
0.006733167082294264,0.003567320607476967,
0.0067830423940149626,0.018819808270500765,
0.006832917705735661,0.00951345960002766,
0.006882793017456359,0.005689278114323466,
0.0069326683291770575,-0.013384703628776872,
0.006982543640897756,-0.009029719025110412,
0.007032418952618454,0.0099455324099918,
0.007082294264339152,0.018144104109766416,
0.007132169576059851,0.014003810369569294,
0.007182044887780549,-0.00331722808399223,
0.007231920199501247,0.019384314269458608,
0.007281795511221945,-0.017378737044079138,
0.007331670822942643,-0.008998289860912983,
0.007381546134663341,0.00034078975767687456,
0.00743142144638404,0.008277218223469046,
0.007481296758104738,0.012242393396183975,
0.007531172069825436,0.027199156076205124,
0.007581047381546135,-0.00045124083951398036,
0.007630922693266833,0.02185233740233613,
0.007680798004987531,0.04118872477414656,
0.0077306733167082295,0.008589721548179266,
0.007780548628428928,0.014491055844329099,
0.007830423940149626,0.010790632432848538,
0.007880299251870324,-0.00951420797023206,
0.007930174563591023,0.0025247597679395276,
0.00798004987531172,0.015215460835672219,
0.00802992518703242,-0.01439413755974623,
0.008079800498753117,0.04250218413619879,
0.008129675810473816,-0.01498455029468123,
0.008179551122194513,0.012505403846425355,
0.008229426433915213,0.005785794000732134,
0.00827930174563591,0.01373974944657059,
0.00832917705735661,-0.005063001023855096,
0.008379052369077307,0.006685635061805491,
0.008428927680798006,0.008670829599013073,
0.008478802992518703,0.011362812176971798,
0.0085286783042394,0.011304255431220758,
0.0085785536159601,0.019671008231016016,
0.008628428927680797,0.010571295776773891,
0.008678304239401496,-0.0007049342113949301,
0.008728179551122194,0.0012915133923597447,
0.008778054862842893,-0.014550994550227521,
0.00882793017456359,0.00746205656010263,
0.00887780548628429,0.03486601049461076,
0.008927680798004987,0.02588388867452485,
0.008977556109725686,0.020776463613365968,
0.009027431421446384,0.029950796885326127,
0.009077306733167083,0.003553512448579625,
0.00912718204488778,0.012650501004850667,
0.00917705735660848,0.01242829143189875,
0.009226932668329177,-0.009201583846149799,
0.009276807980049876,0.03051330049402783,
0.009326683291770574,0.013375919130471155,
0.009376558603491271,0.03144661784056143,
0.00942643391521197,0.0440352919939537,
0.009476309226932668,0.005322630731493895,
0.009526184538653367,0.030674615093618945,
0.009576059850374064,-0.0015235468318828167,
0.009625935162094763,0.023070352560812198,
0.00967581047381546,0.0283622144464691,
0.00972568578553616,0.01838509839842791,
0.009775561097256857,0.005393706836052588,
0.009825436408977557,0.04636423338215369,
0.009875311720698254,0.006680439004675999,
0.009925187032418953,0.03985119131806977,
0.00997506234413965,0.018430195292497415,
0.01002493765586035,0.03325955978768642,
0.010074812967581047,0.01684280228352188,
0.010124688279301746,0.00985708652701188,
0.010174563591022444,0.03526246105386002,
0.010224438902743141,0.0385670856025874,
0.01027431421446384,0.0005246134834281865,
0.010324189526184538,0.017441805142351833,
0.010374064837905237,0.01799431124922881,
0.010423940149625935,0.004145519900675257,
0.010473815461346634,0.0035271379063192276,
0.010523690773067331,0.0059975640234544315,
0.01057356608478803,0.02730132857773426,
0.010623441396508728,0.004590427613677398,
0.010673316708229427,-0.008081725761689817,
0.010723192019950124,0.019055089074179774,
0.010773067331670824,0.004524643721904968,
0.010822942643391521,-0.0005653261299176371,
0.01087281795511222,-0.007402931299218086,
0.010922693266832918,0.026229484770668436,
0.010972568578553617,0.013179636047900952,
0.011022443890274314,0.026631001663381077,
0.011072319201995013,0.03448621625756616,
0.01112219451371571,0.014396028842955818,
0.011172069825436408,0.02869952334332007,
0.011221945137157107,0.02900736288113437,
0.011271820448877805,0.0071431415075725105,
0.011321695760598504,0.046729343137435694,
0.011371571072319201,0.020748203917057978,
0.0114214463840399,-0.0019523916080634689,
0.011471321695760598,0.039418872006427644,
0.011521197007481297,-0.011005392693080929,
0.011571072319201995,0.01396210804900051,
0.011620947630922694,0.004455400127824319,
0.011670822942643391,0.017211061924073942,
0.01172069825436409,0.03561593999050633,
0.011770573566084788,0.011605522431695681,
0.011820448877805487,0.005800249444433728,
0.011870324189526184,0.030730981571150832,
0.011920199501246884,0.028480671007813447,
0.011970074812967581,0.014330213008639887,
0.012019950124688279,0.031217223745946713,
0.012069825436408978,0.005678417748347096,
0.012119700748129675,0.02584523984684538,
0.012169576059850374,0.017460772341299065,
0.012219451371571072,0.012125276103805748,
0.012269326683291771,0.05493533149705104,
0.012319201995012468,0.03446562739057648,
0.012369077306733168,0.03156847001478369,
0.012418952618453865,-0.004783902381638155,
0.012468827930174564,0.013864894717600476,
0.012518703241895262,-0.006474961761323596,
0.01256857855361596,0.018723889773269553,
0.012618453865336658,0.0038963093988875867,
0.012668329177057357,0.014836640651879611,
0.012718204488778055,0.019237922376261964,
0.012768079800498754,0.016202288031172032,
0.012817955112219451,0.013869972125845441,
0.012867830423940149,0.030931208187351594,
0.012917705735660848,0.0267335548415092,
0.012967581047381545,0.021023087501653652,
0.013017456359102245,0.000604913345597903,
0.013067331670822942,0.03173017710266191,
0.013117206982543641,0.053045589207403016,
0.013167082294264339,0.040796742974099603,
0.013216957605985038,0.02770481038116422,
0.013266832917705735,0.010050383210661209,
0.013316708229426434,0.02022356957573268,
0.013366583541147132,0.030045030685500962,
0.013416458852867831,0.019549473381900558,
0.013466334164588529,0.014627970108640476,
0.013516209476309228,0.006249500697078171,
0.013566084788029925,0.038058629659515376,
0.013615960099750624,0.001573972313283335,
0.013665835411471322,0.045945957997952494,
0.01371571072319202,0.04313082673030985,
0.013765586034912718,0.01484352876935695,
0.013815461346633416,0.030434446658790297,
0.013865336658354115,0.025678262488788337,
0.013915211970074812,0.006128555188888754,
0.013965087281795512,0.009371179239848591,
0.014014962593516209,0.01387107897506637,
0.014064837905236908,0.03150291437175629,
0.014114713216957606,0.025179332635956835,
0.014164588528678305,0.009124706540556651,
0.014214463840399002,0.03544599935904276,
0.014264339152119701,0.021582530917242368,
0.014314214463840399,0.01065490334678854,
0.014364089775561098,-0.011773292902220227,
0.014413965087281795,0.0026118416636864896,
0.014463840399002495,0.023577050353426023,
0.014513715710723192,0.008608017341299571,
0.01456359102244389,-0.004508789310704699,
0.014613466334164589,0.02749782677410755,
0.014663341645885286,0.05780253906363442,
0.014713216957605985,-0.001817432053802026,
0.014763092269326683,0.007772114724454841,
0.014812967581047382,-0.018232128160067182,
0.01486284289276808,0.0028944211179712607,
0.014912718204488778,0.01907981224891729,
0.014962593516209476,-0.0002549213208236662,
0.015012468827930175,0.015451538989472519,
0.015062344139650873,0.0005778928431485215,
0.015112219451371572,0.017624876500424817,
0.01516209476309227,0.01895147911998619,
0.015211970074812968,0.0232335467031428,
0.015261845386533666,0.0005418870205220281,
0.015311720698254365,0.02030577256577672,
0.015361596009975062,-0.0024555272991573923,
0.01541147132169576,0.018241991230649846,
0.015461346633416459,0.03301524379772504,
0.015511221945137156,0.030764938066956578,
0.015561097256857856,-0.010366790790453188,
0.015610972568578553,-0.008604855337019643,
0.015660847880299252,-0.02707905478515537,
0.01571072319201995,-0.0012509592349561434,
0.015760598503740647,-0.0071421555841218645,
0.015810473815461346,0.026374133809509186,
0.015860349127182045,0.02553638787502556,
0.015910224438902745,0.02134193436581452,
0.01596009975062344,0.031242116251062955,
0.01600997506234414,0.0205445085147294,
0.01605985037406484,0.023885108452040185,
0.016109725685785538,-0.015032660458176486,
0.016159600997506234,-0.0017156554149054268,
0.016209476309226933,0.022518085395231317,
0.016259351620947632,0.01144533418003526,
0.016309226932668328,0.010189682258919704,
0.016359102244389027,-0.00829699791357828,
0.016408977556109726,-0.016432248524700137,
0.016458852867830425,0.019344021951655015,
0.01650872817955112,0.0069440500571675825,
0.01655860349127182,-0.02622144661485944,
0.01660847880299252,-0.019354155379610546,
0.01665835411471322,-0.0006076824948032578,
0.016708229426433914,0.02464264264240271,
0.016758104738154613,-0.0008320367958318837,
0.016807980049875312,0.00849909215837882,
0.01685785536159601,0.009870395678210192,
0.016907730673316707,-0.004293977797757907,
0.016957605985037406,-0.007493541457817951,
0.017007481296758106,-0.023249636698562295,
0.0170573566084788,0.0016244887490283906,
0.0171072319201995,-0.0035894761239343527,
0.0171571072319202,0.012267248662794984,
0.0172069825436409,0.03449451445683917,
0.017256857855361595,0.005206696698411105,
0.017306733167082294,0.003741350763016676,
0.017356608478802993,-0.0167201119556108,
0.017406483790523692,0.006079452609597635,
0.017456359102244388,-0.014378675986621778,
0.017506234413965087,0.02803021104411222,
0.017556109725685786,0.014226951433760692,
0.017605985037406485,-0.011410130733260086,
0.01765586034912718,-0.04303369010378807,
0.01770573566084788,-0.025977484169220633,
0.01775561097256858,0.002429815779703342,
0.01780548628428928,-0.000325834710027683,
0.017855361596009974,-0.004028006776793472,
0.017905236907730673,0.007389357573277988,
0.017955112219451373,-0.0026018857531364533,
0.018004987531172068,-0.00973760067671766,
0.018054862842892767,-0.029014204768084563,
0.018104738154613467,-0.011732946628599777,
0.018154613466334166,0.005865981449447303,
0.01820448877805486,-0.015085728108298752,
0.01825436408977556,-0.00744815012510135,
0.01830423940149626,0.014659606047294962,
0.01835411471321696,0.0033407537011621875,
0.018403990024937655,-0.014321163651887792,
0.018453865336658354,-0.020564121817998236,
0.018503740648379053,-0.034538810166046485,
0.018553615960099752,0.033738296391893824,
0.018603491271820448,0.0006091436112927503,
0.018653366583541147,-0.01029812826687873,
0.018703241895261846,-0.005190382654533491,
0.018753117206982542,0.01047673695299884,
0.01880299251870324,-0.009551036619149212,
0.01885286783042394,-0.01092026774100597,
0.01890274314214464,-0.011434451095258327,
0.018952618453865335,-0.02621942574898374,
0.019002493765586034,5.1776927173478524e-05,
0.019052369077306733,-0.02022224116962159,
0.019102244389027433,0.0015522958924324252,
0.01915211970074813,-0.01176199837952215,
0.019201995012468828,-0.04589922931104168,
0.019251870324189527,-0.010894790070227589,
0.019301745635910226,-0.007026834669717762,
0.01935162094763092,-0.009348205379899683,
0.01940149625935162,-0.028374031016611623,
0.01945137157107232,-0.023188496732308887,
0.01950124688279302,-0.0041234012030191974,
0.019551122194513715,-0.03458077369138207,
0.019600997506234414,-0.007827139869032282,
0.019650872817955113,0.003955157009897861,
0.01970074812967581,-0.020607131266481706,
0.019750623441396508,-0.01638850728242124,
0.019800498753117207,-0.01709340949907822,
0.019850374064837906,0.023771125873203486,
0.019900249376558602,0.0074092668808400965,
0.0199501246882793,-0.017375245872799514,
0.02,-0.013288324370257608,
0.0200498753117207,0.004510218515377723,
0.020099750623441395,-0.02368492745178134,
0.020149625935162094,-0.013371952662003176,
0.020199501246882794,-0.02921646477192296,
0.020249376558603493,-0.01819571626826594,
0.02029925187032419,-0.03827733129666468,
0.020349127182044888,-0.040329043868514075,
0.020399002493765587,-0.01410520077536883,
0.020448877805486283,-0.0017549656754496622,
0.02049875311720698,-0.030002094721150042,
0.02054862842892768,-0.014330105428838343,
0.02059850374064838,-0.023528099123350105,
0.020648379052369076,-0.025386724338993215,
0.020698254364089775,-0.008217964905282156,
0.020748129675810474,-0.010839854375538343,
0.020798004987531173,-0.014321879662300894,
0.02084788029925187,-0.017665904887545467,
0.020897755610972568,-0.024001317912999892,
0.020947630922693267,0.006572346753569703,
0.020997506234413967,-0.010455973743741163,
0.021047381546134662,-0.025152957364481136,
0.02109725685785536,-0.03462650598183528,
0.02114713216957606,-0.012482070657052816,
0.02119700748129676,-0.03106733761397979,
0.021246882793017455,-0.018250719537271407,
0.021296758104738155,-0.034787891995848516,
0.021346633416458854,-0.013005338771735002,
0.02139650872817955,-0.017145596701674055,
0.02144638403990025,-0.015373690425433757,
0.021496259351620948,-0.02521691271720778,
0.021546134663341647,-0.008451415969072297,
0.021596009975062343,0.009560377182094255,
0.021645885286783042,-0.014497251340054392,
0.02169576059850374,-0.01990272113392886,
0.02174563591022444,-0.0182359353811148,
0.021795511221945136,-0.032108894031262894,
0.021845386533665835,-0.007646456544402434,
0.021895261845386534,-0.00838879790348726,
0.021945137157107233,-0.001347713090223794,
0.02199501246882793,-0.01414130358700218,
0.02204488778054863,-0.011645775167002907,
0.022094763092269327,-0.017132209970013728,
0.022144638403990027,-0.04138411245773291,
0.022194513715710722,0.010693281170060468,
0.02224438902743142,0.00202072015835357,
0.02229426433915212,-0.025606851403222844,
0.022344139650872816,-0.030782233311576465,
0.022394014962593516,-0.03478107309632832,
0.022443890274314215,-0.009334617325606545,
0.022493765586034914,-0.04131302688642204,
0.02254364089775561,-0.02309097250179219,
0.02259351620947631,-0.015923462665680246,
0.022643391521197008,-0.02793844580818393,
0.022693266832917707,-0.02755358032510287,
0.022743142144638403,0.0016944728015646608,
0.022793017456359102,0.008737362585869244,
0.0228428927680798,-0.011248309539249997,
0.0228927680798005,0.0032419008674044875,
0.022942643391521196,-0.004921639555382459,
0.022992518703241895,-0.0008122585652624963,
0.023042394014962594,-0.01740781251766027,
0.02309226932668329,-0.02165069923348935,
0.02314214463840399,-0.021572636258645046,
0.02319201995012469,-0.019314195796407224,
0.023241895261845388,0.00017696916124745887,
0.023291770573566083,-0.01897280843708103,
0.023341645885286783,-0.016322104905241098,
0.02339152119700748,-0.019400811141424754,
0.02344139650872818,-0.002030273339736771,
0.023491271820448877,-0.03403141671103685,
0.023541147132169576,-0.0076422524433766075,
0.023591022443890275,-0.0018752926260609034,
0.023640897755610974,4.853395671473512e-05,
0.02369077306733167,-0.029283182901091526,
0.02374064837905237,-0.020901220287683524,
0.023790523690773068,0.004238714543468702,
0.023840399002493767,-0.01721923842643655,
0.023890274314214463,-0.02733131980494928,
0.023940149625935162,-0.0034217141295891755,
0.02399002493765586,0.012102727698578937,
0.024039900249376557,0.0025859748034288595,
0.024089775561097256,0.026558765355578873,
0.024139650872817955,-0.01693477938661192,
0.024189526184538655,-0.03039021756042403,
0.02423940149625935,-0.018301666416460933,
0.02428927680798005,0.017335484683108495,
0.02433915211970075,-0.026760385767064326,
0.024389027431421448,-0.0023024209585026222,
0.024438902743142144,-0.02579401542444107,
0.024488778054862843,-0.027917163696796553,
0.024538653366583542,-0.0027196732056604484,
0.02458852867830424,0.0023643822617595896,
0.024638403990024937,-0.019376460401496192,
0.024688279301745636,-0.03072001818369669,
0.024738154613466335,-0.03750305034588207,
0.02478802992518703,-0.03583542363789822,
0.02483790523690773,-0.0005182556242779423,
0.02488778054862843,-0.029683850729398907,
0.02493765586034913,-0.024529666054296566,
0.024987531172069824,0.009027977834672827,
0.025037406483790523,-0.028004245602321193,
0.025087281795511222,0.0012332568122421974,
0.02513715710723192,0.0031896697255235622,
0.025187032418952617,0.005727983236675085,
0.025236907730673316,-0.01505978055281882,
0.025286783042394016,-0.010327257719602065,
0.025336658354114715,0.0032341024075913036,
0.02538653366583541,0.014782684064553424,
0.02543640897755611,0.011321534192263172,
0.02548628428927681,0.007735436504827501,
0.025536159600997508,-0.009905977339246964,
0.025586034912718204,-0.0059172022219271675,
0.025635910224438903,-0.0074397654473586095,
0.025685785536159602,-0.01794335699047048,
0.025735660847880298,0.003605679523062629,
0.025785536159600997,0.01979356925127633,
0.025835411471321696,0.012133628265884678,
0.025885286783042395,-0.013390396516274713,
0.02593516209476309,-0.009201480884307061,
0.02598503740648379,-0.002736757594944579,
0.02603491271820449,-0.001982243176541232,
0.02608478802992519,-0.013799754878528823,
0.026134663341645884,-0.007082280628929944,
0.026184538653366583,-0.007900807485206607,
0.026234413965087282,0.010327141754468121,
0.02628428927680798,-0.0036564673429069867,
0.026334164588528677,-0.018026305836142193,
0.026384039900249377,0.01579194169318251,
0.026433915211970076,-0.013100651873650813,
0.02648379052369077,0.026864507842286497,
0.02653366583541147,0.019742063271938413,
0.02658354114713217,-0.0025479668906226243,
0.02663341645885287,0.028099611573157244,
0.026683291770573565,-0.011228711367752517,
0.026733167082294264,0.011037438903748652,
0.026783042394014963,-0.004292537360498836,
0.026832917705735662,0.021538662668857574,
0.026882793017456358,-0.012007696218116816,
0.026932668329177057,-0.004725074955881082,
0.026982543640897756,0.02363384731537678,
0.027032418952618455,0.01450842029593749,
0.02708229426433915,0.0004109517228134199,
0.02713216957605985,0.03194438351179279,
0.02718204488778055,-0.015158957453875958,
0.02723192019950125,0.00870555092145443,
0.027281795511221944,0.03189486787132255,
0.027331670822942643,0.01217314858913605,
0.027381546134663343,-0.008756373398160724,
0.02743142144638404,0.023707378354963355,
0.027481296758104738,0.02483994626901536,
0.027531172069825437,0.006261496777481647,
0.027581047381546136,0.029636443530531614,
0.02763092269326683,0.011360041304361568,
0.02768079800498753,-0.0026698835456038465,
0.02773067331670823,0.021808960845282603,
0.02778054862842893,0.0022985892608957045,
0.027830423940149625,-0.04215871132113109,
0.027880299251870324,0.018952361973577955,
0.027930174563591023,0.012980014520525739,
0.027980049875311722,0.020228061450631406,
0.028029925187032418,-0.007274224335382199,
0.028079800498753117,0.003868646708317519,
0.028129675810473816,0.01994999934548638,
0.028179551122194512,-0.007118308174310268,
0.02822942643391521,-0.0020929648151955596,
0.02827930174563591,0.011033577157115428,
0.02832917705735661,0.010109634560718067,
0.028379052369077305,0.0029758290869735735,
0.028428927680798004,-0.0013178165136400605,
0.028478802992518704,0.02901039699645023,
0.028528678304239403,-0.004068946857269124,
0.0285785536159601,0.0031168809704113527,
0.028628428927680798,-0.012434522965297214,
0.028678304239401497,0.010266210303093853,
0.028728179551122196,0.017165081287321426,
0.02877805486284289,-0.019613686203059928,
0.02882793017456359,0.010115467970222733,
0.02887780548628429,-0.0038902947797668924,
0.02892768079800499,0.0007084329549717442,
0.028977556109725685,-0.002335974934273597,
0.029027431421446384,0.017983047009411408,
0.029077306733167083,0.007498497693249477,
0.02912718204488778,0.010283009758647994,
0.029177057356608478,0.031787222480901364,
0.029226932668329177,0.024404794366700386,
0.029276807980049877,0.00557984637504004,
0.029326683291770572,-0.005675511426946639,
0.02937655860349127,0.02447598437962091,
0.02942643391521197,0.009375603359868189,
0.02947630922693267,-0.00895495043708074,
0.029526184538653365,-0.005627940412719426,
0.029576059850374065,0.03156381056299849,
0.029625935162094764,-0.0005320817371318558,
0.029675810473815463,0.030182388007279605,
0.02972568578553616,0.03102660138263208,
0.029775561097256858,0.02298176149122906,
0.029825436408977557,0.023905581592876868,
0.029875311720698253,-0.007695298372774346,
0.029925187032418952,0.010693082659497831,
0.02997506234413965,0.024300667107063807,
0.03002493765586035,0.011443474054142162,
0.030074812967581046,0.04431568062515752,
0.030124688279301745,0.04209109171025592,
0.030174563591022444,0.02422335813135547,
0.030224438902743143,0.005764790837582887,
0.03027431421446384,0.01900650012370415,
0.03032418952618454,0.03161769164937577,
0.030374064837905237,0.01829627280658915,
0.030423940149625937,0.003106061557777026,
0.030473815461346632,0.012355911080901278,
0.03052369077306733,0.014437129564885387,
0.03057356608478803,0.024784004841977902,
0.03062344139650873,-0.007602269559152438,
0.030673316708229426,0.030566515380430835,
0.030723192019950125,0.04410868315376462,
0.030773067331670824,0.012173156264666503,
0.03082294264339152,0.020424737851701794,
0.03087281795511222,-0.002469091221851561,
0.030922693266832918,0.032920741893012646,
0.030972568578553617,0.0028967567477481172,
0.031022443890274313,0.014775480563531018,
0.031072319201995012,0.016658590505637526,
0.03112219451371571,0.019372077155559702,
0.03117206982543641,0.028456998734688353,
0.031221945137157106,0.03456490758190237,
0.03127182044887781,0.04007594509730722,
0.031321695760598504,0.03268096254337756,
0.0313715710723192,0.02227516077138726,
0.0314214463840399,0.004654128284632603,
0.0314713216957606,0.05167207629172703,
0.031521197007481294,0.019792207455978865,
0.031571072319202,0.028928294819990492,
0.03162094763092269,0.04355595693992668,
0.03167082294264339,0.01837025019093514,
0.03172069825436409,0.03664710635990791,
0.03177057356608479,0.02831664071199602,
0.03182044887780549,0.03497915937978375,
0.031870324189526185,0.008117881037164619,
0.03192019950124688,0.015205826151111674,
0.03197007481296758,0.008743400404302933,
0.03201995012468828,0.03601952797245748,
0.032069825436408975,0.029651337895027906,
0.03211970074812968,0.01575183191029787,
0.03216957605985037,0.03662482934092746,
0.032219451371571076,-0.022050419054667956,
0.03226932668329177,0.029114684087710795,
0.03231920199501247,0.027546394895956193,
0.03236907730673317,0.0337263313222892,
0.032418952618453865,0.006928724056727235,
0.03246882793017456,0.029894193645660788,
0.032518703241895264,0.016243547752818825,
0.03256857855361596,0.014030518017550751,
0.032618453865336655,0.01933192690237404,
0.03266832917705736,0.021584443386476634,
0.032718204488778053,0.035029679113157325,
0.032768079800498756,-0.00076202131005116,
0.03281795511221945,0.008546892128494044,
0.03286783042394015,-0.004436808806014436,
0.03291770573566085,0.04202448377461481,
0.032967581047381546,0.012865275916831929,
0.03301745635910224,0.018259322804652683,
0.033067331670822944,0.020002899655706872,
0.03311720698254364,0.005094192821900876,
0.03316708229426434,0.024039062857268194,
0.03321695760598504,0.00025348920284373744,
0.033266832917705734,0.024320892909381154,
0.03331670822942644,0.002304721611268448,
0.03336658354114713,0.013859885337483238,
0.03341645885286783,0.025139070427973847,
0.03346633416458853,0.027039340974490764,
0.033516209476309226,0.03445627374896677,
0.03356608478802992,-0.006185216662399955,
0.033615960099750625,0.03384574249093511,
0.03366583541147132,0.03108737027133119,
0.03371571072319202,0.03207148969162969,
0.03376558603491272,0.009726716401019898,
0.033815461346633414,0.02401133838455532,
0.03386533665835412,-0.006813322754672571,
0.03391521197007481,0.01773646774272796,
0.03396508728179551,0.004886363014390707,
0.03401496259351621,0.03301733436718371,
0.03406483790523691,-5.9794809234951785e-06,
0.0341147132169576,0.007528511557906089,
0.034164588528678305,0.014073633946508499,
0.034214463840399,-0.006278823552861881,
0.034264339152119704,0.023681539514082115,
0.0343142144638404,0.022546576415836343,
0.034364089775561095,0.044504535725606385,
0.0344139650872818,0.020402360788613766,
0.03446384039900249,0.0026896289382574105,
0.03451371571072319,0.03641918974627213,
0.03456359102244389,0.035981766443707985,
0.03461346633416459,-0.004847042665004171,
0.03466334164588529,0.04469981780533417,
0.034713216957605986,0.04229806048958434,
0.03476309226932668,0.019979111688002985,
0.034812967581047384,0.005950902547627604,
0.03486284289276808,0.044415590116157935,
0.034912718204488775,0.023793650910462302,
0.03496259351620948,0.010655961416434606,
0.035012468827930174,-0.009063982580898106,
0.03506234413965087,0.008801136059886661,
0.03511221945137157,0.0003028217179625158,
0.03516209476309227,0.015140221728354365,
0.03521197007481297,-0.0006188930879100895,
0.035261845386533666,-0.01115393554828697,
0.03531172069825436,0.008975640850918587,
0.035361596009975065,0.009586478563923076,
0.03541147132169576,-0.008370400516493461,
0.035461346633416456,0.00818232049342412,
0.03551122194513716,-0.022946400022263516,
0.035561097256857854,-0.008026633203665463,
0.03561097256857856,-0.017904673899756987,
0.03566084788029925,0.045256549898660306,
0.03571072319201995,-0.013904183238601864,
0.03576059850374065,-0.0072468275654233826,
0.03581047381546135,-0.021202730052791254,
0.03586034912718204,0.013401532521549395,
0.035910224438902745,-0.006575737982409692,
0.03596009975062344,0.014275588400964767,
0.036009975062344136,-0.0005264460647323435,
0.03605985037406484,0.03892790173439971,
0.036109725685785535,0.004807766660109421,
0.03615960099750624,0.004139979298041377,
0.03620947630922693,0.010697398970959067,
0.03625935162094763,0.003922803669639522,
0.03630922693266833,-0.022822420693344968,
0.03635910224438903,0.017459595842170165,
0.03640897755610972,0.01601347283619978,
0.036458852867830426,-0.0246577115476329,
0.03650872817955112,-0.0005002788034789481,
0.036558603491271824,0.006940346779912091,
0.03660847880299252,-0.042287271022449106,
0.036658354114713215,-0.014353545204109069,
0.03670822942643392,0.008009043614976334,
0.036758104738154614,0.00493804552042573,
0.03680798004987531,0.015681559605442406,
0.03685785536159601,-0.0017507959014005194,
0.03690773067331671,-0.005580189946580653,
0.0369576059850374,0.00540224215836582,
0.037007481296758106,-0.003971684215329805,
0.0370573566084788,0.003240504070179944,
0.037107231920199504,-0.015338705302397102,
0.0371571072319202,0.023653841961907715,
0.037206982543640896,0.019612836918554085,
0.0372568578553616,0.0017359547431611347,
0.037306733167082294,0.0007391148272738448,
0.03735660847880299,0.0015408492397655407,
0.03740648379052369,-0.024570462390464044,
0.03745635910224439,-0.01811411944832325,
0.037506234413965084,-0.0037732250547713583,
0.037556109725685786,-0.023807938909410496,
0.03760598503740648,-0.004828630233989531,
0.037655860349127185,0.02425873913118919,
0.03770573566084788,0.005886678678109223,
0.037755610972568576,0.0024848043140814563,
0.03780548628428928,0.022098893785020408,
0.037855361596009975,-0.0027587873211117092,
0.03790523690773067,-0.003823188067736011,
0.03795511221945137,-0.011464151072095925,
0.03800498753117207,-0.02319294058213361,
0.03805486284289277,0.009246225401230518,
0.03810473815461347,0.0242029052277263,
0.03815461346633416,-0.028664066449177593,
0.038204488778054865,0.001357450309874022,
0.03825436408977556,-0.00925645078603813,
0.03830423940149626,-0.02375610195486809,
0.03835411471321696,-0.049238120025480316,
0.038403990024937655,0.001978037496779538,
0.03845386533665835,0.0008478788268532454,
0.03850374064837905,-0.011910626279392954,
0.03855361596009975,-0.025728566483402365,
0.03860349127182045,0.0029545902659186846,
0.03865336658354115,-0.03853412551346182,
0.03870324189526184,0.01275844720493258,
0.038753117206982546,0.011208560770862179,
0.03880299251870324,-0.017918605535425895,
0.03885286783042394,-0.003391823824525508,
0.03890274314214464,-0.012362343062047903,
0.038952618453865336,-0.026597500545890697,
0.03900249376558604,-0.015702191786907974,
0.039052369077306734,-0.020668914343243153,
0.03910224438902743,-0.005785365561598508,
0.03915211970074813,0.014729377448600898,
0.03920199501246883,-0.005734239323294711,
0.039251870324189524,0.0034434402688548523,
0.039301745635910226,0.008792425186972319,
0.03935162094763092,-0.025597846666840524,
0.03940149625935162,-0.013443981433201158,
0.03945137157107232,-0.015164194208703562,
0.039501246882793016,-0.009010875719053128,
0.03955112219451372,-0.01973898269529644,
0.039600997506234414,-0.02021188738495982,
0.03965087281795511,-0.012144164476196892,
0.03970074812967581,-0.033377176524617067,
0.03975062344139651,-0.03247878141715712,
0.039800498753117204,-0.045857188266195045,
0.03985037406483791,-0.016280712696042234,
0.0399002493765586,-0.02751399187604289,
0.039950124688279305,0.006303186608896037,
0.04,-0.0098281832722595,
0.0400498753117207,-0.0301698994629448,
0.0400997506234414,-0.017738889867899267,
0.040149625935162095,-0.015971481018831425,
0.04019950124688279,-0.007053386032461183,
0.04024937655860349,-0.023192577545660363,
0.04029925187032419,-0.026322173044265474,
0.040349127182044885,-0.015475198419798972,
0.04039900249376559,0.002210308329203412,
0.04044887780548628,0.002817827614453254,
0.040498753117206986,-0.006433601212617938,
0.04054862842892768,-0.0016028436698283834,
0.04059850374064838,-0.0026340137536971318,
0.04064837905236908,-0.0456233990481489,
0.040698254364089775,0.007611421129520044,
0.04074812967581047,-0.0031461689230969057,
0.040798004987531174,-0.03489729157093707,
0.04084788029925187,0.012917235035140338,
0.040897755610972565,-0.038376508596214484,
0.04094763092269327,-0.012658672436510608,
0.04099750623441396,-0.016678315642757704,
0.041047381546134666,0.004405713815225237,
0.04109725685785536,-0.029025241120801445,
0.04114713216957606,-0.03533423327501839,
0.04119700748129676,-0.028547978432461374,
0.041246882793017456,-0.026310508108738112,
0.04129675810473815,0.005322602289435499,
0.041346633416458854,-0.03880264663442824,
0.04139650872817955,-0.0010194636678952616,
0.04144638403990025,-0.016421001922099714,
0.04149625935162095,-0.002115128515192447,
0.041546134663341644,-0.0074622010358404885,
0.04159600997506235,-0.013761828168359962,
0.04164588528678304,-0.037578929941823484,
0.04169576059850374,-0.00914666305778479,
0.04174563591022444,-0.02291393624364284,
0.041795511221945136,0.0020003616372474484,
0.04184538653366583,-0.03404827878843478,
0.041895261845386535,-0.0030948657782876327,
0.04194513715710723,-0.03481467948395721,
0.04199501246882793,-0.002244541401472384,
0.04204488778054863,-0.036125384812483174,
0.042094763092269324,-0.025389610026622315,
0.04214463840399003,-0.0076895239703497625,
0.04219451371571072,-0.03816277913590535,
0.04224438902743142,-0.029255995860234408,
0.04229426433915212,-0.023735141138743313,
0.04234413965087282,-0.007054004058933477,
0.04239401496259352,0.0035338525328966197,
0.042443890274314215,-0.020212051235406585,
0.04249376558603491,-0.03465413070604542,
0.042543640897755614,0.0022475353424551946,
0.04259351620947631,-0.013131978383863832,
0.042643391521197005,-0.04676948931961404,
0.04269326683291771,-0.012296494554568327,
0.0427431421446384,-0.00649089547282705,
0.0427930174563591,-0.016382733959007974,
0.0428428927680798,-0.031012821098261287,
0.0428927680798005,0.004788219493500648,
0.0429426433915212,-0.007079045930424974,
0.042992518703241896,-0.02082168443140192,
0.04304239401496259,-0.0345930529377971,
0.043092269326683294,-0.031441740042562984,
0.04314214463840399,-0.008063708263821419,
0.043192019950124685,-0.015597742223556513,
0.04324189526184539,-0.0295417752830271,
0.043291770573566084,-0.02372424236156684,
0.043341645885286786,-0.015476593938746092,
0.04339152119700748,-0.01457164316844307,
0.04344139650872818,0.0013108528742759133,
0.04349127182044888,-0.015402322554396853,
0.043541147132169576,-0.003909496250621437,
0.04359102244389027,-0.019589616581957306,
0.043640897755610975,0.00700891389584073,
0.04369077306733167,-0.010029567570000146,
0.043740648379052366,0.013967804246754058,
0.04379052369077307,-0.055226231812976735,
0.043840399002493764,-0.018859749372863985,
0.04389027431421447,0.0017849947725465075,
0.04394014962593516,0.00560865414076385,
0.04399002493765586,0.004139356349481168,
0.04403990024937656,-0.003098497401966129,
0.04408977556109726,0.028189431792574545,
0.04413965087281795,0.006680960935474357,
0.044189526184538655,-0.01932873809408179,
0.04423940149625935,-0.03401181180492098,
0.04428927680798005,-0.005298357179820832,
0.04433915211970075,-0.02505663282822372,
0.044389027431421445,-0.042440355312754856,
0.04443890274314215,-0.015237446584314595,
0.04448877805486284,-0.0044242929237815875,
0.04453865336658354,-0.011187313420480042,
0.04458852867830424,-0.015312029697706345,
0.04463840399002494,-0.027962187510092017,
0.04468827930174563,-0.016962189971666364,
0.044738154613466335,-0.001692273735414529,
0.04478802992518703,0.004852195097280004,
0.044837905236907734,-0.021771974588568485,
0.04488778054862843,-0.021291248141567645,
0.044937655860349125,-0.000916095164178181,
0.04498753117206983,-0.010558798831953603,
0.045037406483790524,-0.010803474986894723,
0.04508728179551122,-0.021248098140950536,
0.04513715710723192,0.008310966789162044,
0.04518703241895262,-0.005311263638955801,
0.04523690773067331,-0.005668409041431636,
0.045286783042394016,-0.0018493856143969424,
0.04533665835411471,-0.011909121065553807,
0.045386533665835414,0.002519039148569823,
0.04543640897755611,0.02735558966661529,
0.045486284289276806,0.005727525092508394,
0.04553615960099751,-0.008282761947637966,
0.045586034912718204,-0.023040209158290668,
0.0456359102244389,0.02141416279670176,
0.0456857855361596,0.02461903788513096,
0.0457356608478803,-0.0037189740329839328,
0.045785536159601,0.02111140924666295,
0.045835411471321696,-0.02075716052716174,
0.04588528678304239,-0.0030190265497382148,
0.045935162094763095,0.011906948497300894,
0.04598503740648379,0.024140985040069007,
0.046034912718204486,0.017185468921244437,
0.04608478802992519,-0.005258336001197297,
0.046134663341645885,0.007202393022373008,
0.04618453865336658,-0.008888283561580543,
0.04623441396508728,0.012653667767607459,
0.04628428927680798,0.022724769612560716,
0.04633416458852868,0.010491087134451797,
0.04638403990024938,-0.0004750391335983156,
0.04643391521197007,-0.0064134652331835325,
0.046483790523690775,0.0040851154596715945,
0.04653366583541147,0.007308618653494961,
0.04658354114713217,0.0031099554381645543,
0.04663341645885287,1.2097289734973402e-05,
0.046683291770573565,0.03035238632567393,
0.04673316708229427,-0.00900922114011241,
0.04678304239401496,-0.0001923311241126876,
0.04683291770573566,0.025468353186963034,
0.04688279301745636,0.010008851417872411,
0.04693266832917706,0.004447130029480822,
0.04698254364089775,0.03789008629537802,
0.047032418952618456,0.0064482108852997305,
0.04708229426433915,-0.02879688285458281,
0.04713216957605985,-0.0012865215294533845,
0.04718204488778055,-0.01893216627208795,
0.047231920199501246,0.01244744340106919,
0.04728179551122195,0.005192722323801095,
0.047331670822942644,0.017186853759705426,
0.04738154613466334,-0.0019919209316051466,
0.04743142144638404,0.02930006245249444,
0.04748129675810474,-0.0024759106953609715,
0.047531172069825434,0.019118284361199563,
0.047581047381546136,0.00854208654617556,
0.04763092269326683,-0.00319851982441563,
0.047680798004987535,0.020863843768500975,
0.04773067331670823,0.011384318468799523,
0.047780548628428926,0.0013792354205559767,
0.04783042394014963,-0.002215808141984965,
0.047880299251870324,-0.0019542320490219204,
0.04793017456359102,0.02266447663173908,
0.04798004987531172,0.017413723035345045,
0.04802992518703242,0.007545926430729243,
0.048079800498753114,0.019121870528264036,
0.04812967581047382,0.037641846949550056,
0.04817955112219451,0.02304825572729298,
0.048229426433915215,-0.012067819516792073,
0.04827930174563591,0.005708644945661574,
0.048329177057356607,-0.0038514175586675144,
0.04837905236907731,-0.020114438965794533,
0.048428927680798005,0.016191174987498662,
0.0484788029925187,0.01959539375999716,
0.0485286783042394,0.012039403823369385,
0.0485785536159601,-0.009810367449062184,
0.048628428927680795,-0.011317281794647392,
0.0486783042394015,0.024318925407145156,
0.04872817955112219,0.007229457538651375,
0.048778054862842896,0.004010398971666784,
0.04882793017456359,0.030233849970398685,
0.04887780548628429,0.025153673915814703,
0.04892768079800499,0.01103403903592216,
0.048977556109725685,0.016203903374070298,
0.04902743142144638,0.027565344574340914,
0.049077306733167084,0.04967569957999029,
0.04912718204488778,0.008377439244430785,
0.04917705735660848,0.024076303193966496,
0.04922693266832918,0.021303932966131853,
0.04927680798004987,0.027384560515208267,
0.049326683291770576,0.041807491560394205,
0.04937655860349127,0.006197178639957137,
0.04942643391521197,0.04660053414239573,
0.04947630922693267,-0.016850241212851783,
0.049526184538653366,-0.003487936774225129,
0.04957605985037406,0.024465206181902427,
0.049625935162094764,0.01905483284260281,
0.04967581047381546,0.0037611514227248524,
0.04972568578553616,-0.019557793972340004,
0.04977556109725686,0.010403636175516151,
0.049825436408977554,0.005692781189337703,
0.04987531172069826,0.01810066432651489,
0.04992518703241895,0.023927697182684303,
0.04997506234413965,0.003911371476936303,
0.05002493765586035,0.014419980493711806,
0.050074812967581046,0.024220538902911017,
0.05012468827930175,0.014665090808980933,
0.050174563591022445,0.04069295499451982,
0.05022443890274314,0.01957333452771512,
0.05027431421446384,0.010946791432316812,
0.05032418952618454,0.010177945045700078,
0.050374064837905234,0.019284528431393482,
0.05042394014962594,0.034650423799062205,
0.05047381546134663,0.04596659021944363,
0.05052369077306733,0.0011076425008744867,
0.05057356608478803,0.03721318836232354,
0.05062344139650873,0.03192728787206295,
0.05067331670822943,0.03655599825419376,
0.050723192019950125,0.025749854797528702,
0.05077306733167082,0.034468158908152934,
0.050822942643391524,0.008168802926054756,
0.05087281795511222,0.024597665381343094,
0.050922693266832915,0.03565065149226031,
0.05097256857855362,0.049596858096291094,
0.05102244389027431,0.02775685543639767,
0.051072319201995016,0.0009341366294296667,
0.05112219451371571,0.02214036077242369,
0.05117206982543641,0.026363800756061567,
0.05122194513715711,0.04177053033081636,
0.051271820448877806,0.02104655126423219,
0.0513216957605985,0.03664739499898751,
0.051371571072319204,0.03728243273383272,
0.0514214463840399,0.030077310608803604,
0.051471321695760595,0.025972189973517773,
0.0515211970074813,0.02254714386152619,
0.051571072319201994,0.024980879592460477,
0.051620947630922696,0.021380122545157504,
0.05167082294264339,0.04164636246061499,
0.05172069825436409,0.03180276124151366,
0.05177057356608479,0.04475390913006391,
0.051820448877805486,0.03532881555905503,
0.05187032418952618,0.013176680339542429,
0.051920199501246884,0.05305870674299379,
0.05197007481296758,0.018566937561578258,
0.052019950124688276,0.023901601922786918,
0.05206982543640898,0.005866343092351147,
0.052119700748129674,0.022306832474561035,
0.05216957605985038,0.004543937619073901,
0.05221945137157107,0.012244965072801614,
0.05226932668329177,0.027960681700629313,
0.05231920199501247,0.014209846549943062,
0.05236907730673317,0.022267376799902327,
0.05241895261845386,0.01304247752545242,
0.052468827930174565,0.04781972265940003,
0.05251870324189526,0.0420333718671012,
0.05256857855361596,0.010285954392709632,
0.05261845386533666,0.01222220532657213,
0.052668329177057355,0.03133867199053265,
0.05271820448877806,0.008944462170291944,
0.05276807980049875,0.023974261050764677,
0.05281795511221945,0.015343512946572052,
0.05286783042394015,0.02529547452887506,
0.05291770573566085,0.02872481450344892,
0.05296758104738154,0.006633485679456113,
0.053017456359102245,0.027994674742078972,
0.05306733167082294,0.020750825854845625,
0.053117206982543644,0.04076639676356317,
0.05316708229426434,0.006560476573648355,
0.053216957605985035,0.02604409447505326,
0.05326683291770574,0.026001253698564233,
0.053316708229426434,0.02458022850131502,
0.05336658354114713,0.05843625704968056,
0.05341645885286783,0.04259441041912622,
0.05346633416458853,0.015702125954948108,
0.05351620947630923,0.016998520648261607,
0.053566084788029926,0.0015255481930972724,
0.05361596009975062,0.013830415813675813,
0.053665835411471324,0.03976078852420302,
0.05371571072319202,0.009292181355679033,
0.053765586034912716,0.013642557823358898,
0.05381546134663342,0.035757994146635844,
0.053865336658354114,0.015452348081330307,
0.05391521197007481,0.03354913018597393,
0.05396508728179551,0.023904704781692224,
0.05401496259351621,0.04304039038701203,
0.05406483790523691,0.006970818367263834,
0.054114713216957606,0.01302129998449173,
0.0541645885286783,0.022503114479291937,
0.054214463840399005,0.04080802396295479,
0.0542643391521197,0.004423032689300334,
0.054314214463840396,0.01930918025443098,
0.0543640897755611,0.025336103607982385,
0.054413965087281795,0.021264407765946,
0.0544638403990025,0.008359076566671403,
0.05451371571072319,-0.0012082525424556116,
0.05456359102244389,0.006477394345515674,
0.05461346633416459,0.027093879268722934,
0.05466334164588529,0.010993841647157932,
0.05471321695760598,0.01936278890373829,
0.054763092269326685,0.051225000991999003,
0.05481296758104738,0.007116852459775198,
0.05486284289276808,-0.003150041984615975,
0.05491271820448878,0.025075697834550614,
0.054962593516209475,0.034703936127985086,
0.05501246882793018,-0.009402538613928783,
0.05506234413965087,0.004455507312976153,
0.05511221945137157,-0.0030786089594653267,
0.05516209476309227,0.020047059997195638,
0.05521197007481297,0.03249723515100776,
0.05526184538653366,0.00044874034442077444,
0.055311720698254366,0.034379493173419845,
0.05536159600997506,0.012236374162435915,
0.05541147132169576,-0.008351344730137475,
0.05546134663341646,0.0022494275304559795,
0.055511221945137156,0.013220607454887366,
0.05556109725685786,0.000628878528201874,
0.055610972568578554,0.004268943079888789,
0.05566084788029925,-0.013963853870029234,
0.05571072319201995,0.00483573623925051,
0.05576059850374065,-0.013640071671398524,
0.055810473815461344,0.003390869061312388,
0.055860349127182046,0.006347350480236484,
0.05591022443890274,0.010592526449068626,
0.055960099750623445,0.026198504891462887,
0.05600997506234414,-0.001776746399565098,
0.056059850374064836,-0.0011592995153199056,
0.05610972568578554,0.030888312308862763,
0.056159600997506234,-0.012497418836256484,
0.05620947630922693,0.038505289073169434,
0.05625935162094763,0.0020217809875406334,
0.05630922693266833,0.029922937460270325,
0.056359102244389024,-0.01068392571806037,
0.05640897755610973,-0.012418604841520188,
0.05645885286783042,0.010031010029059637,
0.056508728179551125,-0.0006384781417693485,
0.05655860349127182,-0.017143641094307566,
0.056608478802992516,0.000662879742056571,
0.05665835411471322,0.0070705084724807694,
0.056708229426433915,0.002205252664245808,
0.05675810473815461,0.006982577860137666,
0.05680798004987531,0.016110391025079104,
0.05685785536159601,0.00047883663358752127,
0.05690773067331671,0.006873148605639019,
0.05695760598503741,-0.009787738364787097,
0.0570074812967581,0.019352371132875724,
0.057057356608478806,-0.0011849090915330273,
0.0571072319201995,0.011831033895340352,
0.0571571072319202,0.022433224184180263,
0.0572069825436409,0.007472105187288039,
0.057256857855361595,0.005348783559538327,
0.05730673316708229,0.00044080852222072185,
0.057356608478802994,0.016806158638152643,
0.05740648379052369,-0.00207213179810978,
0.05745635910224439,0.0012750699012748458,
0.05750623441396509,-0.015678975555626404,
0.05755610972568578,-0.016978580711535123,
0.057605985037406486,0.01541414658282219,
0.05765586034912718,-0.013920155515387516,
0.05770573566084788,-0.006720327290181672,
0.05775561097256858,0.006111016060101869,
0.057805486284289276,0.006384025918329104,
0.05785536159600998,0.0034098234283157234,
0.057905236907730674,0.0017660877426696007,
0.05795511221945137,0.011261779409839787,
0.05800498753117207,0.012266763342974319,
0.05805486284289277,-0.011526603265154648,
0.058104738154613464,-0.0055581023251351355,
0.05815461346633417,-0.0038455363622589174,
0.05820448877805486,-0.018907084441651664,
0.05825436408977556,-0.023183167868929024,
0.05830423940149626,-0.03376572251728992,
0.058354114713216956,0.0030959369768445754,
0.05840399002493766,0.0003749636350686772,
0.058453865336658355,-0.015096926328927734,
0.05850374064837905,0.021735961222414262,
0.05855361596009975,-0.021339984019717623,
0.05860349127182045,-0.004066386738780155,
0.058653366583541144,-0.028193556181202672,
0.05870324189526185,0.012238957437304115,
0.05875311720698254,-0.006168874882905547,
0.05880299251870324,-0.02765138466999985,
0.05885286783042394,-0.00025864195687583767,
0.05890274314214464,-0.005095798825307673,
0.05895261845386534,-0.0345924452135874,
0.059002493765586035,-0.00944879151317737,
0.05905236907730673,0.005625881161516261,
0.059102244389027433,0.0009759727269081746,
0.05915211970074813,0.008544949322225376,
0.059201995012468825,0.008658496819062136,
0.05925187032418953,-0.006045282527201654,
0.05930174563591022,-0.0038666373988984256,
0.059351620947630926,-0.04035755154035107,
0.05940149625935162,-0.014973124435296203,
0.05945137157107232,-0.007123053382928988,
0.05950124688279302,-0.03316718921538621,
0.059551122194513716,-0.00506925927826629,
0.05960099750623441,-0.029543780569277478,
0.059650872817955114,0.0007565045691800085,
0.05970074812967581,-0.0030359127226555396,
0.059750623441396505,-0.01927003511527052,
0.05980049875311721,-0.027128300624665924,
0.059850374064837904,-0.03610440022339921,
0.059900249376558606,-0.016460550809598098,
0.0599501246882793,-0.006953278592803238,
0.06,-0.004195789452087284,
0.0600498753117207,-0.011500718859294972,
0.060099750623441396,-0.029170736676573005,
0.06014962593516209,-0.010559719904809528,
0.060199501246882794,0.009686800485345454,
0.06024937655860349,0.017305388215640226,
0.06029925187032419,-0.02026401028305294,
0.06034912718204489,-0.01873284740623036,
0.060399002493765584,-0.021612918718296383,
0.06044887780548629,-0.02980361442872303,
0.06049875311720698,-0.00833165428097693,
0.06054862842892768,0.0021299913255344687,
0.06059850374064838,-0.003177272631471835,
0.06064837905236908,-0.03450383606312885,
0.06069825436408977,-0.021839719582652427,
0.060748129675810475,-0.023943550501703017,
0.06079800498753117,-0.005215855714500303,
0.06084788029925187,-0.04357736069835374,
0.06089775561097257,0.002193916254681627,
0.060947630922693265,-0.03396303266847993,
0.06099750623441397,-0.014927662700091247,
0.06104738154613466,-0.006023094257064095,
0.06109725685785536,-0.013069121094263876,
0.06114713216957606,-0.016715466829393844,
0.06119700748129676,0.0029174227902454657,
0.06124688279301746,-0.018468027593820397,
0.061296758104738155,-0.00355363410258059,
0.06134663341645885,-0.026351681833252497,
0.061396508728179554,0.007363785575377892,
0.06144638403990025,-0.015143121547443369,
0.061496259351620945,-0.02886249971956103,
0.06154613466334165,0.0004213175330687203,
0.061596009975062344,-0.011147794762827767,
0.06164588528678304,0.0004311667237981553,
0.06169576059850374,-0.031090363574962185,
0.06174563591022444,-0.012279136431295176,
0.06179551122194514,-0.012701156000009055,
0.061845386533665836,-0.006338900366048747,
0.06189526184538653,-0.012719185834371106,
0.061945137157107234,-0.01051994295082959,
0.06199501246882793,-0.02618545119853178,
0.062044887780548626,-0.011319367353495003,
0.06209476309226933,0.004492923702632904,
0.062144638403990024,-0.02446205590173097,
0.06219451371571072,-0.0016842133216715509,
0.06224438902743142,-0.014730866292208605,
0.06229426433915212,-0.030640355504448883,
0.06234413965087282,-0.005212061355960527,
0.062394014962593516,-0.010831894025564186,
0.06244389027431421,0.01808992504429849,
0.062493765586034915,-0.035136327544899995,
0.06254364089775562,-0.04701494571795738,
0.06259351620947631,0.012254135710556202,
0.06264339152119701,0.006511570020545292,
0.0626932668329177,-0.02797682097914503,
0.0627431421446384,-0.01972362479793226,
0.0627930174563591,-0.02626993959768198,
0.0628428927680798,-0.02700767278113312,
0.0628927680798005,-0.015288181797919813,
0.0629426433915212,-0.02146845745889348,
0.06299251870324189,0.008039092640307652,
0.06304239401496259,0.02384030038558968,
0.0630922693266833,-0.02243696413608362,
0.063142144638404,-0.019404244586429597,
0.06319201995012469,-0.03548252923664766,
0.06324189526184539,-0.007010142114283135,
0.06329177057356608,0.004092659198083808,
0.06334164588528678,-0.013729157002110488,
0.06339152119700749,0.007051828672155168,
0.06344139650872818,-0.018573346985642003,
0.06349127182044888,-0.017300369254957187,
0.06354114713216957,-0.025565664550718244,
0.06359102244389027,-0.023330404902701374,
0.06364089775561098,-0.026283090553785138,
0.06369077306733167,-0.01453498188131435,
0.06374064837905237,-0.015445451342011045,
0.06379052369077307,-0.02126837068385136,
0.06384039900249376,-0.02614882438133679,
0.06389027431421446,-0.01677943701193525,
0.06394014962593517,-0.03728252463322402,
0.06399002493765586,-0.0014907262262648224,
0.06403990024937656,-0.01340034587864472,
0.06408977556109725,-0.004933747951181176,
0.06413965087281795,0.020354744550508935,
0.06418952618453866,0.014875227108423901,
0.06423940149625935,-0.024891262912819644,
0.06428927680798005,0.00021806453762697117,
0.06433915211970075,-0.019553623403706807,
0.06438902743142144,-0.016199193622828414,
0.06443890274314215,-0.009210028571306303,
0.06448877805486285,-0.024068782464055995,
0.06453865336658354,0.030288074482822218,
0.06458852867830424,0.017367527894749345,
0.06463840399002493,0.010962109652268084,
0.06468827930174563,-0.021257158342808065,
0.06473815461346634,0.007557542379477111,
0.06478802992518704,-0.007948651983937639,
0.06483790523690773,-0.010183426660030692,
0.06488778054862843,-0.0014537038157619226,
0.06493765586034912,-0.00590520896193556,
0.06498753117206983,-0.007770765038427189,
0.06503740648379053,0.009829599842313531,
0.06508728179551122,-0.01957381499220796,
0.06513715710723192,0.014161595902127322,
0.06518703241895261,-0.009160715541353781,
0.06523690773067331,-0.006303590128722539,
0.06528678304239402,0.007068269095125645,
0.06533665835411472,0.010820100780074393,
0.06538653366583541,-0.0032138641204133254,
0.06543640897755611,-0.000668733890324108,
0.0654862842892768,0.010808223437745738,
0.06553615960099751,-0.005354861628238049,
0.06558603491271821,0.0008594401170272624,
0.0656359102244389,-0.0003064829168697667,
0.0656857855361596,-0.006392456961492912,
0.0657356608478803,0.005013607327397989,
0.06578553615960099,0.0020402883145215086,
0.0658354114713217,-0.0183658530451483,
0.0658852867830424,-0.011600953010948108,
0.06593516209476309,0.008078734371585534,
0.06598503740648379,-0.012935509699773012,
0.06603491271820448,-0.016004787398403598,
0.06608478802992519,-0.022580737422211644,
0.06613466334164589,-0.013713236774755349,
0.06618453865336658,-0.004314198983998283,
0.06623441396508728,-0.0075084008729566784,
0.06628428927680798,0.0024612091559550716,
0.06633416458852869,-0.01250159644928513,
0.06638403990024938,-0.01572229493940697,
0.06643391521197008,0.013850849841132305,
0.06648379052369077,-0.007844865010727946,
0.06653366583541147,0.014689905796808435,
0.06658354114713216,-0.00525318258206781,
0.06663341645885287,0.027595351176861183,
0.06668329177057357,0.005439137381726727,
0.06673316708229426,-0.004274835198726852,
0.06678304239401496,-0.000719627924406661,
0.06683291770573566,0.023982070806704565,
0.06688279301745637,0.03201622312952661,
0.06693266832917706,0.008640985152649246,
0.06698254364089776,0.030178007628541233,
0.06703241895261845,0.003169752797780718,
0.06708229426433915,0.005134715024077913,
0.06713216957605984,0.002802669934089809,
0.06718204488778055,0.0016565791434972792,
0.06723192019950125,-0.01228574761456305,
0.06728179551122195,0.010180523610670714,
0.06733167082294264,0.014798346327629486,
0.06738154613466334,0.015000816262137041,
0.06743142144638405,0.0007530426778176551,
0.06748129675810474,0.008366682807840592,
0.06753117206982544,0.037827926755183025,
0.06758104738154613,-0.005685733004401214,
0.06763092269326683,-0.01998781186800326,
0.06768079800498752,0.012073445776598085,
0.06773067331670823,0.00719246586713299,
0.06778054862842893,0.019999496506662225,
0.06783042394014963,-0.017018414249476657,
0.06788029925187032,0.019725845122512506,
0.06793017456359102,-0.011944586262553878,
0.06798004987531173,-0.025114236846199445,
0.06802992518703242,0.0037123117459222903,
0.06807980049875312,-0.00968689792213882,
0.06812967581047381,0.008206412899028771,
0.06817955112219451,0.0018957082124284666,
0.0682294264339152,0.025594713445077126,
0.06827930174563591,0.017223440975522433,
0.06832917705735661,0.022540149748782597,
0.0683790523690773,0.02293426693477502,
0.068428927680798,0.013544215819774576,
0.0684788029925187,0.0439138748944785,
0.06852867830423941,0.007411894164532399,
0.0685785536159601,0.01169096841748003,
0.0686284289276808,0.01847344237572343,
0.0686783042394015,0.04749056100816592,
0.06872817955112219,-0.0008631876715090338,
0.0687780548628429,-0.007162450934336904,
0.0688279301745636,0.007643403540357099,
0.06887780548628429,0.014310835545261295,
0.06892768079800499,0.005089143322922889,
0.06897755610972568,-0.010125538570951755,
0.06902743142144638,0.022073178196141234,
0.06907730673316709,0.006813671746821121,
0.06912718204488778,0.02314887322826898,
0.06917705735660848,0.042375079242582575,
0.06922693266832917,0.01508078297122679,
0.06927680798004987,0.015620280584409868,
0.06932668329177058,0.013952370779059364,
0.06937655860349128,0.0035314899208115473,
0.06942643391521197,0.015694431815085775,
0.06947630922693267,0.04195422827579096,
0.06952618453865336,0.03851130523978014,
0.06957605985037406,0.032731558584262306,
0.06962593516209477,0.03239209971314846,
0.06967581047381546,0.028078434380083325,
0.06972568578553616,0.009220978800899133,
0.06977556109725686,0.023003882418515205,
0.06982543640897755,0.03380970208730557,
0.06987531172069826,0.014355855924535924,
0.06992518703241896,0.024283685438390875,
0.06997506234413965,0.02839429389228827,
0.07002493765586035,0.020315972690805234,
0.07007481296758104,0.024890871469475377,
0.07012468827930174,0.018000418560160075,
0.07017456359102245,0.02861553926384106,
0.07022443890274314,0.038269467272725476,
0.07027431421446384,-0.0050904456662410405,
0.07032418952618454,0.02096656700608828,
0.07037406483790523,0.021242588987725183,
0.07042394014962594,0.02678543844060149,
0.07047381546134664,0.03532485746542465,
0.07052369077306733,0.008195427799461467,
0.07057356608478803,0.020620219226332823,
0.07062344139650872,0.016520838455353425,
0.07067331670822943,0.011481177176817568,
0.07072319201995013,0.03766637295373096,
0.07077306733167082,0.021451712794787362,
0.07082294264339152,0.03514583151407376,
0.07087281795511222,0.02735355730156648,
0.07092269326683291,0.027255148645564154,
0.07097256857855362,0.01453185758714004,
0.07102244389027432,0.019248506417862587,
0.07107231920199501,0.03896579971014074,
0.07112219451371571,0.00831136676057586,
0.0711720698254364,0.006910360967329776,
0.07122194513715711,0.0055467173578186355,
0.07127182044887781,0.02957644014437554,
0.0713216957605985,0.020036508425307305,
0.0713715710723192,0.0025713741296804447,
0.0714214463840399,0.020096797558325524,
0.07147132169576059,0.01329115618540343,
0.0715211970074813,0.02773147767448677,
0.071571072319202,0.002719171241541588,
0.0716209476309227,0.020747817056894224,
0.07167082294264339,0.023994540618337015,
0.07172069825436408,0.01477034149465161,
0.0717705735660848,0.004587034979547551,
0.07182044887780549,0.006861616175347928,
0.07187032418952619,0.03872539041447963,
0.07192019950124688,0.01927079328562578,
0.07197007481296758,0.019780246242693512,
0.07201995012468827,0.051047900476206276,
0.07206982543640898,0.03438435223826357,
0.07211970074812968,0.04751971539968567,
0.07216957605985037,0.007503946291156301,
0.07221945137157107,0.050262602140213546,
0.07226932668329177,0.04594166911662254,
0.07231920199501247,0.027420829019469073,
0.07236907730673317,0.019793376749051392,
0.07241895261845387,0.009532057068627978,
0.07246882793017456,0.0301576702168408,
0.07251870324189526,0.013964532876287147,
0.07256857855361595,0.022036068908260525,
0.07261845386533666,0.020501731657955366,
0.07266832917705736,0.004148506549533235,
0.07271820448877805,0.03223666618100898,
0.07276807980049875,0.023117221315778595,
0.07281795511221945,0.025532212464349405,
0.07286783042394016,-0.0018888902652618791,
0.07291770573566085,0.03523946407093972,
0.07296758104738155,0.013824186807763929,
0.07301745635910224,0.03417831131005035,
0.07306733167082294,0.018521368551748227,
0.07311720698254365,0.01941504184747725,
0.07316708229426434,0.01832583185387772,
0.07321695760598504,0.012374861392206518,
0.07326683291770573,0.05538406163315781,
0.07331670822942643,0.009152998745949957,
0.07336658354114713,0.013649439671631996,
0.07341645885286784,0.018202917413799133,
0.07346633416458853,0.038009179775967655,
0.07351620947630923,0.019155529896050502,
0.07356608478802992,0.038105662831408205,
0.07361596009975062,0.042425386095098654,
0.07366583541147133,0.025854334483256122,
0.07371571072319202,0.05395366315630868,
0.07376558603491272,0.041772309314543316,
0.07381546134663342,0.023933375539615213,
0.07386533665835411,0.01088975479239886,
0.0739152119700748,0.04256088136729898,
0.07396508728179552,0.025710651119888437,
0.07401496259351621,0.021070878778802357,
0.07406483790523691,0.009025905423958279,
0.0741147132169576,0.025227553206890775,
0.0741645885286783,0.02485356105958063,
0.07421446384039901,0.01678115742664145,
0.0742643391521197,0.013295959816021982,
0.0743142144638404,0.009743179410332715,
0.0743640897755611,-0.009966778038453323,
0.07441396508728179,0.017900513812580496,
0.07446384039900249,0.03275396113021654,
0.0745137157107232,0.014617868773865018,
0.07456359102244389,0.006461790018906975,
0.07461346633416459,0.05016157460443435,
0.07466334164588528,0.0304372222049265,
0.07471321695760598,0.023868621733265143,
0.07476309226932669,-0.02136462372668173,
0.07481296758104738,0.004886918006458858,
0.07486284289276808,0.018154375418071907,
0.07491271820448878,0.03219861721281029,
0.07496259351620947,0.02772290114824838,
0.07501246882793017,0.02534019435751656,
0.07506234413965088,0.026033647899054175,
0.07511221945137157,0.027725563334139877,
0.07516209476309227,0.03144918293496341,
0.07521197007481296,0.035156821805371385,
0.07526184538653366,0.044252730985245244,
0.07531172069825437,0.026231315148844647,
0.07536159600997507,-0.0026554416667870836,
0.07541147132169576,0.023188686738850404,
0.07546134663341646,0.018748023766897666,
0.07551122194513715,0.008454121586785482,
0.07556109725685786,0.004431568652063765,
0.07561097256857856,0.038398817731249923,
0.07566084788029925,-0.014036716107539255,
0.07571072319201995,0.028360691147221426,
0.07576059850374064,-0.010933264427491414,
0.07581047381546134,0.006740423360621427,
0.07586034912718205,0.015861043643307288,
0.07591022443890275,0.010433770031766558,
0.07596009975062344,-0.008831831673093753,
0.07600997506234414,0.009034970165620918,
0.07605985037406483,0.009321899696820605,
0.07610972568578554,0.005163689264560867,
0.07615960099750624,-0.010881156442041205,
0.07620947630922693,-0.003426230840798017,
0.07625935162094763,0.022703789127457186,
0.07630922693266833,0.0064572659895579376,
0.07635910224438902,-0.004921378134265764,
0.07640897755610973,-0.022118172217896907,
0.07645885286783043,0.019017576998331294,
0.07650872817955112,-0.0030047067747621626,
0.07655860349127182,0.01082853366832672,
0.07660847880299251,-0.007839706646878622,
0.07665835411471322,0.011917892135765624,
0.07670822942643392,0.018286320028903524,
0.07675810473815461,0.0032829713605027205,
0.07680798004987531,-0.007114342560471296,
0.076857855361596,0.006258199851893511,
0.0769077306733167,0.001778104378663874,
0.07695760598503741,0.02342634051599195,
0.0770074812967581,-0.0025486914986292716,
0.0770573566084788,0.011565614725458976,
0.0771072319201995,-0.0038626373748863055,
0.0771571072319202,0.024405670041667316,
0.0772069825436409,0.005852682321591777,
0.0772568578553616,0.0010829986395440375,
0.0773067331670823,-0.010072574391062438,
0.07735660847880299,-0.02138902020815097,
0.07740648379052369,0.00512170368019246,
0.0774563591022444,0.022243937778611788,
0.07750623441396509,-0.02070405418432697,
0.07755610972568579,-0.00643069304283198,
0.07760598503740648,0.018477714106351836,
0.07765586034912718,0.013446881150327609,
0.07770573566084787,0.028925781499597156,
0.07775561097256858,0.01978077002883346,
0.07780548628428928,0.0031297093431121234,
0.07785536159600998,0.006629499293046164,
0.07790523690773067,0.035033897197847,
0.07795511221945137,0.009420520747216676,
0.07800498753117208,-0.013235440653291741,
0.07805486284289277,-0.007247617906573144,
0.07810473815461347,-0.00034786293056472033,
0.07815461346633416,0.004341135407917029,
0.07820448877805486,-0.008933075530750841,
0.07825436408977555,-0.036628558202860914,
0.07830423940149626,-0.004141718059838447,
0.07835411471321696,-0.006747399384975682,
0.07840399002493766,-0.028473107848807293,
0.07845386533665835,0.02365374992976477,
0.07850374064837905,0.018596303692715362,
0.07855361596009976,-0.005528181235114048,
0.07860349127182045,-0.018452591847819846,
0.07865336658354115,0.03610752258150405,
0.07870324189526184,-0.018377452031673663,
0.07875311720698254,0.004989985049584372,
0.07880299251870324,-0.011789405909867438,
0.07885286783042394,-0.031527628349599345,
0.07890274314214464,-0.007817056102947233,
0.07895261845386534,0.006569620106007394,
0.07900249376558603,-0.03463871693548204,
0.07905236907730673,-0.008542393569294893,
0.07910224438902744,0.003370201275448695,
0.07915211970074813,0.004117900064844483,
0.07920199501246883,0.0009896510588617118,
0.07925187032418952,-0.006737595321899279,
0.07930174563591022,-0.009049222020361394,
0.07935162094763092,-0.03044096426646583,
0.07940149625935163,0.002472573294488585,
0.07945137157107232,-0.0015258860129688783,
0.07950124688279302,-0.035405221176834645,
0.07955112219451371,-0.0017656777288638827,
0.07960099750623441,-0.01794331095337791,
0.07965087281795512,-0.020448698085228,
0.07970074812967581,0.004285059577248519,
0.07975062344139651,-0.03397160011670493,
0.0798004987531172,-0.04751857598882927,
0.0798503740648379,-0.019307225986208203,
0.07990024937655861,-0.008993005177384295,
0.0799501246882793,-0.018130196618920118,
0.08,-0.0008577164368010742,
0.0800498753117207,-0.02041320777873523,
0.0800997506234414,-0.025709699098242746,
0.08014962593516209,0.017739125239781335,
0.0801995012468828,-0.008904524196515376,
0.0802493765586035,-0.03152813130565801,
0.08029925187032419,-0.006188742212443361,
0.08034912718204489,-0.024712752370830898,
0.08039900249376558,-0.004215360083446916,
0.08044887780548629,-0.0053926973429449625,
0.08049875311720699,-0.013354763836141582,
0.08054862842892768,-0.008414153974811104,
0.08059850374064838,-0.004910226639887674,
0.08064837905236907,0.0051068415949011795,
0.08069825436408977,0.004698698294207073,
0.08074812967581048,-0.027249227165899066,
0.08079800498753117,0.004335566734483966,
0.08084788029925187,0.014619663221649997,
0.08089775561097257,-0.0537241505601133,
0.08094763092269326,-0.009156482435494518,
0.08099750623441397,0.002683547880719738,
0.08104738154613467,-0.039690489384099345,
0.08109725685785536,-0.020869410976292045,
0.08114713216957606,-0.03380365016643948,
0.08119700748129675,-0.017295049729141955,
0.08124688279301745,-0.005109457157080069,
0.08129675810473816,-0.021027157100701244,
0.08134663341645886,-0.0113679779743847,
0.08139650872817955,-0.004404157279561727,
0.08144638403990025,-0.025131788511364557,
0.08149625935162094,-0.02760559443953599,
0.08154613466334165,-0.04101202239510818,
0.08159600997506235,0.0060936990729758694,
0.08164588528678304,-0.017528108341378197,
0.08169576059850374,-0.0069313399762112775,
0.08174563591022443,0.0036975837870002245,
0.08179551122194513,-0.0318175301702754,
0.08184538653366584,-0.01516403735900507,
0.08189526184538654,-0.03323240501221314,
0.08194513715710723,-0.012373905727363509,
0.08199501246882793,0.006316850218739404,
0.08204488778054862,-0.0008577011301493659,
0.08209476309226933,0.02165093435833611,
0.08214463840399003,-0.025538646644898334,
0.08219451371571072,-0.028472690037871506,
0.08224438902743142,0.0028321670119955955,
0.08229426433915212,-0.026140357408621882,
0.08234413965087282,-0.015437791588034004,
0.08239401496259352,-0.0030074434151453576,
0.08244389027431422,-0.012453922437797648,
0.08249376558603491,-0.02136340146236569,
0.08254364089775561,0.0031570094252699916,
0.0825935162094763,0.0032143988367347685,
0.08264339152119701,-0.03819473986311574,
0.08269326683291771,-0.027640759762769626,
0.0827431421446384,-0.025438562014452295,
0.0827930174563591,-0.001833721921695692,
0.0828428927680798,-0.0031465670586007626,
0.0828927680798005,0.011810948066780045,
0.0829426433915212,-0.021312717970327327,
0.0829925187032419,-0.0109167369506879,
0.08304239401496259,-0.0009343309740109107,
0.08309226932668329,-0.035762731075645156,
0.08314214463840398,-0.009851014509263055,
0.0831920199501247,0.03014930785641181,
0.08324189526184539,0.017315642580747075,
0.08329177057356608,0.008957346179362315,
0.08334164588528678,-0.0063036610490120265,
0.08339152119700748,-0.028079200562496347,
0.08344139650872819,-0.020447247543466003,
0.08349127182044888,0.014213281280011984,
0.08354114713216958,-0.006935353950032022,
0.08359102244389027,-0.011682631256005655,
0.08364089775561097,0.03712367997485076,
0.08369077306733166,0.002847441370638998,
0.08374064837905237,-0.013597497615769772,
0.08379052369077307,-0.005129078626528931,
0.08384039900249377,0.0015811183137258138,
0.08389027431421446,-0.00837936784605963,
0.08394014962593516,-0.019454010191027334,
0.08399002493765587,0.002083598712353432,
0.08403990024937656,0.01705671485339909,
0.08408977556109726,-0.006560700538637174,
0.08413965087281795,-0.019835212346433758,
0.08418952618453865,-0.02368690706027751,
0.08423940149625936,-0.006054427411114342,
0.08428927680798005,0.017262762778751172,
0.08433915211970075,0.029163920414609756,
0.08438902743142145,-0.023288278697024267,
0.08443890274314214,0.011073717640102673,
0.08448877805486284,-0.011367754572591869,
0.08453865336658355,-0.008510071462816562,
0.08458852867830424,0.03409355751773606,
0.08463840399002494,0.004170482763735978,
0.08468827930174563,-0.012371632048537116,
0.08473815461346633,0.023648636816452615,
0.08478802992518704,-0.03938758217033095,
0.08483790523690773,-0.023754234987940284,
0.08488778054862843,-0.025348901586028844,
0.08493765586034913,0.015016445730535543,
0.08498753117206982,-0.026510683420189037,
0.08503740648379052,0.00852633321976232,
0.08508728179551123,0.014429567098965888,
0.08513715710723192,-0.009775030779741468,
0.08518703241895262,0.0031064397896849796,
0.08523690773067331,-0.018432053191802696,
0.08528678304239401,-0.02020615051737895,
0.08533665835411472,-0.0008930980763701272,
0.08538653366583542,0.007624944852130779,
0.08543640897755611,-0.007984689506783625,
0.0854862842892768,0.011529053231800365,
0.0855361596009975,0.005473902336825551,
0.0855860349127182,-0.010897650706960863,
0.08563591022443891,0.001596116414007014,
0.0856857855361596,0.015327266594007738,
0.0857356608478803,0.000630165391033376,
0.085785536159601,-0.013350816129065371,
0.08583541147132169,-0.04469963400321435,
0.0858852867830424,-0.0034220040033188263,
0.0859351620947631,0.0010230109041405881,
0.08598503740648379,-0.0035576464474563283,
0.08603491271820449,0.01751090331611605,
0.08608478802992518,0.013960888070678096,
0.08613466334164588,0.012775555906653968,
0.08618453865336659,5.630129916721696e-05,
0.08623441396508728,0.014663141026709303,
0.08628428927680798,0.006920264216031249,
0.08633416458852868,-0.00437442921783639,
0.08638403990024937,0.016735706808264826,
0.08643391521197008,-0.0014595121518915276,
0.08648379052369078,0.00942046065628212,
0.08653366583541147,-0.016523159203359013,
0.08658354114713217,0.02307669135329212,
0.08663341645885286,0.01290811318019965,
0.08668329177057357,0.03579239918925804,
0.08673316708229427,-0.006524564626309585,
0.08678304239401496,0.01700942095899346,
0.08683291770573566,0.03248391706556564,
0.08688279301745636,0.007831412253444336,
0.08693266832917705,0.00180993510003539,
0.08698254364089776,0.01837477265466375,
0.08703241895261846,0.012935159463403782,
0.08708229426433915,0.00891777328303986,
0.08713216957605985,0.01568089456088238,
0.08718204488778054,0.025267027549062286,
0.08723192019950125,0.014975725121475323,
0.08728179551122195,0.00911999760020101,
0.08733167082294264,0.048110656871883956,
0.08738154613466334,0.011619584091435401,
0.08743142144638404,0.015336461496566561,
0.08748129675810473,-0.004783051865985296,
0.08753117206982544,0.04967566290279414,
0.08758104738154614,0.019545866683468978,
0.08763092269326683,0.02234233935630256,
0.08768079800498753,0.012922082436922366,
0.08773067331670822,-0.004754275271965553,
0.08778054862842893,0.012970910214265694,
0.08783042394014963,0.04445937140756152,
0.08788029925187033,0.010589971625190337,
0.08793017456359102,0.01949448706247082,
0.08798004987531172,0.0056344158877578415,
0.08802992518703241,0.020068663999397267,
0.08807980049875312,-0.009051338818165389,
0.08812967581047382,0.04355470777098114,
0.08817955112219451,-0.011350939549611586,
0.08822942643391521,0.03672682160737617,
0.0882793017456359,0.013514639683787797,
0.08832917705735661,0.011007553287890205,
0.08837905236907731,0.03429002120198794,
0.088428927680798,0.01772623142521856,
0.0884788029925187,0.016659210364808216,
0.0885286783042394,0.01533018045386521,
0.0885785536159601,-0.014205599738809305,
0.0886284289276808,0.019432506296165074,
0.0886783042394015,0.038101371477540065,
0.0887281795511222,-0.0003347666327935782,
0.08877805486284289,0.04553908653229648,
0.08882793017456359,0.016000123832758492,
0.0888778054862843,0.008255749495171714,
0.08892768079800499,0.017722659101599144,
0.08897755610972569,0.03756127202504199,
0.08902743142144638,0.000749300260163642,
0.08907730673316708,0.017427955707853493,
0.08912718204488779,0.02592320403312504,
0.08917705735660848,-0.004209181264416197,
0.08922693266832918,0.033023342203173794,
0.08927680798004987,0.02754935439724264,
0.08932668329177057,0.006786768803421047,
0.08937655860349127,0.030017239300555245,
0.08942643391521198,0.014942332587116955,
0.08947630922693267,0.04451231373603883,
0.08952618453865337,0.019984581096363512,
0.08957605985037406,0.013750319120088507,
0.08962593516209476,0.03059750102960241,
0.08967581047381547,0.04264206401323234,
0.08972568578553616,0.0311366131821814,
0.08977556109725686,0.006903561066388283,
0.08982543640897755,0.03886464549691737,
0.08987531172069825,0.01828957526012484,
0.08992518703241895,0.0378031572248119,
0.08997506234413966,0.011679801122229131,
0.09002493765586035,0.02729966659861333,
0.09007481296758105,0.016742154945415262,
0.09012468827930174,0.0428803391261156,
0.09017456359102244,0.01852524755259905,
0.09022443890274315,-0.00467000334333291,
0.09027431421446384,0.03725602111310161,
0.09032418952618454,0.0012224388747439328,
0.09037406483790524,0.013928482684736116,
0.09042394014962593,0.02143718589728758,
0.09047381546134663,0.024198756910648846,
0.09052369077306734,0.0353784528057355,
0.09057356608478803,-0.0034474831808617296,
0.09062344139650873,0.0353780660871478,
0.09067331670822942,0.015109338722634051,
0.09072319201995012,0.001224874962186439,
0.09077306733167083,0.030084615702579726,
0.09082294264339152,0.02968124974699245,
0.09087281795511222,0.026046058231093433,
0.09092269326683292,0.017405082101044782,
0.09097256857855361,0.01998512795601314,
0.09102244389027432,0.014469090505653476,
0.09107231920199502,0.028134531287867588,
0.09112219451371571,0.023548472660306092,
0.09117206982543641,0.012103311606546475,
0.0912219451371571,0.04620137755696816,
0.0912718204488778,0.010938793529442877,
0.09132169576059851,0.010773186001022818,
0.0913715710723192,0.013793291391188083,
0.0914214463840399,0.01390225821257529,
0.0914713216957606,0.0276612203923682,
0.09152119700748129,0.05370571308777236,
0.091571072319202,0.042100782035716995,
0.0916209476309227,0.01535087075251852,
0.09167082294264339,0.011622229296676773,
0.09172069825436409,0.02004661799622835,
0.09177057356608478,0.02741447040808406,
0.09182044887780548,0.050047078643033184,
0.09187032418952619,0.014207009493473964,
0.09192019950124689,0.030445093672654647,
0.09197007481296758,0.017018506025758967,
0.09201995012468828,0.0228594427562253,
0.09206982543640897,0.026675198272296596,
0.09211970074812968,0.026296717568498502,
0.09216957605985038,0.029080971547606405,
0.09221945137157107,0.006633947518035869,
0.09226932668329177,0.028405989280849097,
0.09231920199501246,0.027901459436625108,
0.09236907730673316,0.02143535786488614,
0.09241895261845387,0.03513328263476499,
0.09246882793017457,0.05274170423926628,
0.09251870324189526,0.02061469200087189,
0.09256857855361596,0.04081830104296549,
0.09261845386533665,0.0064978904528173245,
0.09266832917705736,0.03374212934245398,
0.09271820448877806,0.03442500172127337,
0.09276807980049875,0.047237831054034125,
0.09281795511221945,0.02949874354138734,
0.09286783042394015,0.023114166655557794,
0.09291770573566084,0.03389227949980355,
0.09296758104738155,0.0185719262606904,
0.09301745635910225,0.01247291258017341,
0.09306733167082294,0.01858611802136726,
0.09311720698254364,0.025163180738563357,
0.09316708229426433,0.03429720389690831,
0.09321695760598504,0.020887821370851302,
0.09326683291770574,0.029062119668766484,
0.09331670822942643,0.025064063291863104,
0.09336658354114713,0.034127435319052865,
0.09341645885286783,0.017151535712616045,
0.09346633416458854,0.030515139031036694,
0.09351620947630923,0.009529588352580795,
0.09356608478802993,0.028491828938632176,
0.09361596009975062,0.04108564860410195,
0.09366583541147132,0.03192872739494182,
0.09371571072319201,0.01683581856938562,
0.09376558603491272,0.03369323576281324,
0.09381546134663342,0.0444094075688064,
0.09386533665835411,0.02771026095304053,
0.09391521197007481,0.04899952711249016,
0.0939650872817955,-0.002985848755820822,
0.09401496259351622,0.019275819774615958,
0.09406483790523691,0.031346092710148925,
0.09411471321695761,0.010072995533454414,
0.0941645885286783,0.04332447428102698,
0.094214463840399,0.02148654381904124,
0.0942643391521197,0.03752254025185309,
0.0943142144638404,0.017349886467141532,
0.0943640897755611,0.03902765883163256,
0.0944139650872818,0.0003106433710438235,
0.09446384039900249,0.016824259705640787,
0.09451371571072319,0.061281609567633476,
0.0945635910224439,0.03246071742400184,
0.09461346633416459,0.014596630087664729,
0.09466334164588529,-0.009095932912401673,
0.09471321695760598,0.02451265678394297,
0.09476309226932668,0.05961112628330499,
0.09481296758104737,0.03959555204709729,
0.09486284289276808,0.016285123584426225,
0.09491271820448878,-0.005217209384699665,
0.09496259351620948,0.016432144609015834,
0.09501246882793017,0.015734699695821818,
0.09506234413965087,0.0074381868011080005,
0.09511221945137158,-0.00373874907948743,
0.09516209476309227,0.009299465871059958,
0.09521197007481297,0.03897645592131801,
0.09526184538653366,0.026958235394596596,
0.09531172069825436,0.004905960265396032,
0.09536159600997507,0.029994775762963576,
0.09541147132169576,0.0032348523871823433,
0.09546134663341646,0.02226304109172774,
0.09551122194513716,0.01185502303714615,
0.09556109725685785,0.006385513103016077,
0.09561097256857855,-0.006158791285606471,
0.09566084788029926,-0.012018699830053433,
0.09571072319201995,0.0019389721205989151,
0.09576059850374065,0.008573143003028819,
0.09581047381546134,-0.0025669959819863628,
0.09586034912718204,0.02796603898532365,
0.09591022443890275,0.03627844743890955,
0.09596009975062345,0.02279581469271936,
0.09600997506234414,0.009220916332233082,
0.09605985037406484,0.034008279254496815,
0.09610972568578553,0.016438915745463193,
0.09615960099750623,0.020327483901214922,
0.09620947630922694,0.010340261853789414,
0.09625935162094763,0.012873484977467077,
0.09630922693266833,0.014455244949458962,
0.09635910224438902,0.03343881105000327,
0.09640897755610972,-0.0009042573757189649,
0.09645885286783043,0.008139973792117278,
0.09650872817955113,-0.0020045687207427016,
0.09655860349127182,0.019907730082582765,
0.09660847880299252,0.012745325523485437,
0.09665835411471321,0.009144510336162606,
0.09670822942643391,-0.016007618582463454,
0.09675810473815462,0.006213887793807901,
0.09680798004987531,0.006822203453088563,
0.09685785536159601,0.0014767249015342297,
0.0969077306733167,-0.005309544148166826,
0.0969576059850374,0.006605739486197593,
0.09700748129675811,0.003231954876714091,
0.0970573566084788,0.008374956917430829,
0.0971072319201995,-0.008807446870396026,
0.0971571072319202,0.004018811561265532,
0.0972069825436409,0.02847805767599704,
0.09725685785536159,0.0064509996050794455,
0.0973067331670823,0.0015981453575055408,
0.097356608478803,0.0032988383660824613,
0.09740648379052369,0.014354167551502749,
0.09745635910224439,-0.0057969810129131875,
0.09750623441396508,-0.008074026325215165,
0.09755610972568579,-0.0011597632011825752,
0.09760598503740649,0.006446356428534957,
0.09765586034912718,0.02319009046026116,
0.09770573566084788,-0.008372155413855272,
0.09775561097256857,0.0061475304002218175,
0.09780548628428928,0.00715671590708599,
0.09785536159600998,-0.012357587646188673,
0.09790523690773068,0.0022359903321352674,
0.09795511221945137,-0.002301751893452201,
0.09800498753117207,-0.004848425462040442,
0.09805486284289276,-0.029053814460290355,
0.09810473815461347,-0.0007047691205310676,
0.09815461346633417,0.008304364224224073,
0.09820448877805486,0.007658032386980624,
0.09825436408977556,-0.0036384945133969295,
0.09830423940149625,-0.016352355354636285,
0.09835411471321696,-0.022168311248990113,
0.09840399002493766,-0.008465952784439184,
0.09845386533665836,-0.026425966458077783,
0.09850374064837905,-0.041106662251249246,
0.09855361596009975,0.00975490714954276,
0.09860349127182044,0.017894312822882064,
0.09865336658354115,-0.01014484537957945,
0.09870324189526185,-0.01229723236741518,
0.09875311720698254,0.0002123398298086391,
0.09880299251870324,-0.016562766614679536,
0.09885286783042393,0.02170863864492276,
0.09890274314214464,0.007596199473902356,
0.09895261845386534,-0.01034017619926883,
0.09900249376558604,-0.022458786728598988,
0.09905236907730673,-0.025084144815098165,
0.09910224438902743,-0.009158154112578608,
0.09915211970074812,0.00391424960250737,
0.09920199501246883,-0.019053778196928634,
0.09925187032418953,0.004311281298306627,
0.09930174563591022,-0.0034245922274094807,
0.09935162094763092,0.002588804765120304,
0.09940149625935162,0.00932252389077863,
0.09945137157107233,-0.007315678794902572,
0.09950124688279302,-0.012624910024264692,
0.09955112219451372,-0.02595711137026591,
0.09960099750623441,-0.016862866350154507,
0.09965087281795511,-0.022630516338275924,
0.0997007481296758,-0.041038709434128705,
0.09975062344139651,-0.023211462118657884,
0.09980049875311721,-0.03406484035957767,
0.0998503740648379,-0.013951137713464373,
0.0999002493765586,-0.020973483168064286,
0.0999501246882793,-0.02889647615334852,
0.1,-0.00241897803898601,
0.1000498753117207,0.006217094947771876,
0.1000997506234414,-0.02370980482293679,
0.10014962593516209,-0.02114768964364089,
0.10019950124688279,0.003770276393558151,
0.1002493765586035,0.00599241161259394,
0.1002992518703242,0.00011545846565911427,
0.10034912718204489,-0.014041324348558731,
0.10039900249376559,-0.014821875618109579,
0.10044887780548628,0.011517045463879796,
0.10049875311720698,-0.016607307711769288,
0.10054862842892769,-0.0319122486962607,
0.10059850374064838,0.004794205892296476,
0.10064837905236908,-0.004302595063334669,
0.10069825436408977,-0.019268744059379304,
0.10074812967581047,0.003104825060960943,
0.10079800498753118,-0.010147868426914439,
0.10084788029925187,-0.02292808170170764,
0.10089775561097257,-0.0323706048519274,
0.10094763092269327,0.0034633519514571318,
0.10099750623441396,-0.0034703818474216414,
0.10104738154613466,0.006658368938128906,
0.10109725685785537,-0.011099544257239047,
0.10114713216957606,-0.01585250036999343,
0.10119700748129676,-0.010767354328900105,
0.10124688279301745,-0.019393151804317315,
0.10129675810473815,-0.003317119079416732,
0.10134663341645886,-0.01763961512819682,
0.10139650872817955,-0.009361666442348992,
0.10144638403990025,-0.02267879558866863,
0.10149625935162095,-0.011119246054793742,
0.10154613466334164,-0.037194672156249414,
0.10159600997506234,-0.022577766543176343,
0.10164588528678305,-0.02883533061836425,
0.10169576059850374,-0.015382026177450514,
0.10174563591022444,-0.02989900283592302,
0.10179551122194513,0.017939927691146544,
0.10184538653366583,-0.031684724432356676,
0.10189526184538654,-0.014100258654978878,
0.10194513715710724,-0.016725791052332826,
0.10199501246882793,-0.024122117771744934,
0.10204488778054863,0.011404757386434615,
0.10209476309226932,-0.01807925705285425,
0.10214463840399003,-0.02333084441414722,
0.10219451371571073,0.001452278305173792,
0.10224438902743142,-0.013891950072698542,
0.10229426433915212,-0.009024824283074516,
0.10234413965087281,-0.02077547261564312,
0.10239401496259351,-0.021316616003075706,
0.10244389027431422,-0.002173108110626541,
0.10249376558603492,0.026796680437642315,
0.10254364089775561,0.011123867651941524,
0.10259351620947631,-0.02788788411057678,
0.102643391521197,-0.028242806201725347,
0.10269326683291771,-0.0140157212350201,
0.10274314214463841,0.027241886294167336,
0.1027930174563591,-0.010942917615275272,
0.1028428927680798,-0.011662357801215733,
0.1028927680798005,-0.002366962022534001,
0.10294264339152119,0.008132457545064246,
0.1029925187032419,-0.00858671723463956,
0.1030423940149626,-0.01270865176516145,
0.10309226932668329,-0.02375165848559253,
0.10314214463840399,-0.027965088786243868,
0.10319201995012468,0.0033727190451524267,
0.10324189526184539,0.011750734663474274,
0.10329177057356609,-0.010021981493031382,
0.10334164588528678,-0.01933051524024413,
0.10339152119700748,-0.0030900610561453053,
0.10344139650872818,0.00553113955065436,
0.10349127182044887,-0.027033479683351812,
0.10354114713216958,-0.016765783286875925,
0.10359102244389028,0.017566138370212446,
0.10364089775561097,-0.02467376124218837,
0.10369077306733167,-0.02659591003465847,
0.10374064837905236,-0.009040426260480594,
0.10379052369077307,-0.0057376395903490085,
0.10384039900249377,0.019875960967396356,
0.10389027431421446,-0.015894169874004566,
0.10394014962593516,-0.022620238167055794,
0.10399002493765586,-0.020174356943417557,
0.10403990024937655,0.023088961757526057,
0.10408977556109726,0.010983735565560926,
0.10413965087281796,-0.002894575784707122,
0.10418952618453865,-9.718062867098125e-05,
0.10423940149625935,-0.015306370466434346,
0.10428927680798004,0.0028766712343398382,
0.10433915211970075,-0.009352145402978528,
0.10438902743142145,0.025909844344788865,
0.10443890274314215,0.007383475560349519,
0.10448877805486284,-0.00987783772778339,
0.10453865336658354,-0.011998155541407068,
0.10458852867830425,0.017918426431082088,
0.10463840399002494,-0.026089439254383014,
0.10468827930174564,-0.03354156489674666,
0.10473815461346633,-0.015296531144508232,
0.10478802992518703,-0.0011664721424513274,
0.10483790523690772,-0.005618507364899139,
0.10488778054862843,-0.019066458182682766,
0.10493765586034913,0.0024358570514337787,
0.10498753117206983,0.024024511403367706,
0.10503740648379052,0.012718957038636241,
0.10508728179551122,0.004726727853290974,
0.10513715710723193,-0.004410927069391526,
0.10518703241895262,0.014225710292083688,
0.10523690773067332,0.009284429777158938,
0.10528678304239401,-0.0018305648464095215,
0.10533665835411471,0.011988938298272932,
0.1053865336658354,0.007745291839738846,
0.10543640897755611,0.008366058136069747,
0.10548628428927681,-0.00462767857394994,
0.1055361596009975,0.025043950475228893,
0.1055860349127182,-0.0004363102530619161,
0.1056359102244389,-0.018596485629154978,
0.10568578553615961,0.01443470988406605,
0.1057356608478803,-0.03628206887537081,
0.105785536159601,0.0005367805680192611,
0.1058354114713217,-0.01045802603388999,
0.10588528678304239,-0.01697778430063618,
0.10593516209476309,0.012461076909020062,
0.1059850374064838,-0.010776254086268566,
0.10603491271820449,0.020238756927926673,
0.10608478802992519,0.009402556826646532,
0.10613466334164588,0.0030020153203307916,
0.10618453865336658,-0.011742955892216767,
0.10623441396508729,0.016172217415786776,
0.10628428927680798,0.011497378428671507,
0.10633416458852868,-0.005104609468204645,
0.10638403990024937,-0.0005814463915361136,
0.10643391521197007,0.027196030451449492,
0.10648379052369077,-0.0018968569638440841,
0.10653366583541148,-0.01392541487274849,
0.10658354114713217,0.009416019281722816,
0.10663341645885287,-0.0011772755974386474,
0.10668329177057356,0.014880472754845844,
0.10673316708229426,0.03856205500163923,
0.10678304239401497,0.0038976033353750198,
0.10683291770573566,0.02835706738443594,
0.10688279301745636,0.004773056260696603,
0.10693266832917706,0.0029813912843067196,
0.10698254364089775,0.03441953834872028,
0.10703241895261846,0.01854669824791202,
0.10708229426433916,0.021237686197714704,
0.10713216957605985,0.0103589357141756,
0.10718204488778055,0.006199505006354196,
0.10723192019950124,0.01110338894565927,
0.10728179551122194,0.01738201824208765,
0.10733167082294265,0.002774755018045116,
0.10738154613466334,0.03586823913022916,
0.10743142144638404,-0.0008534084852166307,
0.10748129675810474,0.0026137240369202355,
0.10753117206982543,0.005722022236315018,
0.10758104738154614,0.00502243727188873,
0.10763092269326684,0.005872516581733085,
0.10768079800498753,0.019693448760394933,
0.10773067331670823,0.018975368099887206,
0.10778054862842892,0.043694711862816114,
0.10783042394014962,0.012286319381420576,
0.10788029925187033,0.014138417185078222,
0.10793017456359102,0.029483365669482543,
0.10798004987531172,-0.01193161324159464,
0.10802992518703242,0.0041549407807838935,
0.10807980049875311,-0.007414492288125987,
0.10812967581047382,0.049837488754338216,
0.10817955112219452,0.026083934177794605,
0.10822942643391521,0.025357886911100243,
0.10827930174563591,0.017097068941977208,
0.1083291770573566,0.03010791671397535,
0.1083790523690773,0.02188473667486096,
0.10842892768079801,0.018759608354095184,
0.1084788029925187,0.007928887761755009,
0.1085286783042394,0.013179234480199965,
0.1085785536159601,0.00620927768443175,
0.10862842892768079,0.012331882902616813,
0.1086783042394015,0.009632874728167304,
0.1087281795511222,0.03526370408728839,
0.1087780548628429,0.006338632532029362,
0.10882793017456359,0.02009664782674606,
0.10887780548628428,0.045101634015564926,
0.108927680798005,0.010813733289381348,
0.10897755610972569,0.01175358542324084,
0.10902743142144639,-0.006394923065974244,
0.10907730673316708,0.02450004379903173,
0.10912718204488778,0.020465189326668173,
0.10917705735660847,0.032435180955586965,
0.10922693266832918,0.017720352327574747,
0.10927680798004988,0.005153294867194069,
0.10932668329177057,0.03968739923686758,
0.10937655860349127,0.025281283968210538,
0.10942643391521197,0.025929458597496964,
0.10947630922693267,0.036953336678390514,
0.10952618453865337,0.0179461390369976,
0.10957605985037407,0.012810937070561051,
0.10962593516209476,0.01361492755207931,
0.10967581047381546,0.02737119094045806,
0.10972568578553615,0.03140105422989687,
0.10977556109725686,0.04739786054845001,
0.10982543640897756,0.028193851084069382,
0.10987531172069825,0.011593425547457927,
0.10992518703241895,0.04280521272809318,
0.10997506234413965,0.03908685065979855,
0.11002493765586036,0.0218384909190414,
0.11007481296758105,0.032221158209726576,
0.11012468827930175,0.021212421508135952,
0.11017456359102244,0.039948187064206796,
0.11022443890274314,0.03212752674855713,
0.11027431421446383,0.04594635331787118,
0.11032418952618454,0.028650961340606896,
0.11037406483790524,0.043350637012862375,
0.11042394014962593,0.05574979390490792,
0.11047381546134663,0.02485038759912018,
0.11052369077306733,0.03131920936398126,
0.11057356608478804,0.00549910778744387,
0.11062344139650873,0.03154279755528161,
0.11067331670822943,0.035950445421287947,
0.11072319201995012,0.03296529405155209,
0.11077306733167082,0.021101832584142454,
0.11082294264339151,0.011711006071511675,
0.11087281795511222,0.049270637158433106,
0.11092269326683292,0.03358043170805899,
0.11097256857855362,0.04545525803868851,
0.11102244389027431,0.011276686567024352,
0.111072319201995,-0.005914705298073874,
0.11112219451371572,0.017759569352125887,
0.11117206982543641,0.04413431661559353,
0.11122194513715711,0.03375256251788433,
0.1112718204488778,0.020403816929560656,
0.1113216957605985,0.013456772197113939,
0.11137157107231921,0.024008006665673647,
0.1114214463840399,0.013594633546005293,
0.1114713216957606,0.06458783598485737,
0.1115211970074813,0.02149905366807156,
0.11157107231920199,0.01846495317340046,
0.11162094763092269,0.0134518220224139,
0.1116708229426434,0.047820723525391656,
0.11172069825436409,0.05432923199896163,
0.11177057356608479,0.04252293437291903,
0.11182044887780548,0.014993942183288035,
0.11187032418952618,0.027883081130911466,
0.11192019950124689,0.033670043110229995,
0.11197007481296758,0.03526848329396433,
0.11201995012468828,0.0198813853500006,
0.11206982543640898,0.04975294641744958,
0.11211970074812967,0.032922162722080796,
0.11216957605985037,0.00039580818945394655,
0.11221945137157108,-0.0041144885726893295,
0.11226932668329177,0.062331659063793475,
0.11231920199501247,0.03341609445042771,
0.11236907730673316,0.05350974465078036,
0.11241895261845386,0.00500062347134524,
0.11246882793017457,0.016282456061976713,
0.11251870324189527,0.02370974039606837,
0.11256857855361596,0.013488575661873661,
0.11261845386533666,0.02401674278623555,
0.11266832917705735,0.03758777911936344,
0.11271820448877805,0.04204336445842832,
0.11276807980049876,-0.004922322633366175,
0.11281795511221945,-0.0018111304556847688,
0.11286783042394015,0.05366710189116876,
0.11291770573566084,0.018767983770611972,
0.11296758104738154,0.006336546369520184,
0.11301745635910225,0.038995970765229294,
0.11306733167082295,0.07262229824631455,
0.11311720698254364,0.03421118593051314,
0.11316708229426434,0.02084322514165332,
0.11321695760598503,0.030854493315990595,
0.11326683291770574,0.0365679486024365,
0.11331670822942644,0.029059486963309625,
0.11336658354114713,0.01843781534390926,
0.11341645885286783,0.012334923230356452,
0.11346633416458853,0.007725598335838475,
0.11351620947630922,0.018812172820901987,
0.11356608478802993,0.0022015586046324025,
0.11361596009975063,0.024852897816525346,
0.11366583541147132,0.022475239098623617,
0.11371571072319202,0.04679149766816843,
0.11376558603491271,0.025915294520887342,
0.11381546134663342,0.027327413016794925,
0.11386533665835412,0.029041721574194074,
0.11391521197007481,0.047746394838487784,
0.11396508728179551,-0.010841850842449645,
0.1140149625935162,0.009309834568243542,
0.1140648379052369,0.03720913181779394,
0.11411471321695761,-0.0018812968780164384,
0.1141645885286783,0.011756309148519054,
0.114214463840399,0.027687248660495448,
0.1142643391521197,0.011372611807391393,
0.1143142144638404,0.014826460607464575,
0.1143640897755611,0.035006633441645195,
0.1144139650872818,0.013745251130279891,
0.1144638403990025,0.032778943794078835,
0.11451371571072319,0.01623798079521983,
0.11456359102244389,0.033012618970305684,
0.11461346633416458,-0.0004350991353801424,
0.11466334164588529,0.047125181312308445,
0.11471321695760599,-0.0011780503409023375,
0.11476309226932668,0.029678051369646394,
0.11481296758104738,0.00809161138429988,
0.11486284289276807,0.0007295203460568438,
0.11491271820448878,0.0033394188840892014,
0.11496259351620948,0.02817478772126228,
0.11501246882793018,0.0326101448661996,
0.11506234413965087,0.01859691559113666,
0.11511221945137157,0.00025351144208007187,
0.11516209476309226,0.010322674424537912,
0.11521197007481297,0.03588246821057757,
0.11526184538653367,0.020943476989928975,
0.11531172069825436,0.026387863827689723,
0.11536159600997506,0.031813728066189026,
0.11541147132169575,-0.022688692196487257,
0.11546134663341646,0.013844133390358952,
0.11551122194513716,0.01844848347161249,
0.11556109725685786,0.015883428467486846,
0.11561097256857855,0.001350164365172591,
0.11566084788029925,0.039817585770059186,
0.11571072319201996,0.0009492937831285329,
0.11576059850374065,0.006978796170648493,
0.11581047381546135,0.024203170811485826,
0.11586034912718204,0.02977962453152386,
0.11591022443890274,0.009049600801919081,
0.11596009975062344,0.0007987291262171181,
0.11600997506234415,0.013447398490877383,
0.11605985037406484,-0.005758296833547316,
0.11610972568578554,0.036166754575553156,
0.11615960099750623,0.005081516594359577,
0.11620947630922693,-0.003845921733257608,
0.11625935162094764,0.020334801200932874,
0.11630922693266833,0.03563654243831642,
0.11635910224438903,0.0038076576875908956,
0.11640897755610972,0.0148290512817697,
0.11645885286783042,-0.0016474512785155,
0.11650872817955112,0.013191895841527811,
0.11655860349127183,-0.011697669871258197,
0.11660847880299252,0.005725451728150519,
0.11665835411471322,-0.02976152996627862,
0.11670822942643391,0.0008017639582549446,
0.11675810473815461,-0.0009286876662478972,
0.11680798004987532,0.00929769518831811,
0.11685785536159601,0.020899340294708576,
0.11690773067331671,0.01515117077675313,
0.1169576059850374,0.011567492285643174,
0.1170074812967581,0.028548869114099887,
0.1170573566084788,0.037243698875493905,
0.1171072319201995,0.01205260038702934,
0.1171571072319202,-0.01684448244363793,
0.1172069825436409,-0.022043006085360264,
0.1172568578553616,0.01584803444327233,
0.11730673316708229,0.016105259545379946,
0.117356608478803,-0.002777322492914399,
0.1174064837905237,0.0067336972131702665,
0.11745635910224439,-0.0009566841951314936,
0.11750623441396509,-0.016471834158378856,
0.11755610972568578,0.00024391689515059194,
0.11760598503740648,-0.011410439789643723,
0.11765586034912719,-0.0048604781184937865,
0.11770573566084788,0.0033482080956511078,
0.11775561097256858,-1.4266484425822998e-06,
0.11780548628428927,-0.005863426374080236,
0.11785536159600997,0.004997209137800642,
0.11790523690773068,0.0061949891952267425,
0.11795511221945137,-0.03496481874707471,
0.11800498753117207,0.001226594444513965,
0.11805486284289277,0.005253841555970427,
0.11810473815461346,0.00521629275912061,
0.11815461346633417,-0.003960506838156956,
0.11820448877805487,-0.027220480002737694,
0.11825436408977556,0.008857345738542877,
0.11830423940149626,-0.005123950786097165,
0.11835411471321695,0.01037425801007543,
0.11840399002493765,0.060759467277820764,
0.11845386533665836,-0.01736735245021509,
0.11850374064837906,0.002003556230470325,
0.11855361596009975,0.02751279766855672,
0.11860349127182045,-0.0014699229922378858,
0.11865336658354114,-0.009483588404120839,
0.11870324189526185,0.007215667040848531,
0.11875311720698255,-0.010965130000978573,
0.11880299251870324,-0.025048685439944946,
0.11885286783042394,0.009912318059898104,
0.11890274314214463,-0.005516054898379332,
0.11895261845386533,0.004134160811799431,
0.11900249376558604,-0.015382376246445374,
0.11905236907730674,-0.008941308444056476,
0.11910224438902743,0.015694130835084884,
0.11915211970074813,-0.0014397299217062051,
0.11920199501246882,-0.03550038407294674,
0.11925187032418953,0.0022349269696367823,
0.11930174563591023,0.033923868481182375,
0.11935162094763092,0.006501342276617934,
0.11940149625935162,0.006983464464017373,
0.11945137157107232,-0.02003872991192627,
0.11950124688279301,0.008458592225180429,
0.11955112219451372,0.005953807149628088,
0.11960099750623442,-0.008057977300652606,
0.11965087281795511,0.008943474014087835,
0.11970074812967581,-0.005077456081914089,
0.1197506234413965,-0.02153419393509083,
0.11980049875311721,-0.03767370067143665,
0.11985037406483791,-0.010656856696555736,
0.1199002493765586,-0.01237844632422875,
0.1199501246882793,-0.02886016536895286,
0.12,-0.0010582146074439571,
0.1200498753117207,-0.024633513332399774,
0.1200997506234414,-0.0029701666649308107,
0.1201496259351621,-0.009131679380306425,
0.12019950124688279,-0.00480245510701319,
0.12024937655860349,-0.0027268969426369463,
0.12029925187032418,-0.011878546145959679,
0.1203491271820449,-0.023954097344166092,
0.12039900249376559,-0.00010060853424497841,
0.12044887780548628,-0.014201754277410425,
0.12049875311720698,-0.0035641997388429127,
0.12054862842892768,0.006205420896301314,
0.12059850374064839,0.012089060878415223,
0.12064837905236908,-0.028338093113851603,
0.12069825436408978,-0.0010383554829562647,
0.12074812967581047,-0.013203552072066915,
0.12079800498753117,-0.008759234097096311,
0.12084788029925186,-0.013207686928714372,
0.12089775561097257,-0.019168468014307105,
0.12094763092269327,-0.005510870236042286,
0.12099750623441397,-0.013746020248814252,
0.12104738154613466,-0.031745222818636974,
0.12109725685785536,0.004406565425322109,
0.12114713216957607,0.012305135269783645,
0.12119700748129676,-0.014986939075555539,
0.12124688279301746,0.0033091455353734325,
0.12129675810473815,-0.030477756833418926,
0.12134663341645885,-0.007844981897702741,
0.12139650872817954,0.01724841089011471,
0.12144638403990025,-0.013367098344002707,
0.12149625935162095,0.007713329119762838,
0.12154613466334165,-0.0032952155094345976,
0.12159600997506234,0.01653795738403034,
0.12164588528678304,-0.013936003185446135,
0.12169576059850375,0.0053880390380161205,
0.12174563591022444,-0.0031329457908330213,
0.12179551122194514,-0.022703468497110274,
0.12184538653366583,-0.024775750934590807,
0.12189526184538653,-0.004138358011577417,
0.12194513715710723,-0.01214674870044537,
0.12199501246882793,0.00465193011146532,
0.12204488778054863,-0.008691834377797083,
0.12209476309226933,-0.024419602412757098,
0.12214463840399002,-0.03184311814292705,
0.12219451371571072,-0.01609553098419402,
0.12224438902743143,-0.007577643885988068,
0.12229426433915212,-0.011053072266370676,
0.12234413965087282,-0.01065882931855547,
0.12239401496259351,-0.006148349054376047,
0.12244389027431421,-0.004374791108636289,
0.12249376558603492,0.010653947082731872,
0.12254364089775562,0.017321762415645255,
0.12259351620947631,-0.011018020534969685,
0.122643391521197,-0.04447942357088819,
0.1226932668329177,0.016089987222382893,
0.1227431421446384,-0.03066246493322306,
0.12279301745635911,-0.016201479871104728,
0.1228428927680798,-0.007931308784674166,
0.1228927680798005,-0.010680980927273497,
0.1229426433915212,-0.0009588548391481107,
0.12299251870324189,-0.01661926493240616,
0.1230423940149626,-0.01762355603573245,
0.1230922693266833,-0.005009078278976932,
0.12314214463840399,-0.011774123885631363,
0.12319201995012469,0.023827329414962177,
0.12324189526184538,0.001360009697772873,
0.12329177057356608,0.0022791478740824093,
0.12334164588528679,0.01019727871315113,
0.12339152119700748,-0.008246192682842574,
0.12344139650872818,-0.013085521427031392,
0.12349127182044888,-0.006137339128603389,
0.12354114713216957,-0.00602947828190587,
0.12359102244389028,-0.003177755201791731,
0.12364089775561098,0.002524501598412986,
0.12369077306733167,0.013227538457388378,
0.12374064837905237,0.0017818163312703795,
0.12379052369077306,0.023509586681912303,
0.12384039900249376,-0.01008186918964242,
0.12389027431421447,-0.027468759224294037,
0.12394014962593516,0.0030122881257637155,
0.12399002493765586,0.007335375755550861,
0.12403990024937656,0.005520263591065281,
0.12408977556109725,-0.01444333236507669,
0.12413965087281796,0.0019882361183071635,
0.12418952618453866,0.0173463745921904,
0.12423940149625935,-0.005205371188734945,
0.12428927680798005,-0.018910844832708065,
0.12433915211970074,-0.03348297350478237,
0.12438902743142144,-0.00380519070408682,
0.12443890274314215,-0.005228922636548759,
0.12448877805486284,-0.0034979206036584902,
0.12453865336658354,0.01849843066138783,
0.12458852867830424,0.012335996280705502,
0.12463840399002493,0.017784312443122292,
0.12468827930174564,0.01231972337367342,
0.12473815461346634,0.00567677236307473,
0.12478802992518703,0.021295137139235372,
0.12483790523690773,0.0280160053574834,
0.12488778054862842,-0.034083539320178984,
0.12493765586034913,-0.0046594550467419895,
0.12498753117206983,0.011892174119683055,
0.12503740648379053,0.03755952296257413,
0.12508728179551123,-0.002039151600187404,
0.12513715710723192,-0.01520129522732724,
0.12518703241895263,0.018476649720519493,
0.1252369077306733,-0.004702229032761275,
0.12528678304239402,-0.007091109799949289,
0.1253366583541147,-0.010234451576481847,
0.1253865336658354,0.002028532282308388,
0.12543640897755612,0.013064947285764513,
0.1254862842892768,-0.027359512364351878,
0.1255361596009975,0.017744441095335007,
0.1255860349127182,-0.0015535146831769774,
0.1256359102244389,-0.0008247800096544541,
0.1256857855361596,-0.007888596736042856,
0.1257356608478803,0.023979135483227904,
0.125785536159601,0.0028824530180672878,
0.12583541147132168,-0.005299879744707165,
0.1258852867830424,-0.026514107915443445,
0.1259351620947631,0.004402709492771644,
0.12598503740648379,-0.010493853941689675,
0.1260349127182045,0.025416899229438475,
0.12608478802992518,-0.0033169047205084384,
0.1261346633416459,0.025561040582926697,
0.1261845386533666,0.015173469783031326,
0.12623441396508728,-0.011611069735375283,
0.126284289276808,-0.004796888763203718,
0.12633416458852867,0.0010284390610084942,
0.12638403990024938,0.011756958115614507,
0.1264339152119701,0.00030369280043752306,
0.12648379052369077,0.018936398227503298,
0.12653366583541148,0.02084439689729685,
0.12658354114713216,0.018301982222263476,
0.12663341645885287,0.0018320078294683777,
0.12668329177057355,0.014416142665020098,
0.12673316708229426,0.0269212222919274,
0.12678304239401497,0.014815631776077323,
0.12683291770573565,0.022972112751243636,
0.12688279301745636,0.008743247181825998,
0.12693266832917705,-0.011676622226628974,
0.12698254364089775,0.011464972922108711,
0.12703241895261846,0.003231810995423792,
0.12708229426433915,0.03169445373376946,
0.12713216957605986,0.028265530674419587,
0.12718204488778054,-0.00040113130327448614,
0.12723192019950125,-0.009985422991767443,
0.12728179551122196,0.008342666010182798,
0.12733167082294264,0.004658272017915681,
0.12738154613466335,0.019712997753056592,
0.12743142144638403,0.020835850920766903,
0.12748129675810474,0.02069907406296161,
0.12753117206982545,0.008006657548616715,
0.12758104738154613,0.007001178509741661,
0.12763092269326684,-0.02053133762905999,
0.12768079800498752,0.021815192295041346,
0.12773067331670823,0.01450410959542973,
0.1277805486284289,0.03343676052278065,
0.12783042394014962,0.009277192938064878,
0.12788029925187033,0.016458058817890087,
0.12793017456359101,0.05379529654446501,
0.12798004987531172,0.024389811709700032,
0.1280299251870324,-0.0027514327626615466,
0.12807980049875312,0.04701912130038636,
0.12812967581047383,0.045002446946554385,
0.1281795511221945,0.027820108455490607,
0.12822942643391522,0.016060095721302438,
0.1282793017456359,0.023982471556923964,
0.1283291770573566,0.03446979842712393,
0.12837905236907732,0.012712145908091606,
0.128428927680798,0.03059675464512956,
0.1284788029925187,0.051850290939759354,
0.1285286783042394,0.03788228444477418,
0.1285785536159601,0.021245950835808266,
0.1286284289276808,0.01408479331112019,
0.1286783042394015,0.031845703965742544,
0.1287281795511222,0.009351294467550071,
0.12877805486284288,0.04298045004173029,
0.1288279301745636,0.0326879411800588,
0.1288778054862843,0.036648823542588416,
0.12892768079800498,0.015774853896603755,
0.1289775561097257,0.02974233169891177,
0.12902743142144638,0.04721513881225027,
0.12907730673316709,0.04392602745774872,
0.12912718204488777,-0.0024904901622578197,
0.12917705735660848,0.037877637759903,
0.1292269326683292,0.04727326687994758,
0.12927680798004987,0.01767028204729184,
0.12932668329177058,0.03265029634251031,
0.12937655860349126,0.034000469104830414,
0.12942643391521197,0.03842651379133262,
0.12947630922693268,-0.019675472373509625,
0.12952618453865336,0.0340125533646083,
0.12957605985037407,0.03872003459126615,
0.12962593516209475,0.0427581947577525,
0.12967581047381546,0.026781227901352588,
0.12972568578553617,0.03732703360844871,
0.12977556109725685,0.03828763252238426,
0.12982543640897756,0.06432533028939963,
0.12987531172069824,0.022202774343159065,
0.12992518703241895,0.022139619552134355,
0.12997506234413966,0.016410902014562873,
0.13002493765586035,0.03408508606945181,
0.13007481296758105,0.037235336069678604,
0.13012468827930174,0.02061017428693097,
0.13017456359102245,0.06596575021214447,
0.13022443890274316,0.02339714257318102,
0.13027431421446384,0.031461238625436046,
0.13032418952618455,0.04140288104121684,
0.13037406483790523,0.01800597185379248,
0.13042394014962594,0.0346549946914284,
0.13047381546134662,0.027739619386100495,
0.13052369077306733,0.023245888676738553,
0.13057356608478804,-0.0012911976866186378,
0.13062344139650872,0.01836691319810889,
0.13067331670822943,0.01528434633307435,
0.1307231920199501,0.05022335393959303,
0.13077306733167082,0.022594333944509423,
0.13082294264339153,0.018861134095337066,
0.13087281795511221,0.028817556223654287,
0.13092269326683292,0.0064908202348111475,
0.1309725685785536,0.030389185770746237,
0.13102244389027431,0.04120371869478577,
0.13107231920199502,0.02643791665721045,
0.1311221945137157,0.011823474712971647,
0.13117206982543642,0.030469394849195277,
0.1312219451371571,0.028203969156844234,
0.1312718204488778,0.019649923639307697,
0.13132169576059852,0.0256318078906396,
0.1313715710723192,0.006806235690733561,
0.1314214463840399,0.05018490850650523,
0.1314713216957606,-0.005101765184923425,
0.1315211970074813,0.012009673925905559,
0.13157107231920198,0.044736955429455265,
0.1316209476309227,0.015403713167774948,
0.1316708229426434,0.027416091278906835,
0.13172069825436408,0.03247668747869867,
0.1317705735660848,0.033260816310284165,
0.13182044887780547,0.011507650950033081,
0.13187032418952618,0.006270576460700339,
0.1319201995012469,0.02504050231590527,
0.13197007481296757,0.03773478233688048,
0.13201995012468828,0.041410089840178285,
0.13206982543640897,0.05211634949962469,
0.13211970074812968,0.01195018429066095,
0.13216957605985039,0.045001995565107214,
0.13221945137157107,0.017155379522261323,
0.13226932668329178,0.034416757779471695,
0.13231920199501246,0.02508192786134665,
0.13236907730673317,0.035734271401458316,
0.13241895261845388,0.0202169981388496,
0.13246882793017456,0.008343467896633698,
0.13251870324189527,0.051937590956666904,
0.13256857855361595,0.04281617862962199,
0.13261845386533666,0.042973484779267226,
0.13266832917705737,0.007890847428529083,
0.13271820448877805,0.03730556868111112,
0.13276807980049876,0.054148710091459745,
0.13281795511221944,0.02911505728502825,
0.13286783042394015,0.05185865268339836,
0.13291770573566083,0.0336729728331697,
0.13296758104738154,0.0032161984759708218,
0.13301745635910225,0.030251774988835415,
0.13306733167082294,0.0007836745494881787,
0.13311720698254365,0.017746549031327125,
0.13316708229426433,0.008145728860584744,
0.13321695760598504,0.04379666353758685,
0.13326683291770575,-0.004482455447808745,
0.13331670822942643,0.05013352889008279,
0.13336658354114714,0.04239275187741796,
0.13341645885286782,0.007019369610161148,
0.13346633416458853,0.03873376302738513,
0.13351620947630924,0.016059067238122296,
0.13356608478802992,0.05560432504784261,
0.13361596009975063,0.031821930867002635,
0.1336658354114713,0.04890829631072282,
0.13371571072319202,0.04425671613350319,
0.13376558603491273,0.018210646955626575,
0.1338154613466334,0.04287859905348039,
0.13386533665835412,0.01713540309165291,
0.1339152119700748,0.032543553484694177,
0.13396508728179551,0.0160726351956673,
0.1340149625935162,0.03352015190110356,
0.1340648379052369,0.0508969133756991,
0.13411471321695762,0.0318305817318468,
0.1341645885286783,0.045123469873300175,
0.134214463840399,0.03459815380174679,
0.1342643391521197,0.022119320951180837,
0.1343142144638404,0.031172958598350318,
0.1343640897755611,0.023779369695997993,
0.1344139650872818,0.009354999173494187,
0.1344638403990025,0.029108772510312617,
0.13451371571072318,0.0191800900189789,
0.1345635910224439,0.031848482520385676,
0.1346134663341646,-0.01587060872076152,
0.13466334164588528,0.01913888361434369,
0.134713216957606,0.018772424576690372,
0.13476309226932667,0.008804263098353015,
0.13481296758104738,0.010358211982291062,
0.1348628428927681,0.038996668973887066,
0.13491271820448877,0.025916570940656684,
0.13496259351620948,0.03117498106446296,
0.13501246882793017,0.013481846993479077,
0.13506234413965088,0.021554355262010664,
0.13511221945137158,0.030533115466424402,
0.13516209476309227,0.0036596113545631463,
0.13521197007481298,0.01642105678587969,
0.13526184538653366,0.009744459801054631,
0.13531172069825437,0.01632502147352163,
0.13536159600997505,0.03635888578806083,
0.13541147132169576,0.01982429242801118,
0.13546134663341647,0.029053865562215946,
0.13551122194513715,0.005741662655903456,
0.13556109725685786,0.02163755510786547,
0.13561097256857854,0.012184817674548761,
0.13566084788029925,0.021591399031669997,
0.13571072319201996,-0.0055569805641022055,
0.13576059850374064,0.026286152592881855,
0.13581047381546135,0.0042611332792783264,
0.13586034912718203,0.03134442041626714,
0.13591022443890274,0.02298058542614608,
0.13596009975062345,-0.01290854966433369,
0.13600997506234414,0.01979441220543197,
0.13605985037406484,-0.015152812836001086,
0.13610972568578553,0.004794361755194413,
0.13615960099750624,-0.010826279877199498,
0.13620947630922695,0.015839088581411354,
0.13625935162094763,-0.010914374257673384,
0.13630922693266834,0.016312200265989625,
0.13635910224438902,0.011942829692003254,
0.13640897755610973,0.012263066698238328,
0.1364588528678304,0.04042953087737894,
0.13650872817955112,0.002867546428612089,
0.13655860349127183,0.02107116758507046,
0.1366084788029925,0.01789545630579314,
0.13665835411471322,0.02104565050320013,
0.1367082294264339,0.011279259437497073,
0.1367581047381546,0.041026555497702295,
0.13680798004987532,0.01803971450808288,
0.136857855361596,0.005840314382631472,
0.1369077306733167,0.000595081645327007,
0.1369576059850374,0.026679753720099716,
0.1370074812967581,0.019580106565978743,
0.13705735660847881,0.0033040119312233154,
0.1371072319201995,0.0251833474822977,
0.1371571072319202,0.025039525381370387,
0.1372069825436409,-0.004980228906939545,
0.1372568578553616,0.017735488463964246,
0.1373067331670823,-0.01298624143379255,
0.137356608478803,0.03251129354631655,
0.1374064837905237,0.02401104319455513,
0.13745635910224438,-0.004130013262456501,
0.1375062344139651,0.009701673618751142,
0.1375561097256858,0.013635965167828012,
0.13760598503740648,-0.01242806313136418,
0.1376558603491272,-0.029080965056831155,
0.13770573566084787,0.018098368571959088,
0.13775561097256858,0.011432312169571333,
0.13780548628428926,-0.00047860561151067717,
0.13785536159600997,-0.016920687387287536,
0.13790523690773068,-0.00047978244655838553,
0.13795511221945136,0.012282384681428747,
0.13800498753117207,0.0023069434101544175,
0.13805486284289276,0.011541725145085318,
0.13810473815461347,0.012915801299878692,
0.13815461346633418,-0.004993435062606378,
0.13820448877805486,-0.0023833518773886194,
0.13825436408977557,-0.012326789796171227,
0.13830423940149625,-0.002544327088027729,
0.13835411471321696,0.019807091890026086,
0.13840399002493767,0.004178231803814972,
0.13845386533665835,0.02994071328383629,
0.13850374064837906,0.004434219662030305,
0.13855361596009974,-0.016236813373758624,
0.13860349127182045,0.015293971296222644,
0.13865336658354116,-0.0160441552264871,
0.13870324189526184,0.011657242783241584,
0.13875311720698255,0.0012577856543326887,
0.13880299251870323,-2.5704856114567784e-05,
0.13885286783042394,0.023724734820250216,
0.13890274314214462,-0.000928337421500051,
0.13895261845386533,0.007069569414852919,
0.13900249376558604,-0.013974524819022512,
0.13905236907730673,0.021087174551860377,
0.13910224438902744,-0.01209303262334201,
0.13915211970074812,-0.005188169625673873,
0.13920199501246883,0.016214801410465288,
0.13925187032418954,0.009193552163131991,
0.13930174563591022,0.022787533849826888,
0.13935162094763093,0.007711961316593413,
0.1394014962593516,0.005276793235804267,
0.13945137157107232,-0.01145556417896407,
0.13950124688279303,-0.012298835848383267,
0.1395511221945137,0.013202242108668796,
0.13960099750623442,0.002826537438730521,
0.1396508728179551,-0.02459738798933227,
0.1397007481296758,-0.02695460706522113,
0.13975062344139652,-0.009279036172280094,
0.1398004987531172,-0.0067213493972775205,
0.1398503740648379,-0.02294138929279213,
0.1399002493765586,-0.029450419412188233,
0.1399501246882793,-0.0013879061111828715,
0.14,-0.017877007695520957,
0.1400498753117207,-0.01876513176445148,
0.1400997506234414,-0.005558130474219505,
0.1401496259351621,-0.012295910636601882,
0.1401995012468828,-0.023998234025737246,
0.14024937655860348,0.013570425950850135,
0.1402992518703242,-0.0026020990441072925,
0.1403491271820449,-0.01062868358876815,
0.14039900249376558,-0.01911513768902227,
0.1404488778054863,-0.0004980700370128188,
0.14049875311720697,-0.010268816895621653,
0.14054862842892768,-0.007507515922297548,
0.1405985037406484,-0.020712754655115503,
0.14064837905236907,-0.0020369808441961026,
0.14069825436408978,-0.009009011607541263,
0.14074812967581046,-0.01228252449748622,
0.14079800498753117,0.0005766474448736878,
0.14084788029925188,0.0039137818844262005,
0.14089775561097256,-0.008174376731530658,
0.14094763092269327,0.003883803922920346,
0.14099750623441396,-0.03234346745657422,
0.14104738154613466,-0.005010295931417804,
0.14109725685785537,-0.015908687760924994,
0.14114713216957606,0.006342427502072251,
0.14119700748129677,0.016028165901731832,
0.14124688279301745,-0.022800960687904506,
0.14129675810473816,-0.00838943031901388,
0.14134663341645887,-0.006226738551362158,
0.14139650872817955,-0.02877741617187831,
