time,amplitude,label
0.0,-0.010991764098939101,
4.987531172069826e-05,-0.03908291640478354,
9.975062344139652e-05,-0.030429694807587133,
0.00014962593516209475,-0.027102266897345108,
0.00019950124688279303,-0.0036056225957556524,
0.00024937655860349125,-0.01841830454612651,
0.0002992518703241895,-0.036010324480796094,
0.00034912718204488776,-0.013973935629907426,
0.00039900249376558606,-0.010520423718714245,
0.0004488778054862843,-0.020204111835314238,
0.0004987531172069825,-0.008552202768011054,
0.0005486284289276808,-0.004529300414851608,
0.000598503740648379,-0.013927378561093693,
0.0006483790523690773,-0.04662187484134855,
0.0006982543640897755,-0.0070950504528895335,
0.0007481296758104738,-0.013947653748312904,
0.0007980049875311721,-0.027291230929296723,
0.0008478802992518703,-0.028272495396895525,
0.0008977556109725686,-0.03350893814447343,
0.0009476309226932668,-0.024577569097810573,
0.000997506234413965,-0.014734444619182205,
0.0010473815461346633,-0.019193545781143923,
0.0010972568578553616,-0.012932290138789198,
0.00114713216957606,-0.02988721232002782,
0.001197007481296758,-0.02124349481375355,
0.0012468827930174563,-0.013644713491640238,
0.0012967581047381546,-0.01682756799924681,
0.001346633416458853,-0.023332034477123873,
0.001396508728179551,-0.025464108024495866,
0.0014463840399002493,-0.00631289756442612,
0.0014962593516209476,-0.0310439194738229,
0.001546134663341646,0.014113744632681644,
0.0015960099750623442,-0.016828337446549043,
0.0016458852867830423,0.007620073425961688,
0.0016957605985037406,-0.027624146696533868,
0.001745635910224439,-0.011469159324547135,
0.0017955112219451373,-0.020004880483880803,
0.0018453865336658353,-0.01836689845342649,
0.0018952618453865336,-0.023581615688744055,
0.001945137157107232,-0.03647696683586895,
0.00199501246882793,-0.014881408140998234,
0.0020448877805486283,-0.02011158127626413,
0.0020947630922693266,-0.01780001096646601,
0.002144638403990025,-0.04234735441397906,
0.0021945137157107233,-0.017877971934969147,
0.0022443890274314216,-0.024334406461361802,
0.00229426433915212,0.017764684113903677,
0.0023441396508728177,-0.02266967034352158,
0.002394014962593516,-0.013660847464973928,
0.0024438902743142144,-0.037739876004928445,
0.0024937655860349127,-0.005935483491972791,
0.002543640897755611,-0.034032727571763954,
0.0025935162094763093,-0.04212211209416081,
0.0026433915211970076,0.00600640484523427,
0.002693266832917706,-0.032626023256388456,
0.002743142144638404,-0.03239888611260189,
0.002793017456359102,-0.020367444623914016,
0.0028428927680798004,-0.01101845689728655,
0.0028927680798004987,-0.007513531964574327,
0.002942643391521197,-0.013587461055317296,
0.0029925187032418953,-0.014431772426902273,
0.0030423940149625936,-0.039171497064215195,
0.003092269326683292,-0.015317928880299748,
0.00314214463840399,0.010768367685926865,
0.0031920199501246885,-0.026119126190117206,
0.0032418952618453864,-0.01975764184151507,
0.0032917705735660847,0.020879108927093167,
0.003341645885286783,-2.7384321054056693e-05,
0.0033915211970074813,-0.039383407742704726,
0.0034413965087281796,0.006547968693521818,
0.003491271820448878,0.00021194288623711637,
0.003541147132169576,-0.04576499411577197,
0.0035910224438902745,-0.01336377878339065,
0.0036408977556109724,-0.021787454057341886,
0.0036907730673316707,-0.018486999434507732,
0.003740648379052369,0.004861443528478521,
0.0037905236907730673,0.0037172956716253584,
0.0038403990024937656,0.0026725602369995737,
0.003890274314214464,-0.022392871671240742,
0.003940149625935162,0.007113189360793483,
0.00399002493765586,-0.015697437934856593,
0.004039900249376558,0.0036068258343351393,
0.004089775561097257,0.001406703657557417,
0.004139650872817955,-0.005134152993230957,
0.004189526184538653,0.0005268195573131292,
0.004239401496259352,0.0013264034775664086,
0.00428927680798005,-0.03819882130497284,
0.004339152119700748,0.026797398331806197,
0.0043890274314214465,-0.0024293385881494463,
0.004438902743142145,0.005695745118634816,
0.004488778054862843,-0.01697842800053467,
0.004538653366583541,-0.013182667014734098,
0.00458852867830424,-0.023166069848443847,
0.004638403990024938,-0.004058696120630476,
0.0046882793017456355,-0.01784828726605392,
0.004738154613466334,-0.009291072494428423,
0.004788029925187032,0.02150989738411521,
0.00483790523690773,0.0002579461341163333,
0.004887780548628429,-0.017800968535800765,
0.004937655860349127,0.01766204789125383,
0.004987531172069825,-0.03718886811962089,
0.005037406483790524,0.0041108189976231495,
0.005087281795511222,-0.023783746216144576,
0.00513715710723192,0.008587670562190333,
0.0051870324189526185,0.025247331253809173,
0.005236907730673317,-0.01619193145464045,
0.005286783042394015,0.017517079349573205,
0.0053366583541147134,-0.017757417059060084,
0.005386533665835412,-0.010469223857331306,
0.00543640897755611,-0.028307583944125653,
0.005486284289276808,0.013117835381242709,
0.005536159600997507,0.0005372259780337327,
0.005586034912718204,0.02061897674486435,
0.005635910224438902,-0.006799934753096585,
0.005685785536159601,0.012664252222885001,
0.005735660847880299,0.01617035727433986,
0.005785536159600997,-0.005960449945553545,
0.005835411471321696,0.013271948245178827,
0.005885286783042394,-0.012059728531410466,
0.005935162094763092,0.009673028550542693,
0.0059850374064837905,0.014310869021759699,
0.006034912718204489,0.021224426413236748,
0.006084788029925187,-0.014891210309314097,
0.0061346633416458855,0.0006214653293225396,
0.006184538653366584,0.03791713635647438,
0.006234413965087282,-0.005162655713384507,
0.00628428927680798,0.018316713396767822,
0.006334164588528679,-0.016121796789016898,
0.006384039900249377,0.005757808055180522,
0.006433915211970074,0.011987381483991045,
0.006483790523690773,-0.024153805436160813,
0.006533665835411471,-0.014866901014323364,
0.006583541147132169,0.004351589500188164,
0.006633416458852868,0.021174306358261404,
0.006683291770573566,0.037407376316507784,
0.006733167082294264,0.029929617288287462,
0.0067830423940149626,-0.007716345207101056,
0.006832917705735661,-0.0044504052437331024,
0.006882793017456359,0.01666142757805962,
0.0069326683291770575,0.014620328395152066,
0.006982543640897756,0.00479293800261363,
0.007032418952618454,-0.014028134629169365,
0.007082294264339152,0.016391072300192853,
0.007132169576059851,0.013372697550163095,
0.007182044887780549,0.02711047039161857,
0.007231920199501247,0.008646991214413674,
0.007281795511221945,0.021868199493919584,
0.007331670822942643,0.0027286684528969145,
0.007381546134663341,0.0076676220959962646,
0.00743142144638404,0.009802395821359418,
0.007481296758104738,0.0013262399482531634,
0.007531172069825436,-0.0018793284556982651,
0.007581047381546135,0.015440430239780803,
0.007630922693266833,0.02698586967860956,
0.007680798004987531,0.00634618770552214,
0.0077306733167082295,0.009847726358264405,
0.007780548628428928,-0.01842436743620597,
0.007830423940149626,0.009757106296563017,
0.007880299251870324,0.01269750729689565,
0.007930174563591023,0.0014797333860627898,
0.00798004987531172,0.005347064241563962,
0.00802992518703242,0.01195255900579412,
0.008079800498753117,0.003427973428920752,
0.008129675810473816,0.034179887244634666,
0.008179551122194513,0.019579284183139464,
0.008229426433915213,0.040144220207108595,
0.00827930174563591,0.009622903220683791,
0.00832917705735661,0.03183791890385907,
0.008379052369077307,0.02381332517758964,
0.008428927680798006,0.016773536329505918,
0.008478802992518703,-0.02381085621964173,
0.0085286783042394,0.023970919088827,
0.0085785536159601,0.01720605084835227,
0.008628428927680797,0.02705059378952924,
0.008678304239401496,-0.00963590315118482,
0.008728179551122194,0.003905419316005186,
0.008778054862842893,0.032497939043555676,
0.00882793017456359,0.0017094061877309594,
0.00887780548628429,0.008863630167932918,
0.008927680798004987,0.031147233300410283,
0.008977556109725686,0.02811510706404674,
0.009027431421446384,0.008935801762875355,
0.009077306733167083,-0.004475030207221644,
0.00912718204488778,0.014429464277231987,
0.00917705735660848,0.005290042198872344,
0.009226932668329177,0.005500475833794339,
0.009276807980049876,0.04770210428449814,
0.009326683291770574,0.011028028395451637,
0.009376558603491271,0.03940504551275584,
0.00942643391521197,0.015899738337132433,
0.009476309226932668,0.017944865777194258,
0.009526184538653367,0.022186122442422594,
0.009576059850374064,0.03559622055538267,
0.009625935162094763,0.038658768194830676,
0.00967581047381546,0.022685084760145153,
0.00972568578553616,0.025788464081862934,
0.009775561097256857,0.00828286594902167,
0.009825436408977557,0.014043375087125979,
0.009875311720698254,0.02919653641980547,
0.009925187032418953,0.016634631569751063,
0.00997506234413965,0.01213583892894488,
0.01002493765586035,0.012851289402610355,
0.010074812967581047,0.01901938798649608,
0.010124688279301746,0.022399888260828373,
0.010174563591022444,0.039050518176694596,
0.010224438902743141,0.004669014769542443,
0.01027431421446384,0.03290146292120133,
0.010324189526184538,0.026955933519065965,
0.010374064837905237,0.016783134518897094,
0.010423940149625935,0.02092043567022708,
0.010473815461346634,0.027059832427707254,
0.010523690773067331,0.037642320946443215,
0.01057356608478803,0.007957317076626492,
0.010623441396508728,0.015061955698506666,
0.010673316708229427,0.00940284751719662,
0.010723192019950124,-0.006554300738424744,
0.010773067331670824,0.03701431409983953,
0.010822942643391521,0.045141467979207775,
0.01087281795511222,0.033807523781757644,
0.010922693266832918,0.03405916290833506,
0.010972568578553617,0.04454918337072454,
0.011022443890274314,0.022074845587946295,
0.011072319201995013,0.031523932618226655,
0.01112219451371571,0.04190134822082213,
0.011172069825436408,0.009768206142846765,
0.011221945137157107,0.021620992445595587,
0.011271820448877805,0.020622377388447542,
0.011321695760598504,0.015085597287657453,
0.011371571072319201,0.04544708407852386,
0.0114214463840399,0.0186785604520723,
0.011471321695760598,0.027684992683020944,
0.011521197007481297,-0.0018462205497245983,
0.011571072319201995,0.0019162771925708526,
0.011620947630922694,0.0004617003894887492,
0.011670822942643391,0.00046145526978820517,
0.01172069825436409,0.01322698519464558,
0.011770573566084788,0.014812198625788415,
0.011820448877805487,0.03399078122505108,
0.011870324189526184,0.004970062530870768,
0.011920199501246884,0.018749513985406946,
0.011970074812967581,0.01904346240491017,
0.012019950124688279,0.01165800562642079,
0.012069825436408978,0.002136710448717922,
0.012119700748129675,0.03801700200981989,
0.012169576059850374,0.0152977482172753,
0.012219451371571072,-0.010801660103861924,
0.012269326683291771,0.012103634785756136,
0.012319201995012468,0.014269589014309908,
0.012369077306733168,0.023592253251200408,
0.012418952618453865,0.022480691771116165,
0.012468827930174564,0.0010092214814629696,
0.012518703241895262,0.04079854404971418,
0.01256857855361596,0.02172796175296464,
0.012618453865336658,0.013710955962623372,
0.012668329177057357,0.004015074304824999,
0.012718204488778055,0.013608618991022968,
0.012768079800498754,0.00899580708863502,
0.012817955112219451,0.03951178528709235,
0.012867830423940149,-0.005571755537332379,
0.012917705735660848,0.005524968539833386,
0.012967581047381545,0.022451306272885038,
0.013017456359102245,0.03921736227741385,
0.013067331670822942,0.024919194562477147,
0.013117206982543641,0.042867677973311015,
0.013167082294264339,0.00765810883154181,
0.013216957605985038,-0.00649312914530654,
0.013266832917705735,-0.02004523525539692,
0.013316708229426434,0.018331073161542838,
0.013366583541147132,-0.00950096171123982,
0.013416458852867831,0.04317801576752275,
0.013466334164588529,0.028170833893150404,
0.013516209476309228,0.023820946186749882,
0.013566084788029925,-0.0011346980287850143,
0.013615960099750624,-0.017135978829140648,
0.013665835411471322,0.0045924265159527685,
0.01371571072319202,0.001433305476114373,
0.013765586034912718,0.04758714523593288,
0.013815461346633416,0.026171156536279723,
0.013865336658354115,0.028889571727553756,
0.013915211970074812,0.005461537219944652,
0.013965087281795512,0.03963814610179973,
0.014014962593516209,0.01606214299667613,
0.014064837905236908,-0.0006907072172601062,
0.014114713216957606,0.0003645101756185303,
0.014164588528678305,-0.001955309051931602,
0.014214463840399002,-0.012484514500325186,
0.014264339152119701,0.004032971322900586,
0.014314214463840399,0.016191800806016687,
0.014364089775561098,0.0024576261652550736,
0.014413965087281795,-0.024297882628166064,
0.014463840399002495,0.032031456924852035,
0.014513715710723192,0.03322271056625172,
0.01456359102244389,0.03309229368659827,
0.014613466334164589,-0.01675813096433245,
0.014663341645885286,0.017909820055872577,
0.014713216957605985,-0.010731605896738413,
0.014763092269326683,0.027954667126933744,
0.014812967581047382,0.006697746998956916,
0.01486284289276808,-0.015366384327440401,
0.014912718204488778,0.0309801644907073,
0.014962593516209476,0.005275608030689927,
0.015012468827930175,-0.01646218462539696,
0.015062344139650873,-0.02614853499404074,
0.015112219451371572,-0.01357676320699171,
0.01516209476309227,-0.0036130886191643114,
0.015211970074812968,0.0002596909488617766,
0.015261845386533666,0.00808127487358306,
0.015311720698254365,-0.006112848216623103,
0.015361596009975062,-0.021888282468109095,
0.01541147132169576,-0.01253727323347011,
0.015461346633416459,-0.022307093010890733,
0.015511221945137156,0.019712785138018704,
0.015561097256857856,0.008837572281715403,
0.015610972568578553,-0.016364394916171802,
0.015660847880299252,0.002537507877022738,
0.01571072319201995,-0.026647663788755507,
0.015760598503740647,-0.0036765811713176067,
0.015810473815461346,0.01986249638498336,
0.015860349127182045,-0.01492664596648833,
0.015910224438902745,0.0029078062727222456,
0.01596009975062344,-0.0045510102068679805,
0.01600997506234414,-0.006696049755408601,
0.01605985037406484,0.021201974417804793,
0.016109725685785538,-0.014292670634455443,
0.016159600997506234,-0.009527273712638677,
0.016209476309226933,-0.0004800084185059587,
0.016259351620947632,-0.026968651214277276,
0.016309226932668328,0.0018925213516595395,
0.016359102244389027,-0.01281421949762996,
0.016408977556109726,-0.002012428401842427,
0.016458852867830425,-0.010052852875716198,
0.01650872817955112,0.003801169340166711,
0.01655860349127182,-0.017329686045716452,
0.01660847880299252,-0.0008341592682399885,
0.01665835411471322,-0.025921203544107294,
0.016708229426433914,-0.029946251623131012,
0.016758104738154613,0.0028278211445634804,
0.016807980049875312,-0.02982083084417928,
0.01685785536159601,-0.007354604498882865,
0.016907730673316707,0.0025630571559499826,
0.016957605985037406,0.003101913552200063,
0.017007481296758106,-0.012340727989379721,
0.0170573566084788,0.006327908749980677,
0.0171072319201995,-0.005998948429416451,
0.0171571072319202,-0.02791423808076346,
0.0172069825436409,-0.006595066508146502,
0.017256857855361595,-0.0072232766274812465,
0.017306733167082294,-0.020040886682677526,
0.017356608478802993,-0.018841658338397297,
0.017406483790523692,-0.006124958785682787,
0.017456359102244388,-0.005433462477317998,
0.017506234413965087,-0.031947167874871084,
0.017556109725685786,-0.002453538797479702,
0.017605985037406485,-0.022927964112166157,
0.01765586034912718,-0.006469702031617946,
0.01770573566084788,-0.029222151622807824,
0.01775561097256858,-0.024155272445127947,
0.01780548628428928,0.021349959493300007,
0.017855361596009974,-0.042920912897209326,
0.017905236907730673,-0.03196787705912291,
0.017955112219451373,-0.0233403082958887,
0.018004987531172068,-0.0386449277778341,
0.018054862842892767,-0.014988274391039075,
0.018104738154613467,0.004740945980332492,
0.018154613466334166,-0.01861539499799276,
0.01820448877805486,-0.027157801653315584,
0.01825436408977556,-0.010242951308528767,
0.01830423940149626,0.02179212749758148,
0.01835411471321696,-0.0204580089656922,
0.018403990024937655,-0.023748681497176606,
0.018453865336658354,-0.02246120105536375,
0.018503740648379053,0.0024914392882646533,
0.018553615960099752,-0.004089765034593169,
0.018603491271820448,0.0034523594072492954,
0.018653366583541147,-0.029686380824814056,
0.018703241895261846,-0.04144538296911986,
0.018753117206982542,-0.011955462671761643,
0.01880299251870324,-0.022549558455209052,
0.01885286783042394,-0.02019435777018789,
0.01890274314214464,-0.03655476306631096,
0.018952618453865335,-0.0004923462845286067,
0.019002493765586034,0.003590694795508477,
0.019052369077306733,-0.0057412049277182995,
0.019102244389027433,-0.016863671880223585,
0.01915211970074813,-0.012171531893286267,
0.019201995012468828,-0.031511543900575825,
0.019251870324189527,-0.033417731171185044,
0.019301745635910226,-0.012062597284412568,
0.01935162094763092,0.009989266509507076,
0.01940149625935162,-0.038379692211301164,
0.01945137157107232,-0.03387919415978558,
0.01950124688279302,-0.02529382844247266,
0.019551122194513715,-0.017630552787930527,
0.019600997506234414,-0.06598276385010564,
0.019650872817955113,-0.034284145979642536,
0.01970074812967581,-0.013886619298978251,
0.019750623441396508,-0.017067234961533527,
0.019800498753117207,-0.004764041309383665,
0.019850374064837906,-0.039477874825109144,
0.019900249376558602,-0.04477211137377814,
0.0199501246882793,-0.04657832201862029,
0.02,-0.01813114258507716,
0.0200498753117207,0.004021801953314606,
0.020099750623441395,-0.03573458895091631,
0.020149625935162094,-0.025730391911442656,
0.020199501246882794,-0.020205332653854623,
0.020249376558603493,-0.026648728423575282,
0.02029925187032419,-0.022390756631444318,
0.020349127182044888,-0.00628292741982546,
0.020399002493765587,-0.035698226577563136,
0.020448877805486283,-0.019009266208915816,
0.02049875311720698,-0.03751810043323187,
0.02054862842892768,-0.007313141437737298,
0.02059850374064838,-0.011931790951756758,
0.020648379052369076,0.005381828598819034,
0.020698254364089775,-0.015515988383273612,
0.020748129675810474,-0.03003543813378566,
0.020798004987531173,-0.006160536696881191,
0.02084788029925187,-0.03047124948217534,
0.020897755610972568,-0.030868987249699362,
0.020947630922693267,-0.01731499978210703,
0.020997506234413967,0.0006549276355137836,
0.021047381546134662,-0.02437225706852813,
0.02109725685785536,-0.027038859349390133,
0.02114713216957606,-0.0005847700856283396,
0.02119700748129676,-0.01622537049865781,
0.021246882793017455,-0.0092813574713363,
0.021296758104738155,-0.04272594982164786,
0.021346633416458854,-0.020643298009935602,
0.02139650872817955,-0.015085246211117698,
0.02144638403990025,-0.04648929597976443,
0.021496259351620948,-0.02332464151124536,
0.021546134663341647,-0.004644023651698397,
0.021596009975062343,-0.01645634429583238,
0.021645885286783042,-0.03964352193637452,
0.02169576059850374,-0.014162877567847376,
0.02174563591022444,-0.009483413565170361,
0.021795511221945136,0.00699883082626079,
0.021845386533665835,-0.031574718525928955,
0.021895261845386534,0.00015950277346429842,
0.021945137157107233,-0.015092894201544733,
0.02199501246882793,-0.024130096777080754,
0.02204488778054863,-0.021081607512265167,
0.022094763092269327,-0.024874190122852365,
0.022144638403990027,-0.015922234877005215,
0.022194513715710722,-0.0038119653659102037,
0.02224438902743142,-0.025442570789419326,
0.02229426433915212,-0.0009804531672528774,
0.022344139650872816,-0.006493088880236416,
0.022394014962593516,-0.012179213624878463,
0.022443890274314215,-0.03361548182017539,
0.022493765586034914,-0.009061113500199553,
0.02254364089775561,-0.004335888283016721,
0.02259351620947631,-0.016505408136633638,
0.022643391521197008,-0.007407268257389249,
0.022693266832917707,-0.002746328999687981,
0.022743142144638403,-0.02262606710648371,
0.022793017456359102,-0.021992785296788872,
0.0228428927680798,-0.014882188464079132,
0.0228927680798005,-0.008064791292030544,
0.022942643391521196,0.011621863721609385,
0.022992518703241895,-0.011167518944722213,
0.023042394014962594,0.009625687138766678,
0.02309226932668329,-0.002478690307225591,
0.02314214463840399,0.0024922646066760836,
0.02319201995012469,-0.015990865959120994,
0.023241895261845388,-0.029201770111940657,
0.023291770573566083,-0.009885088283062815,
0.023341645885286783,0.025399969161913186,
0.02339152119700748,-0.01027409120043159,
0.02344139650872818,-0.0024882841355408775,
0.023491271820448877,-0.02006597896483995,
0.023541147132169576,-0.010638904539925473,
0.023591022443890275,0.003568654863585194,
0.023640897755610974,-0.035382866140035316,
0.02369077306733167,-0.006873824280928997,
0.02374064837905237,-0.006710200862909504,
0.023790523690773068,-0.028071606155717285,
0.023840399002493767,-0.008268416847853462,
0.023890274314214463,0.041944808877572966,
0.023940149625935162,-0.025424421953251647,
0.02399002493765586,-0.014851612437739557,
0.024039900249376557,-0.0027727869244352126,
0.024089775561097256,0.005919817766394707,
0.024139650872817955,-0.02775633694152163,
0.024189526184538655,0.011240381494113594,
0.02423940149625935,-0.00498624769194784,
0.02428927680798005,0.012682580528628602,
0.02433915211970075,-0.005800698302058406,
0.024389027431421448,-0.011156984445812458,
0.024438902743142144,-0.016381122594669922,
0.024488778054862843,-0.012507356505003493,
0.024538653366583542,0.012923219684464766,
0.02458852867830424,-0.002168993460526696,
0.024638403990024937,-0.020887143980767575,
0.024688279301745636,0.00922330855767553,
0.024738154613466335,0.006774476303891976,
0.02478802992518703,-0.009816504354341515,
0.02483790523690773,-0.009565426541577821,
0.02488778054862843,0.002364068343250662,
0.02493765586034913,0.006632907425712136,
0.024987531172069824,-0.01873376415011763,
0.025037406483790523,0.00015964648763335188,
0.025087281795511222,-0.013117435714702023,
0.02513715710723192,0.015536633392863325,
0.025187032418952617,-0.00477959325940858,
0.025236907730673316,0.015467177766856285,
0.025286783042394016,-0.004176005595589936,
0.025336658354114715,0.001975518338050514,
0.02538653366583541,-0.008833487280430078,
0.02543640897755611,0.007413785276844236,
0.02548628428927681,-0.003975912316942468,
0.025536159600997508,0.0017072327220284235,
0.025586034912718204,0.01708104805215678,
0.025635910224438903,0.003749236543902117,
0.025685785536159602,0.011483930157128626,
0.025735660847880298,-0.02867302918864724,
0.025785536159600997,0.016374423915701743,
0.025835411471321696,-0.008821669805560173,
0.025885286783042395,-0.033146656248866646,
0.02593516209476309,0.0038554544582377077,
0.02598503740648379,-0.023629718886779574,
0.02603491271820449,-0.015229909625847658,
0.02608478802992519,0.039449090291741644,
0.026134663341645884,0.005608320335474641,
0.026184538653366583,0.012479983453849285,
0.026234413965087282,0.023553734437031598,
0.02628428927680798,0.01717422709118864,
0.026334164588528677,0.010789556534305363,
0.026384039900249377,0.03225359643320952,
0.026433915211970076,-0.023664358530360623,
0.02648379052369077,0.02178649595348677,
0.02653366583541147,0.03668899724171255,
0.02658354114713217,0.03247955117447554,
0.02663341645885287,0.006062299684611953,
0.026683291770573565,-0.005733497541411631,
0.026733167082294264,0.002084635104188633,
0.026783042394014963,0.03053821077151509,
0.026832917705735662,-0.026554986863605936,
0.026882793017456358,0.006352584661616272,
0.026932668329177057,0.014352429810925006,
0.026982543640897756,-0.009696742276638054,
0.027032418952618455,0.016722125145180684,
0.02708229426433915,0.018392455756448767,
0.02713216957605985,-0.0198965465442236,
0.02718204488778055,0.01272119056723696,
0.02723192019950125,0.023186391269519054,
0.027281795511221944,0.022485726009647808,
0.027331670822942643,0.02028428959740388,
0.027381546134663343,0.00467032195605065,
0.02743142144638404,-0.006449507601339725,
0.027481296758104738,0.019699954772321896,
0.027531172069825437,-0.005124490274329305,
0.027581047381546136,0.0031418931091985857,
0.02763092269326683,0.010692563112579767,
0.02768079800498753,0.01897114554633181,
0.02773067331670823,0.0008528613403576309,
0.02778054862842893,0.044493485815112754,
0.027830423940149625,0.0020813732225649414,
0.027880299251870324,0.04477242462834907,
0.027930174563591023,0.029802490866187643,
0.027980049875311722,0.020668560915318115,
0.028029925187032418,0.037789200801245745,
0.028079800498753117,0.017684218171133925,
0.028129675810473816,0.009500634752726368,
0.028179551122194512,0.014012465591212274,
0.02822942643391521,0.0025040771628717963,
0.02827930174563591,-0.0006947662738278106,
0.02832917705735661,0.04173089571538468,
0.028379052369077305,0.022263488258117962,
0.028428927680798004,0.03217129350034147,
0.028478802992518704,-0.0012909471333975853,
0.028528678304239403,0.025399572988958265,
0.0285785536159601,0.010811446144845846,
0.028628428927680798,0.015999996132748773,
0.028678304239401497,0.02461754256830982,
0.028728179551122196,0.030136032771801352,
0.02877805486284289,0.010922370968441876,
0.02882793017456359,0.007326294149671732,
0.02887780548628429,0.03350955821419861,
0.02892768079800499,0.009654276565478976,
0.028977556109725685,-0.0015996580267913126,
0.029027431421446384,-0.004914432564482107,
0.029077306733167083,0.02614500142713396,
0.02912718204488778,0.027660687820555616,
0.029177057356608478,0.014818790008713683,
0.029226932668329177,0.01725716151628956,
0.029276807980049877,0.02146009847305582,
0.029326683291770572,0.028547102109881692,
0.02937655860349127,0.0053873193682748635,
0.02942643391521197,0.03256748333556855,
0.02947630922693267,0.00883906020361971,
0.029526184538653365,0.03209892650077166,
0.029576059850374065,0.02685569155100176,
0.029625935162094764,0.02736049560056308,
0.029675810473815463,0.025330927348681753,
0.02972568578553616,0.025653384057561537,
0.029775561097256858,0.029174779234285304,
0.029825436408977557,0.0333688964668779,
0.029875311720698253,0.02960617177898625,
0.029925187032418952,0.04051830945373956,
0.02997506234413965,0.016745865539643672,
0.03002493765586035,0.032337820843121326,
0.030074812967581046,0.04642096349915352,
0.030124688279301745,0.040063699920789946,
0.030174563591022444,0.011345610087767723,
0.030224438902743143,0.036666812125048714,
0.03027431421446384,-0.003207986195281877,
0.03032418952618454,0.025044529642934705,
0.030374064837905237,0.018633975355671375,
0.030423940149625937,0.00618804332381525,
0.030473815461346632,0.011011904837580846,
0.03052369077306733,0.03811931910034118,
0.03057356608478803,-0.0066342305562218755,
0.03062344139650873,0.02710214226946575,
0.030673316708229426,0.02672696721218218,
0.030723192019950125,0.028463913721032245,
0.030773067331670824,0.028685912548868514,
0.03082294264339152,0.051206379795500676,
0.03087281795511222,0.03837468814468664,
0.030922693266832918,0.04686315305495703,
0.030972568578553617,0.021281680162671932,
0.031022443890274313,0.00574979269877746,
0.031072319201995012,0.015819837967015114,
0.03112219451371571,0.016239610787273706,
0.03117206982543641,0.023244814952510254,
0.031221945137157106,0.02190664826313049,
0.03127182044887781,0.015581859279708093,
0.031321695760598504,0.04422182245775974,
0.0313715710723192,0.030261685069732026,
0.0314214463840399,0.009094941091873589,
0.0314713216957606,0.050209168621144454,
0.031521197007481294,0.023992821654418888,
0.031571072319202,0.009592152352417142,
0.03162094763092269,-0.006605690866074557,
0.03167082294264339,0.008008951923680053,
0.03172069825436409,0.00556580995624157,
0.03177057356608479,-0.004684896033197876,
0.03182044887780549,0.07991715950194367,
0.031870324189526185,0.0568803180713606,
0.03192019950124688,0.013077028009742375,
0.03197007481296758,0.015682760635152334,
0.03201995012468828,0.037308163138263725,
0.032069825436408975,0.011130090536972854,
0.03211970074812968,0.0022257689481126643,
0.03216957605985037,0.02968383029666543,
0.032219451371571076,0.0029759470680665798,
0.03226932668329177,-0.0019854889528963075,
0.03231920199501247,0.013722067610271046,
0.03236907730673317,0.010697130619215484,
0.032418952618453865,0.01678419198697024,
0.03246882793017456,0.038139507735439726,
0.032518703241895264,0.02578056457894886,
0.03256857855361596,0.010181922036199728,
0.032618453865336655,-0.0006984220136466955,
0.03266832917705736,0.01860364380022107,
0.032718204488778053,-0.0011861489651147257,
0.032768079800498756,0.02375701120675805,
0.03281795511221945,-0.004670551136949818,
0.03286783042394015,0.026019713875242774,
0.03291770573566085,0.005211916043772661,
0.032967581047381546,0.03874513633030469,
0.03301745635910224,0.02877367613711013,
0.033067331670822944,0.01853115208028059,
0.03311720698254364,0.008020566614577021,
0.03316708229426434,-0.015860773067162902,
0.03321695760598504,0.026123982471037963,
0.033266832917705734,0.001635329675476225,
0.03331670822942644,0.021453178257835385,
0.03336658354114713,0.0008964192187964001,
0.03341645885286783,0.008810059740350394,
0.03346633416458853,0.013272898461338908,
0.033516209476309226,0.006296205698624052,
0.03356608478802992,-0.003683346126767382,
0.033615960099750625,0.006297328773959105,
0.03366583541147132,0.018414831710490777,
0.03371571072319202,0.02368151976112174,
0.03376558603491272,0.010482130187539844,
0.033815461346633414,0.01815016128945376,
0.03386533665835412,0.01690616227697079,
0.03391521197007481,0.021086273402894172,
0.03396508728179551,0.027820728443506006,
0.03401496259351621,0.003748771047484183,
0.03406483790523691,0.045667686492853535,
0.0341147132169576,0.018507920348488884,
0.034164588528678305,-0.0038288078755104194,
0.034214463840399,-0.0021837685552875095,
0.034264339152119704,0.018336500587271043,
0.0343142144638404,0.014836253082491516,
0.034364089775561095,-0.0015404203981779392,
0.0344139650872818,0.005157378300951124,
0.03446384039900249,0.02763237343257407,
0.03451371571072319,-0.006225523619082116,
0.03456359102244389,-0.006841520840706583,
0.03461346633416459,0.026855161229758,
0.03466334164588529,0.0031153594495676147,
0.034713216957605986,-0.008924708758527303,
0.03476309226932668,0.011264058305316134,
0.034812967581047384,0.00947240264295561,
0.03486284289276808,0.007255268489436286,
0.034912718204488775,0.004695623780034158,
0.03496259351620948,0.01884707687245161,
0.035012468827930174,0.010981080725691674,
0.03506234413965087,0.002522531574131919,
0.03511221945137157,-0.007322971111479535,
0.03516209476309227,0.010234868473011655,
0.03521197007481297,-0.005280769093374273,
0.035261845386533666,0.007954582512646361,
0.03531172069825436,-0.026170812042416468,
0.035361596009975065,-0.0019455197545276016,
0.03541147132169576,0.022626878217258502,
0.035461346633416456,-0.0038834917691353823,
0.03551122194513716,0.008169862200604151,
0.035561097256857854,-0.022436382965120787,
0.03561097256857856,0.006325718339544517,
0.03566084788029925,-0.017234780905057135,
0.03571072319201995,-0.0028274167961861866,
0.03576059850374065,0.006487569050459439,
0.03581047381546135,-0.015589964652993898,
0.03586034912718204,0.003949304514189371,
0.035910224438902745,0.011959224010030934,
0.03596009975062344,-0.0016222456202757236,
0.036009975062344136,0.012462407091062019,
0.03605985037406484,-0.016639577231538416,
0.036109725685785535,-0.02482133414920345,
0.03615960099750624,-0.0169954752560193,
0.03620947630922693,0.015335285662683305,
0.03625935162094763,0.00247167326387215,
0.03630922693266833,-0.03181248209737397,
0.03635910224438903,0.008877729159299701,
0.03640897755610972,0.00034447408593093424,
0.036458852867830426,0.012538895298823311,
0.03650872817955112,-0.002886618057518692,
0.036558603491271824,0.003962151112245193,
0.03660847880299252,-0.025984204709878826,
0.036658354114713215,0.01159336877970195,
0.03670822942643392,-0.018800744982774863,
0.036758104738154614,-0.028840142486697133,
0.03680798004987531,-0.02014228883762169,
0.03685785536159601,0.009122730999643936,
0.03690773067331671,-0.01102103463390898,
0.0369576059850374,-0.014450935412449618,
0.037007481296758106,0.0035338524436902352,
0.0370573566084788,-0.006201284224268093,
0.037107231920199504,0.01821677761913888,
0.0371571072319202,-0.014913545706096598,
0.037206982543640896,-0.017851800377169554,
0.0372568578553616,-0.023635836604075377,
0.037306733167082294,-0.0130905793030788,
0.03735660847880299,-0.014287370135782849,
0.03740648379052369,0.005515457036762707,
0.03745635910224439,-0.010082142562006959,
0.037506234413965084,-0.016205778493216794,
0.037556109725685786,-0.031024437849050384,
0.03760598503740648,-0.013949000735531231,
0.037655860349127185,-0.018050370876426625,
0.03770573566084788,0.0016624360456339669,
0.037755610972568576,-0.002112505469810776,
0.03780548628428928,-0.004101390762798509,
0.037855361596009975,-0.02310590229724751,
0.03790523690773067,-0.0031959131465129093,
0.03795511221945137,-0.003140093521547453,
0.03800498753117207,-0.03885920329883937,
0.03805486284289277,-0.00230970206723498,
0.03810473815461347,-0.033244469148875654,
0.03815461346633416,-0.021897948353306274,
0.038204488778054865,-0.013827646062722134,
0.03825436408977556,-0.0044937305536962395,
0.03830423940149626,-0.02512092758382397,
0.03835411471321696,-0.023542392605389078,
0.038403990024937655,-0.015521224765603827,
0.03845386533665835,-0.0036512044794677137,
0.03850374064837905,-0.040146598623777764,
0.03855361596009975,-0.0150830054030827,
0.03860349127182045,-0.00870468430019413,
0.03865336658354115,-0.02908642704407816,
0.03870324189526184,0.0003680881209467222,
0.038753117206982546,-0.02839086716898606,
0.03880299251870324,-0.013715977204587273,
0.03885286783042394,-0.005146819679279711,
0.03890274314214464,-0.003314831711333101,
0.038952618453865336,-0.01739421090684182,
0.03900249376558604,-0.024077760386052055,
0.039052369077306734,-0.018901987444936395,
0.03910224438902743,-0.0032148668869896296,
0.03915211970074813,-0.006201500529372033,
0.03920199501246883,-0.007255133354957951,
0.039251870324189524,0.004707329681784958,
0.039301745635910226,-0.006421906319240956,
0.03935162094763092,-0.018876592492589397,
0.03940149625935162,-0.006428317660471019,
0.03945137157107232,-0.02385572962175226,
0.039501246882793016,-0.02681609464206396,
0.03955112219451372,-0.04183534418355994,
0.039600997506234414,-0.007273922004345271,
0.03965087281795511,-0.03167054741067771,
0.03970074812967581,-0.017589920431988215,
0.03975062344139651,-0.03716282461454429,
0.039800498753117204,-0.028966656774093102,
0.03985037406483791,0.009665747296822444,
0.0399002493765586,-0.019278123340520353,
0.039950124688279305,-0.016074122834116796,
0.04,-0.024391889326208598,
0.0400498753117207,-0.01817996717075574,
0.0400997506234414,-0.028856582233738073,
0.040149625935162095,-0.0017815552416394105,
0.04019950124688279,-0.03088497654225418,
0.04024937655860349,-0.023536107665641556,
0.04029925187032419,-0.032155683829818996,
0.040349127182044885,-0.025958121138591805,
0.04039900249376559,-0.02490525386486918,
0.04044887780548628,-0.0055504772322087035,
0.040498753117206986,0.005984277873771933,
0.04054862842892768,-0.029726703183003297,
0.04059850374064838,-0.021427708874053625,
0.04064837905236908,0.020613545559300974,
0.040698254364089775,0.002530115042884303,
0.04074812967581047,-0.003718227107087947,
0.040798004987531174,0.016869982559595934,
0.04084788029925187,-0.02179121285808075,
0.040897755610972565,-0.008036218060805825,
0.04094763092269327,-0.017459953462456837,
0.04099750623441396,-0.0021771527332717054,
0.041047381546134666,-0.022431971845456675,
0.04109725685785536,0.0016670668385712455,
0.04114713216957606,-0.004915026181336936,
0.04119700748129676,-0.01608902714080796,
0.041246882793017456,-0.021379856596686342,
0.04129675810473815,-0.004497396289816883,
0.041346633416458854,-0.0015039935054883304,
0.04139650872817955,-0.011212019358050503,
0.04144638403990025,-0.012842105081015099,
0.04149625935162095,-0.04038260799040603,
0.041546134663341644,-0.008304610759388318,
0.04159600997506235,-0.016397326434680545,
0.04164588528678304,0.009498694784542289,
0.04169576059850374,-0.020671663129175753,
0.04174563591022444,-0.018919180764786787,
0.041795511221945136,-0.009294074911907452,
0.04184538653366583,0.003560603528703195,
0.041895261845386535,-0.015023997443090352,
0.04194513715710723,-0.008489606957662012,
0.04199501246882793,0.006430231157362206,
0.04204488778054863,-0.007109925852346003,
0.042094763092269324,-0.027512315579382284,
0.04214463840399003,-0.020146638128267697,
0.04219451371571072,-0.007559087765498752,
0.04224438902743142,-0.00501327546056452,
0.04229426433915212,-0.002224166531536745,
0.04234413965087282,-0.02500887943215645,
0.04239401496259352,-0.013291475187937333,
0.042443890274314215,0.0024180148805312916,
0.04249376558603491,-0.016845014282077457,
0.042543640897755614,-0.005926602212193048,
0.04259351620947631,-0.009690795348372467,
0.042643391521197005,-0.01412393420467296,
0.04269326683291771,-0.0048410899599564735,
0.0427431421446384,-0.006914118321618671,
0.0427930174563591,-0.011878163414130925,
0.0428428927680798,-0.02474072061047284,
0.0428927680798005,-0.0059124287087049,
0.0429426433915212,-0.01832312080179249,
0.042992518703241896,-0.013235137911897347,
0.04304239401496259,-0.020795573730070682,
0.043092269326683294,-0.009512026113624405,
0.04314214463840399,0.021383765203689564,
0.043192019950124685,-0.03271577107749094,
0.04324189526184539,-0.005841796913759223,
0.043291770573566084,-0.012164716153432703,
0.043341645885286786,0.012328340451013341,
0.04339152119700748,0.0024796456856069557,
0.04344139650872818,-0.007951646574013697,
0.04349127182044888,-4.0634807616879084e-05,
0.043541147132169576,0.006527932165027112,
0.04359102244389027,-0.01286637474894553,
0.043640897755610975,0.00870791518852746,
0.04369077306733167,-0.021623013884505576,
0.043740648379052366,-0.0038665075812688,
0.04379052369077307,-0.010425225199322381,
0.043840399002493764,0.008760719766806358,
0.04389027431421447,-0.0042072992261829615,
0.04394014962593516,-0.01794550183978254,
0.04399002493765586,-0.00815334306876183,
0.04403990024937656,0.001898074671883747,
0.04408977556109726,-0.02405796977641058,
0.04413965087281795,1.1643302713716924e-05,
0.044189526184538655,-0.014453124354028006,
0.04423940149625935,-0.003997094326465558,
0.04428927680798005,-0.010116329845399206,
0.04433915211970075,0.012523819613797704,
0.044389027431421445,0.0007225099017325416,
0.04443890274314215,0.010262250169595467,
0.04448877805486284,-0.01958912116347638,
0.04453865336658354,-0.04056835577821798,
0.04458852867830424,0.019636372326605214,
0.04463840399002494,0.0011749342566198854,
0.04468827930174563,-0.02274880652729755,
0.044738154613466335,-0.013132503390585411,
0.04478802992518703,-0.009526142153033865,
0.044837905236907734,-0.0298423731417429,
0.04488778054862843,-0.024380050207002027,
0.044937655860349125,-0.005484922690279268,
0.04498753117206983,0.01478766828544238,
0.045037406483790524,0.017412158710593702,
0.04508728179551122,-0.007246330151341862,
0.04513715710723192,0.04033943732861008,
0.04518703241895262,-0.022155683431014345,
0.04523690773067331,-0.0048756549900247255,
0.045286783042394016,0.014375716684938412,
0.04533665835411471,-0.00644699826100904,
0.045386533665835414,-0.004902679869000083,
0.04543640897755611,0.021614366504664875,
0.045486284289276806,0.022401441954090065,
0.04553615960099751,-0.015619617469375692,
0.045586034912718204,0.019361210787848783,
0.0456359102244389,-0.003949676318057282,
0.0456857855361596,0.023955317764265703,
0.0457356608478803,0.022640852444563656,
0.045785536159601,0.009424847346739089,
0.045835411471321696,-0.00266298991884597,
0.04588528678304239,-0.015250959083423709,
0.045935162094763095,0.00731464532780617,
0.04598503740648379,0.0026047159270252895,
0.046034912718204486,0.021111126716872514,
0.04608478802992519,0.028143663215591228,
0.046134663341645885,0.02345634244467932,
0.04618453865336658,-0.0031026499866964093,
0.04623441396508728,0.013921403851954476,
0.04628428927680798,0.0011353274021216383,
0.04633416458852868,0.023058054673780103,
0.04638403990024938,-0.011991231463330736,
0.04643391521197007,-0.004063461254608507,
0.046483790523690775,0.021069926978147947,
0.04653366583541147,0.041226671328328406,
0.04658354114713217,0.0277307048183994,
0.04663341645885287,0.029531707948865747,
0.046683291770573565,-0.02128274032343211,
0.04673316708229427,0.029951801032359268,
0.04678304239401496,0.0199695153529307,
0.04683291770573566,0.008487488102996404,
0.04688279301745636,0.02147763392541706,
0.04693266832917706,0.025198436045335143,
0.04698254364089775,0.00920784964909738,
0.047032418952618456,0.013834861850886266,
0.04708229426433915,0.028336090980652005,
0.04713216957605985,0.016065018518222268,
0.04718204488778055,0.010820582678452526,
0.047231920199501246,0.025575468873803717,
0.04728179551122195,0.010876993335490082,
0.047331670822942644,0.01993212604465032,
0.04738154613466334,-0.00931190634884475,
0.04743142144638404,-0.004400907476478453,
0.04748129675810474,0.02580416782766949,
0.047531172069825434,0.03026001307988061,
0.047581047381546136,0.01562009828018913,
0.04763092269326683,0.022314984649059854,
0.047680798004987535,0.02538195231816095,
0.04773067331670823,0.028187865928339058,
0.047780548628428926,0.0127555835319405,
0.04783042394014963,0.019328484585380497,
0.047880299251870324,0.023783937798988075,
0.04793017456359102,0.03795243528757321,
0.04798004987531172,0.04138137090799918,
0.04802992518703242,0.013840301305410878,
0.048079800498753114,0.009858642239100778,
0.04812967581047382,0.039352820494836654,
0.04817955112219451,0.01314775840028241,
0.048229426433915215,0.027711654136543487,
0.04827930174563591,-0.0007117308964858446,
0.048329177057356607,0.03549633922152088,
0.04837905236907731,0.0314797636003231,
0.048428927680798005,0.017348142514615077,
0.0484788029925187,-0.0011833047283466812,
0.0485286783042394,0.024967023418183923,
0.0485785536159601,-0.012762109560108106,
0.048628428927680795,0.01199277153809132,
0.0486783042394015,0.017888145421074475,
0.04872817955112219,0.02869803236336051,
0.048778054862842896,0.02100026237676251,
0.04882793017456359,0.03835467855805093,
0.04887780548628429,0.045273469450420004,
0.04892768079800499,0.0287725114037053,
0.048977556109725685,0.010548962064576693,
0.04902743142144638,0.010583154783022655,
0.049077306733167084,0.01627903308266569,
0.04912718204488778,0.02314029221735307,
0.04917705735660848,0.030957224051438595,
0.04922693266832918,0.0025915484330535123,
0.04927680798004987,0.004203949224389273,
0.049326683291770576,0.04699397363560647,
0.04937655860349127,0.01620731441945826,
0.04942643391521197,0.0064035538393308195,
0.04947630922693267,0.03347978746989496,
0.049526184538653366,0.021707239392463537,
0.04957605985037406,0.033028174354611355,
0.049625935162094764,0.04515280223318385,
0.04967581047381546,0.028359790949603347,
0.04972568578553616,0.02841370999134593,
0.04977556109725686,0.04752771894446766,
0.049825436408977554,0.07303192918591828,
0.04987531172069826,0.012186636586633498,
0.04992518703241895,0.043091824958028595,
0.04997506234413965,0.045640667214214274,
0.05002493765586035,0.005327808966444501,
0.050074812967581046,0.017803030960890365,
0.05012468827930175,0.03759625361701799,
0.050174563591022445,0.0393975734331049,
0.05022443890274314,0.033181836743092545,
0.05027431421446384,0.02028513292357946,
0.05032418952618454,0.047848563926985395,
0.050374064837905234,-0.004592477361554163,
0.05042394014962594,0.015774395640007294,
0.05047381546134663,0.034367019768566556,
0.05052369077306733,0.019730132028063375,
0.05057356608478803,0.021675757759563853,
0.05062344139650873,0.0005020831822944057,
0.05067331670822943,0.029596112823796206,
0.050723192019950125,0.012780280445412517,
0.05077306733167082,0.01588125550583475,
0.050822942643391524,0.020349501566160662,
0.05087281795511222,0.02442904183488976,
0.050922693266832915,0.04742543974563962,
0.05097256857855362,0.023936734186379233,
0.05102244389027431,0.010311199919809944,
0.051072319201995016,-0.007354499145253407,
0.05112219451371571,0.05035647076803379,
0.05117206982543641,0.014264206724904298,
0.05122194513715711,0.019460710980636894,
0.051271820448877806,0.005875071967885587,
0.0513216957605985,0.029773249468451002,
0.051371571072319204,0.010670964759245286,
0.0514214463840399,0.020897539411372297,
0.051471321695760595,0.04325785905546965,
0.0515211970074813,0.014982173972205477,
0.051571072319201994,0.048570960205351996,
0.051620947630922696,0.011260210723238448,
0.05167082294264339,0.010019967069718555,
0.05172069825436409,0.022321595246942705,
0.05177057356608479,0.027071933477006375,
0.051820448877805486,0.048895201760351885,
0.05187032418952618,-0.0012813767837953523,
0.051920199501246884,-0.0029968735853211255,
0.05197007481296758,0.004329792439040608,
0.052019950124688276,0.01755030975497393,
0.05206982543640898,0.009897916786900687,
0.052119700748129674,0.007883432082223807,
0.05216957605985038,0.034589142447793396,
0.05221945137157107,0.009645707353522003,
0.05226932668329177,-0.002240072001312713,
0.05231920199501247,0.029454473851176385,
0.05236907730673317,0.0376620269818923,
0.05241895261845386,0.028327282982104816,
0.052468827930174565,0.007777625659781394,
0.05251870324189526,0.030616411044352178,
0.05256857855361596,0.010088957176873744,
0.05261845386533666,0.02057053132238847,
0.052668329177057355,0.0317208059806739,
0.05271820448877806,0.035035728063094615,
0.05276807980049875,0.005246950131239929,
0.05281795511221945,0.015658021583024737,
0.05286783042394015,0.0011920196644440752,
0.05291770573566085,0.020252577320621013,
0.05296758104738154,0.007080808828707333,
0.053017456359102245,-0.001776216172554787,
0.05306733167082294,0.01814980647431737,
0.053117206982543644,0.02211540595703522,
0.05316708229426434,0.03596854935963993,
0.053216957605985035,0.003916882686283851,
0.05326683291770574,0.028768285927162962,
0.053316708229426434,0.03585107375072117,
0.05336658354114713,0.022412485577779865,
0.05341645885286783,0.017962537009745084,
0.05346633416458853,0.017992883544973685,
0.05351620947630923,0.003421898948188111,
0.053566084788029926,-0.03200206259691465,
0.05361596009975062,-0.008482055265825406,
0.053665835411471324,0.028682215257995313,
0.05371571072319202,0.05201267122859894,
0.053765586034912716,0.02434123965141053,
0.05381546134663342,0.030422996857320705,
0.053865336658354114,0.004919847814203191,
0.05391521197007481,-0.04299537205374753,
0.05396508728179551,0.018344908307569584,
0.05401496259351621,-0.011245648581373287,
0.05406483790523691,0.009045548589250534,
0.054114713216957606,0.00687157689872186,
0.0541645885286783,0.011468715374014707,
0.054214463840399005,0.021610472737568553,
0.0542643391521197,0.014383816008851715,
0.054314214463840396,0.0069710280312180045,
0.0543640897755611,0.021921318750906284,
0.054413965087281795,-0.024685086088061158,
0.0544638403990025,0.0035415663897654694,
0.05451371571072319,-0.0227050593953887,
0.05456359102244389,-0.009932773131900535,
0.05461346633416459,-0.010631944587238224,
0.05466334164588529,0.004146225622736211,
0.05471321695760598,-0.001286059437027037,
0.054763092269326685,0.01291493648008847,
0.05481296758104738,0.0003262018602890014,
0.05486284289276808,-0.0062998515550812244,
0.05491271820448878,-0.0068947287207099806,
0.054962593516209475,0.011792038631055329,
0.05501246882793018,0.014657829189953689,
0.05506234413965087,-0.010978905371528206,
0.05511221945137157,-0.005592642091189173,
0.05516209476309227,0.026412837013377637,
0.05521197007481297,-0.01801732753009806,
0.05526184538653366,-0.007478672670750114,
0.055311720698254366,-0.009628778595385268,
0.05536159600997506,0.006201785972340064,
0.05541147132169576,-0.008733140216758539,
0.05546134663341646,-0.003688313691525346,
0.055511221945137156,0.012664266747466763,
0.05556109725685786,-0.013206829379679258,
0.055610972568578554,0.016234698979974524,
0.05566084788029925,0.014038204741529262,
0.05571072319201995,0.00830680681206077,
0.05576059850374065,0.003390977202644065,
0.055810473815461344,0.004486178466032837,
0.055860349127182046,0.0021558353015232053,
0.05591022443890274,0.007998456284534348,
0.055960099750623445,0.02621107749424223,
0.05600997506234414,-0.009646643727357154,
0.056059850374064836,-0.003141903101461253,
0.05610972568578554,-0.0056196062516055065,
0.056159600997506234,0.001738673378928576,
0.05620947630922693,-0.009241795179722866,
0.05625935162094763,0.011188323262918458,
0.05630922693266833,0.00045926075456921697,
0.056359102244389024,-0.006314298361830796,
0.05640897755610973,-0.011401471703055884,
0.05645885286783042,-0.006826648512578582,
0.056508728179551125,0.023432806851329577,
0.05655860349127182,-0.002308952992504664,
0.056608478802992516,-0.009685886103503403,
0.05665835411471322,-0.013233460473843328,
0.056708229426433915,-0.021698302763603905,
0.05675810473815461,0.002218832323069012,
0.05680798004987531,0.00619810206490618,
0.05685785536159601,-0.01578703683511294,
0.05690773067331671,-0.03232188028491163,
0.05695760598503741,0.009383286240465152,
0.0570074812967581,-0.012413267267832855,
0.057057356608478806,0.00911286144242151,
0.0571072319201995,-0.013302087233983576,
0.0571571072319202,-0.0027069340543737722,
0.0572069825436409,-0.018485512314913806,
0.057256857855361595,0.0028214586088829924,
0.05730673316708229,-0.0381975676583985,
0.057356608478802994,-0.013446782337719433,
0.05740648379052369,-0.001666959098652109,
0.05745635910224439,-0.0013489158160206738,
0.05750623441396509,-0.008414056171016274,
0.05755610972568578,-0.033290760952600834,
0.057605985037406486,-0.01609966499454752,
0.05765586034912718,-0.0032615170644884808,
0.05770573566084788,-0.009394261275543188,
0.05775561097256858,-0.011514957386474307,
0.057805486284289276,-0.0006155082483669007,
0.05785536159600998,0.00875631295117729,
0.057905236907730674,-0.01795007982356965,
0.05795511221945137,-0.013251889685662965,
0.05800498753117207,-0.0076469874071745545,
0.05805486284289277,0.024538780159714592,
0.058104738154613464,0.013436786333511362,
0.05815461346633417,0.013092527841287569,
0.05820448877805486,-0.014725157238591961,
0.05825436408977556,-0.020823058560478308,
0.05830423940149626,-0.00876607832396957,
0.058354114713216956,-0.0027979637412866108,
0.05840399002493766,-0.04088112330603931,
0.058453865336658355,-0.009735101427277772,
0.05850374064837905,-0.0032765991184834677,
0.05855361596009975,-0.027128166769861017,
0.05860349127182045,-0.005186504461850719,
0.058653366583541144,-0.0162378343624063,
0.05870324189526185,-0.0033372693182361496,
0.05875311720698254,-0.00021469721772108402,
0.05880299251870324,-0.012725801850475735,
0.05885286783042394,-0.039818529550271875,
0.05890274314214464,-0.011851339687190952,
0.05895261845386534,-0.018233670288920364,
0.059002493765586035,0.0001498055305864509,
0.05905236907730673,-0.018192955960428553,
0.059102244389027433,0.005917445562432719,
0.05915211970074813,-0.012729755865014784,
0.059201995012468825,-0.028066241163687153,
0.05925187032418953,0.0033114620373847735,
0.05930174563591022,-0.02537445625065996,
0.059351620947630926,0.0017927741595781983,
0.05940149625935162,-0.0028495205585289812,
0.05945137157107232,0.0026870098146971333,
0.05950124688279302,-0.02311113752915133,
0.059551122194513716,-0.03020901042363442,
0.05960099750623441,0.005843728423615201,
0.059650872817955114,-0.017198413093746055,
0.05970074812967581,-0.020224401411382164,
0.059750623441396505,-0.013461201746618204,
0.05980049875311721,-0.015520605607533919,
0.059850374064837904,0.002769249881988744,
0.059900249376558606,-0.03162395428748295,
0.0599501246882793,-0.01978563607577314,
0.06,-0.028920177551289936,
0.0600498753117207,-0.03362302239715947,
0.060099750623441396,-0.020423899792524923,
0.06014962593516209,-0.004488192809488542,
0.060199501246882794,-0.014996379591243817,
0.06024937655860349,-0.013884497197893475,
0.06029925187032419,-0.003163025614668736,
0.06034912718204489,0.001218018827126053,
0.060399002493765584,-0.014012545024241221,
0.06044887780548629,-0.021094220574599636,
0.06049875311720698,-0.04371199989720935,
0.06054862842892768,-0.0124501878101505,
0.06059850374064838,0.0007685432615064727,
0.06064837905236908,-0.018967880592222267,
0.06069825436408977,-0.004356475977208663,
0.060748129675810475,-0.012189572137808708,
0.06079800498753117,-0.017262236590565597,
0.06084788029925187,-0.04039889913853841,
0.06089775561097257,-0.007021934592589813,
0.060947630922693265,-0.017049310702967526,
0.06099750623441397,-0.023374005344295734,
0.06104738154613466,-0.0003095535698354468,
0.06109725685785536,0.00763470201507954,
0.06114713216957606,-0.0120892229684339,
0.06119700748129676,-0.022287850183670365,
0.06124688279301746,-0.005113519277091914,
0.061296758104738155,-0.01168320325681953,
0.06134663341645885,-0.0130517381405475,
0.061396508728179554,-0.027892442814015504,
0.06144638403990025,-0.0205799139385874,
0.061496259351620945,0.00039475240479856094,
0.06154613466334165,-0.021162456068401968,
0.061596009975062344,-0.029831290531445308,
0.06164588528678304,-0.016500646425451997,
0.06169576059850374,-0.010301456895064204,
0.06174563591022444,-0.009554816752145076,
0.06179551122194514,-0.021413574501293296,
0.061845386533665836,-0.01434694157473974,
0.06189526184538653,-0.026953758566197267,
0.061945137157107234,-0.018924974148930615,
0.06199501246882793,-0.03288148259282807,
0.062044887780548626,-0.026300865121178886,
0.06209476309226933,-0.0032197079149133417,
0.062144638403990024,-0.02161422416280674,
0.06219451371571072,-0.020586024075075166,
0.06224438902743142,-0.003703583453645614,
0.06229426433915212,-0.016420382930468404,
0.06234413965087282,0.018940025488873927,
0.062394014962593516,-0.020566911451469744,
0.06244389027431421,-0.009741008728447246,
0.062493765586034915,-0.007898991057138267,
0.06254364089775562,0.006299404051205829,
0.06259351620947631,-0.029795392588036186,
0.06264339152119701,0.008745119513969037,
0.0626932668329177,-0.023298016843649773,
0.0627431421446384,-0.0008469214357574428,
0.0627930174563591,0.008862541838759277,
0.0628428927680798,0.000200805543964587,
0.0628927680798005,0.007190357111824839,
0.0629426433915212,-0.012111706240987606,
0.06299251870324189,0.0024563398674450586,
0.06304239401496259,0.006372409208426692,
0.0630922693266833,-0.010886743797481394,
0.063142144638404,-0.0249959253854581,
0.06319201995012469,0.006816569936865769,
0.06324189526184539,-0.025764081725913893,
0.06329177057356608,0.009304212060623544,
0.06334164588528678,-0.015689446956148736,
0.06339152119700749,-0.015221654855270291,
0.06344139650872818,0.00600543175822666,
0.06349127182044888,0.005872741059541045,
0.06354114713216957,-0.007540428400714989,
0.06359102244389027,-0.002003198638653569,
0.06364089775561098,-0.024502140623901915,
0.06369077306733167,0.014053985831386805,
0.06374064837905237,0.00036203804926720085,
0.06379052369077307,-0.008063847319837378,
0.06384039900249376,-0.01084253241512331,
0.06389027431421446,-0.015013407558283665,
0.06394014962593517,-0.02666959469934225,
0.06399002493765586,-0.007708008268065423,
0.06403990024937656,0.0016431809058388624,
0.06408977556109725,0.0053537335097656935,
0.06413965087281795,0.012881712649998513,
0.06418952618453866,-0.00391353481306757,
0.06423940149625935,0.00226036224091574,
0.06428927680798005,-0.008008541078879718,
0.06433915211970075,-0.004279870289798867,
0.06438902743142144,-0.03379059581699885,
0.06443890274314215,-0.012384195452375549,
0.06448877805486285,0.02475551587094233,
0.06453865336658354,-0.006129732002818932,
0.06458852867830424,0.02436176429616439,
0.06463840399002493,0.00696063118540422,
0.06468827930174563,-0.0035912262648140204,
0.06473815461346634,-0.036445981252189744,
0.06478802992518704,0.0005955919803784305,
0.06483790523690773,0.018166695230247974,
0.06488778054862843,0.016458385448779166,
0.06493765586034912,-0.006028871225307514,
0.06498753117206983,-0.023890576320561432,
0.06503740648379053,0.023732577365340957,
0.06508728179551122,-0.006020275861757,
0.06513715710723192,0.011344721690034205,
0.06518703241895261,0.0049748862621962035,
0.06523690773067331,-0.004226943771124149,
0.06528678304239402,0.01150951415088397,
0.06533665835411472,0.003249612662719583,
0.06538653366583541,-0.01350090039864825,
0.06543640897755611,-0.003070277921276056,
0.0654862842892768,0.007416731142175731,
0.06553615960099751,-0.002111098788707743,
0.06558603491271821,0.028132734339780488,
0.0656359102244389,-0.012864003056943591,
0.0656857855361596,-0.002406726354167033,
0.0657356608478803,0.0004587799748771524,
0.06578553615960099,0.032740543008062485,
0.0658354114713217,0.03240193806042629,
0.0658852867830424,-0.00441142606872192,
0.06593516209476309,0.013229954484446929,
0.06598503740648379,-0.0011476328809663112,
0.06603491271820448,0.0046156320837350915,
0.06608478802992519,0.028710189928514786,
0.06613466334164589,-0.0031691010608126506,
0.06618453865336658,0.022138656646728254,
0.06623441396508728,0.033930747443561095,
0.06628428927680798,0.0007718334797871557,
0.06633416458852869,0.013202540414636706,
0.06638403990024938,0.005793072998579818,
0.06643391521197008,0.004232987083735781,
0.06648379052369077,0.029025825259720393,
0.06653366583541147,0.018417842764519826,
0.06658354114713216,0.01712738046277793,
0.06663341645885287,0.023090342652099603,
0.06668329177057357,0.01017531269603489,
0.06673316708229426,0.02300364176018171,
0.06678304239401496,0.027458363159545834,
0.06683291770573566,0.027964252061272097,
0.06688279301745637,0.03881795023302159,
0.06693266832917706,0.017473502725840306,
0.06698254364089776,0.05464027119645416,
0.06703241895261845,0.005632053022825444,
0.06708229426433915,0.033687850224505,
0.06713216957605984,0.008541183597029534,
0.06718204488778055,0.024340146598004903,
0.06723192019950125,0.017482028990456935,
0.06728179551122195,0.017944746930616914,
0.06733167082294264,0.011121927227930224,
0.06738154613466334,0.010067769281636106,
0.06743142144638405,-0.0018441043821349687,
0.06748129675810474,0.005889989535042859,
0.06753117206982544,0.0007014140622792417,
0.06758104738154613,0.028293063223325227,
0.06763092269326683,0.02017867826801916,
0.06768079800498752,0.02028651761269694,
0.06773067331670823,0.043041696500417455,
0.06778054862842893,0.05609225085233721,
0.06783042394014963,0.022157877227889956,
0.06788029925187032,-0.02379602409092993,
0.06793017456359102,-0.002016730361394218,
0.06798004987531173,0.011095152377587918,
0.06802992518703242,0.020834838376785,
0.06807980049875312,0.03500663446059017,
0.06812967581047381,0.04868673966109684,
0.06817955112219451,0.01659426563722151,
0.0682294264339152,0.01305418613505371,
0.06827930174563591,0.03725070637806454,
0.06832917705735661,-0.011420020042572226,
0.0683790523690773,0.029397747535288943,
0.068428927680798,0.014257373497993948,
0.0684788029925187,0.023065095439460438,
0.06852867830423941,0.02325415448798417,
0.0685785536159601,0.03826393091128225,
0.0686284289276808,0.07188723551197262,
0.0686783042394015,0.051999989026117285,
0.06872817955112219,-0.0004153776779570774,
0.0687780548628429,-0.0004881916795485067,
0.0688279301745636,0.03721467427748369,
0.06887780548628429,0.034326616177553025,
0.06892768079800499,0.020532765190455545,
0.06897755610972568,0.03145821755945989,
0.06902743142144638,0.02686568574777717,
0.06907730673316709,0.01703061233583685,
0.06912718204488778,0.012293248228864375,
0.06917705735660848,0.024091464804053643,
0.06922693266832917,0.02203956972023296,
0.06927680798004987,0.016657278481369418,
0.06932668329177058,0.01418776916030352,
0.06937655860349128,0.04437733752619089,
0.06942643391521197,0.021342940003143056,
0.06947630922693267,0.02942705630170154,
0.06952618453865336,0.03416095745621011,
0.06957605985037406,0.012961525697031576,
0.06962593516209477,0.011818318604864058,
0.06967581047381546,0.03875088297681013,
0.06972568578553616,0.014661136050263389,
0.06977556109725686,0.031005207231975113,
0.06982543640897755,0.019066062517669083,
0.06987531172069826,0.02034868487889433,
0.06992518703241896,0.016677874017541873,
0.06997506234413965,0.02821975831155338,
0.07002493765586035,0.01602529350178089,
0.07007481296758104,0.028952189843295922,
0.07012468827930174,0.034211913274483065,
0.07017456359102245,-0.005139485028448444,
0.07022443890274314,0.028373677247808923,
0.07027431421446384,0.024593535680164327,
0.07032418952618454,0.000534804084488652,
0.07037406483790523,0.04101208415379576,
0.07042394014962594,0.03317842365941423,
0.07047381546134664,0.002522789017024355,
0.07052369077306733,0.0103105937770911,
0.07057356608478803,0.023901017923167102,
0.07062344139650872,0.043879597188255584,
0.07067331670822943,0.03158157308025923,
0.07072319201995013,0.026873176400125022,
0.07077306733167082,0.01006038927523278,
0.07082294264339152,0.03126059128670963,
0.07087281795511222,0.029747508773965262,
0.07092269326683291,0.03632392958205749,
0.07097256857855362,0.013269225462119031,
0.07102244389027432,0.027150166294031754,
0.07107231920199501,0.03228211276531463,
0.07112219451371571,0.03950737865371407,
0.0711720698254364,0.021192995818585112,
0.07122194513715711,0.026598018039985717,
0.07127182044887781,0.031150927153400985,
0.0713216957605985,0.01996458942664248,
0.0713715710723192,0.010177058518697282,
0.0714214463840399,0.007722147343150607,
0.07147132169576059,0.03589245727169743,
0.0715211970074813,0.014746593611421442,
0.071571072319202,0.018384481419541743,
0.0716209476309227,0.02129746565724277,
0.07167082294264339,0.038699275608368625,
0.07172069825436408,0.007111191760314842,
0.0717705735660848,0.01600271253287292,
0.07182044887780549,0.028894127091799032,
0.07187032418952619,0.011925731701849586,
0.07192019950124688,-0.008189605127222235,
0.07197007481296758,0.0033524168756472045,
0.07201995012468827,0.016729440945677736,
0.07206982543640898,0.026434822448630976,
0.07211970074812968,0.025919304200559323,
0.07216957605985037,0.011804633347610043,
0.07221945137157107,0.00936960915553144,
0.07226932668329177,0.01145598948885999,
0.07231920199501247,0.012966221609311964,
0.07236907730673317,0.04190719732899299,
0.07241895261845387,0.016590794612237048,
0.07246882793017456,0.030949103598495724,
0.07251870324189526,-0.0036054799215332473,
0.07256857855361595,0.015399982235222218,
0.07261845386533666,0.014728372019505043,
0.07266832917705736,0.05076350984612568,
0.07271820448877805,0.023581420122173173,
0.07276807980049875,0.01806786214841652,
0.07281795511221945,0.04174303333796381,
0.07286783042394016,0.03333609117073949,
0.07291770573566085,-0.00542856688731597,
0.07296758104738155,0.021091659611953105,
0.07301745635910224,0.017572093653225124,
0.07306733167082294,0.02920024442763925,
0.07311720698254365,0.03125316086358478,
0.07316708229426434,0.04957409938782102,
0.07321695760598504,0.011279432682541527,
0.07326683291770573,0.025417097919621188,
0.07331670822942643,0.003946526974398569,
0.07336658354114713,0.0331979267647759,
0.07341645885286784,0.0141614579740711,
0.07346633416458853,-0.004245972882575111,
0.07351620947630923,0.01115340254666928,
0.07356608478802992,0.03321494386059576,
0.07361596009975062,0.0050492987261020125,
0.07366583541147133,0.010778630634862382,
0.07371571072319202,0.004107471508000031,
0.07376558603491272,0.0073682644397966394,
0.07381546134663342,-0.0134718963384774,
0.07386533665835411,0.0223666443863444,
0.0739152119700748,-0.01294389511062281,
0.07396508728179552,-0.0005043376732953245,
0.07401496259351621,0.016173050886058894,
0.07406483790523691,0.020042929626194295,
0.0741147132169576,0.02114553684478636,
0.0741645885286783,0.017782043074605285,
0.07421446384039901,0.02963793516674939,
0.0742643391521197,0.02586409364226111,
0.0743142144638404,-0.00883722938357141,
0.0743640897755611,0.0011578453484138614,
0.07441396508728179,0.0060509942568216495,
0.07446384039900249,0.016280299072414607,
0.0745137157107232,0.0189066407563552,
0.07456359102244389,-0.014260133411225229,
0.07461346633416459,-0.006352088524179459,
0.07466334164588528,-0.009129661492625606,
0.07471321695760598,-0.00015492776824321645,
0.07476309226932669,-0.01122248169175746,
0.07481296758104738,-0.017682571833516996,
0.07486284289276808,0.02316285711022268,
0.07491271820448878,-0.0053867120037954215,
0.07496259351620947,0.01586385303818729,
0.07501246882793017,0.013002636215521803,
0.07506234413965088,0.004132689607813358,
0.07511221945137157,0.02801746435617277,
0.07516209476309227,0.004271852840090862,
0.07521197007481296,-0.022173641511629805,
0.07526184538653366,0.017541566172544414,
0.07531172069825437,0.004711197992696858,
0.07536159600997507,0.020446794502285127,
0.07541147132169576,0.00362560339571815,
0.07546134663341646,0.01895384653658783,
0.07551122194513715,0.02259393610115112,
0.07556109725685786,0.008889159246349844,
0.07561097256857856,0.02696600823360882,
0.07566084788029925,0.020513342395366417,
0.07571072319201995,-0.0007783596573167138,
0.07576059850374064,0.008242139654230903,
0.07581047381546134,-0.006911360822107424,
0.07586034912718205,0.009314765257031274,
0.07591022443890275,0.0051731213980333,
0.07596009975062344,0.03855176539648855,
0.07600997506234414,-0.03025311265373197,
0.07605985037406483,0.026170161279422652,
0.07610972568578554,-0.008211596511108792,
0.07615960099750624,0.01985658094459959,
0.07620947630922693,0.0022990255319801562,
0.07625935162094763,4.908878205590937e-05,
0.07630922693266833,0.007547885126217415,
0.07635910224438902,0.00020169057056673148,
0.07640897755610973,0.01914700266088927,
0.07645885286783043,0.030446619962845714,
0.07650872817955112,0.011994488055609076,
0.07655860349127182,0.0035604834230610607,
0.07660847880299251,0.013849592820066505,
0.07665835411471322,-0.012848967647810164,
0.07670822942643392,0.007406869560833436,
0.07675810473815461,-0.02424250876974385,
0.07680798004987531,0.020496380728943123,
0.076857855361596,0.017995887957034946,
0.0769077306733167,0.0076010684146099235,
0.07695760598503741,-0.00815115967486698,
0.0770074812967581,-0.024365162546394294,
0.0770573566084788,-0.00832901836757977,
0.0771072319201995,-0.021768525536094673,
0.0771571072319202,0.009632586099926406,
0.0772069825436409,0.002943754731335059,
0.0772568578553616,-0.03118859196297645,
0.0773067331670823,-0.009278370018049428,
0.07735660847880299,0.0066818787813113685,
0.07740648379052369,-0.0004467205932253528,
0.0774563591022444,0.015858664062440547,
0.07750623441396509,0.013950242702033728,
0.07755610972568579,0.022257221985723837,
0.07760598503740648,-0.014667450565722703,
0.07765586034912718,-0.024645816353953742,
0.07770573566084787,0.008524580283287259,
0.07775561097256858,-0.01524776656564739,
0.07780548628428928,-0.009318615155792947,
0.07785536159600998,-0.0028200397498930807,
0.07790523690773067,-0.016232704450007983,
0.07795511221945137,-0.02018352765832527,
0.07800498753117208,0.007699431230341749,
0.07805486284289277,-0.007894715610521769,
0.07810473815461347,-0.013690305643607282,
0.07815461346633416,-0.018656095607512052,
0.07820448877805486,0.0002896272160774153,
0.07825436408977555,-0.012217066898182704,
0.07830423940149626,-0.017277378266741004,
0.07835411471321696,-0.0007269538475069646,
0.07840399002493766,-0.007908267076453491,
0.07845386533665835,-0.01348147705656518,
0.07850374064837905,-0.013759504369654757,
0.07855361596009976,-0.035829570509265454,
0.07860349127182045,-0.006097570890960074,
0.07865336658354115,0.008223651276147263,
0.07870324189526184,-0.014963705121087703,
0.07875311720698254,-0.008427781791819376,
0.07880299251870324,0.007211966006839611,
0.07885286783042394,-0.033109876363737085,
0.07890274314214464,-0.02470700698234767,
0.07895261845386534,0.010031224970516641,
0.07900249376558603,0.013070160087822415,
0.07905236907730673,-0.011286065929147873,
0.07910224438902744,-0.035386646375101166,
0.07915211970074813,-0.028523506476062756,
0.07920199501246883,-0.023913986519978458,
0.07925187032418952,-0.025078835229449016,
0.07930174563591022,-0.01406319252583272,
0.07935162094763092,-0.014724027904632756,
0.07940149625935163,-0.024773922879444417,
0.07945137157107232,-0.012276669710747777,
0.07950124688279302,0.01808195609750683,
0.07955112219451371,0.00450777317749371,
0.07960099750623441,-0.007789366571455904,
0.07965087281795512,-0.018536189380855064,
0.07970074812967581,-0.00791044877296045,
0.07975062344139651,-0.0016546048099505654,
0.0798004987531172,0.017508542650056053,
0.0798503740648379,-0.03881528485795599,
0.07990024937655861,-0.005971207505931287,
0.0799501246882793,-0.030562092643117458,
0.08,-0.024050984051761516,
0.0800498753117207,0.019308956678659683,
0.0800997506234414,-0.0024890658459362017,
0.08014962593516209,0.0005974793097058076,
0.0801995012468828,-0.008348900651031669,
0.0802493765586035,-0.009362121150876968,
0.08029925187032419,0.008164719822211328,
0.08034912718204489,-0.019535766089576804,
0.08039900249376558,-0.0174391280169308,
0.08044887780548629,-0.007167111813725789,
0.08049875311720699,-0.01788638184970951,
0.08054862842892768,-0.027029440067393433,
0.08059850374064838,-0.01232820728930624,
0.08064837905236907,-0.004909023757449104,
0.08069825436408977,-0.004732073719791587,
0.08074812967581048,-0.023583255758321917,
0.08079800498753117,-0.0205236264039779,
0.08084788029925187,-0.027943575700843964,
0.08089775561097257,-0.011211179600791833,
0.08094763092269326,0.009484069319218285,
0.08099750623441397,0.0013371308473292334,
0.08104738154613467,-0.001866025753753742,
0.08109725685785536,-0.02124475075175529,
0.08114713216957606,-0.0015609715916983548,
0.08119700748129675,-0.0035871140451555813,
0.08124688279301745,-0.007975478177359212,
0.08129675810473816,-0.012469967054036123,
0.08134663341645886,-0.01695756783539008,
0.08139650872817955,-0.009123122739737852,
0.08144638403990025,-0.011208093213413881,
0.08149625935162094,0.000511085844863134,
0.08154613466334165,-0.011219898445634941,
0.08159600997506235,-0.020686053331981306,
0.08164588528678304,-0.03175123132585737,
0.08169576059850374,-0.0022489003982953566,
0.08174563591022443,-0.02227278526838413,
0.08179551122194513,-0.0038674158280561,
0.08184538653366584,-0.023311677208501094,
0.08189526184538654,-0.014729539606690035,
0.08194513715710723,0.006202554730933455,
0.08199501246882793,0.018621877059973424,
0.08204488778054862,-0.025019801985711215,
0.08209476309226933,-0.01860985330717569,
0.08214463840399003,-0.018244170723655376,
0.08219451371571072,0.003784787075274047,
0.08224438902743142,0.011884124373817733,
0.08229426433915212,-0.011447082505273895,
0.08234413965087282,-0.01548521450908339,
0.08239401496259352,0.004720464053879414,
0.08244389027431422,0.00657578719365794,
0.08249376558603491,-0.015496398423907988,
0.08254364089775561,0.024981303018527575,
0.0825935162094763,-0.02076577993386399,
0.08264339152119701,-0.01008699768158851,
0.08269326683291771,-0.024547262351953557,
0.0827431421446384,-0.004288111339117541,
0.0827930174563591,0.0002758379427770189,
0.0828428927680798,-0.024974540776498407,
0.0828927680798005,-0.012114114811595349,
0.0829426433915212,-0.021202617312244557,
0.0829925187032419,-0.005577505865030659,
0.08304239401496259,-0.018001041825234626,
0.08309226932668329,0.00928476270655426,
0.08314214463840398,-0.02687356811023152,
0.0831920199501247,-0.008332520415950978,
0.08324189526184539,0.014087894387077318,
0.08329177057356608,-0.015574742659774744,
0.08334164588528678,0.006257631787136897,
0.08339152119700748,-0.014957271849876067,
0.08344139650872819,0.005842631042798506,
0.08349127182044888,-0.015002942693624377,
0.08354114713216958,0.015491755120269525,
0.08359102244389027,0.015039251206589985,
0.08364089775561097,-0.005441275946609381,
0.08369077306733166,-0.001602394710123135,
0.08374064837905237,-0.008484956968897171,
0.08379052369077307,0.012460972187626072,
0.08384039900249377,-0.007666908498760635,
0.08389027431421446,-0.006441268858035837,
0.08394014962593516,-0.02006708926424593,
0.08399002493765587,0.019846481936903713,
0.08403990024937656,-0.008444699140390352,
0.08408977556109726,0.008015931375603934,
0.08413965087281795,0.01098943319975881,
0.08418952618453865,0.015938118626986582,
0.08423940149625936,-0.007018805849241592,
0.08428927680798005,-0.00792650472528761,
0.08433915211970075,-0.01439729923597775,
0.08438902743142145,0.0042751028167705,
0.08443890274314214,0.008326713635702952,
0.08448877805486284,-0.008674276190288554,
0.08453865336658355,0.012131740773870973,
0.08458852867830424,-0.011310520842890913,
0.08463840399002494,0.01792533022573425,
0.08468827930174563,0.018884782985271114,
0.08473815461346633,-0.005147365337867388,
0.08478802992518704,0.004757546207079164,
0.08483790523690773,-0.016377819019942376,
0.08488778054862843,0.022235510370955138,
0.08493765586034913,0.00738990082092127,
0.08498753117206982,0.022830965292103586,
0.08503740648379052,0.028416255277944207,
0.08508728179551123,-0.016121065434588862,
0.08513715710723192,0.013401547464284753,
0.08518703241895262,0.005715230469349258,
0.08523690773067331,0.017775332538238788,
0.08528678304239401,-0.0029721070956497467,
0.08533665835411472,0.008231446866384605,
0.08538653366583542,0.012809411466210494,
0.08543640897755611,0.016489947795271298,
0.0854862842892768,-0.006617616332199573,
0.0855361596009975,0.006026421376060898,
0.0855860349127182,0.03457734470754278,
0.08563591022443891,0.022566673971529255,
0.0856857855361596,-0.0005334345130655928,
0.0857356608478803,0.01920958614682477,
0.085785536159601,0.012209239074190498,
0.08583541147132169,0.014666376485451396,
0.0858852867830424,0.019807155738450544,
0.0859351620947631,0.019465320938349486,
0.08598503740648379,0.025735661463978758,
0.08603491271820449,0.010654334072674883,
0.08608478802992518,0.016819768204015585,
0.08613466334164588,0.004707958826324293,
0.08618453865336659,0.011218947258449836,
0.08623441396508728,0.004101309438751177,
0.08628428927680798,0.016928195939234707,
0.08633416458852868,0.010722475991646175,
0.08638403990024937,0.028141035776803627,
0.08643391521197008,0.027049332561426075,
0.08648379052369078,0.006878075057227097,
0.08653366583541147,-0.018201315284612506,
0.08658354114713217,0.0050882818221419015,
0.08663341645885286,0.009728524925988004,
0.08668329177057357,0.043870318709139836,
0.08673316708229427,0.018145454800754482,
0.08678304239401496,0.008924738523379072,
0.08683291770573566,0.018632013419898032,
0.08688279301745636,0.04906395476547461,
0.08693266832917705,0.015627403114071375,
0.08698254364089776,0.03391122744614465,
0.08703241895261846,0.013004656478742419,
0.08708229426433915,0.02693225211311298,
0.08713216957605985,0.015832086775397495,
0.08718204488778054,0.012587768788307752,
0.08723192019950125,0.01402302833804673,
0.08728179551122195,0.006687237178704135,
0.08733167082294264,0.0072074809632710415,
0.08738154613466334,0.02590707414716362,
0.08743142144638404,0.00723746101412116,
0.08748129675810473,0.01103727930861848,
0.08753117206982544,0.017589771553415588,
0.08758104738154614,0.014313771049613483,
0.08763092269326683,0.013176860891535684,
0.08768079800498753,0.01068432309634728,
0.08773067331670822,0.018076379542304063,
0.08778054862842893,0.013095489925972556,
0.08783042394014963,0.03674059818948507,
0.08788029925187033,0.020882616466302586,
0.08793017456359102,0.02325396681698251,
0.08798004987531172,0.014755755356758417,
0.08802992518703241,0.0021380875652900685,
0.08807980049875312,0.027248698479229536,
0.08812967581047382,0.013870226058963394,
0.08817955112219451,0.024736009458612346,
0.08822942643391521,0.028542628694110943,
0.0882793017456359,0.010900247075426639,
0.08832917705735661,0.03303340354071605,
0.08837905236907731,0.01601403422803365,
0.088428927680798,0.03076985520406256,
0.0884788029925187,0.013503163161568191,
0.0885286783042394,0.02262790343605393,
0.0885785536159601,0.027777467975282324,
0.0886284289276808,0.048932104712104775,
0.0886783042394015,0.02909093195148374,
0.0887281795511222,0.04508062082964161,
0.08877805486284289,0.008478730833058019,
0.08882793017456359,0.004353543549004864,
0.0888778054862843,0.018021474645330576,
0.08892768079800499,0.056655717854705925,
0.08897755610972569,0.0314124242699775,
0.08902743142144638,0.015819459632982966,
0.08907730673316708,0.05487090440481461,
0.08912718204488779,0.010813648878471627,
0.08917705735660848,0.02712268394062782,
0.08922693266832918,0.0435189796191246,
0.08927680798004987,0.02141894809892835,
0.08932668329177057,0.040030141266033104,
0.08937655860349127,0.007412658338399276,
0.08942643391521198,0.039630390654489256,
0.08947630922693267,0.05782943603782327,
0.08952618453865337,0.02933231905483462,
0.08957605985037406,0.033946275329751995,
0.08962593516209476,0.030193230403000933,
0.08967581047381547,0.04057907111924037,
0.08972568578553616,0.017126247272252072,
0.08977556109725686,0.07431516123826583,
0.08982543640897755,0.005505037830479172,
0.08987531172069825,0.015716133688761104,
0.08992518703241895,0.011809990269946407,
0.08997506234413966,0.015236146371851547,
0.09002493765586035,0.012490144560097543,
0.09007481296758105,0.013744728124394926,
0.09012468827930174,0.037604795141813405,
0.09017456359102244,0.04321126109634481,
0.09022443890274315,0.02556974445546324,
0.09027431421446384,0.039722140995381,
0.09032418952618454,0.028684054112078406,
0.09037406483790524,0.03720556440386151,
0.09042394014962593,0.059337764779003085,
0.09047381546134663,0.044870180980303105,
0.09052369077306734,0.034300378541244424,
0.09057356608478803,0.028711704829168738,
0.09062344139650873,0.0570314355687752,
0.09067331670822942,0.0403200152321032,
0.09072319201995012,0.013198841698549287,
0.09077306733167083,0.0196964275616662,
0.09082294264339152,0.015996059718304045,
0.09087281795511222,0.015788496266097983,
0.09092269326683292,0.021377663634189317,
0.09097256857855361,0.026404460936996197,
0.09102244389027432,0.038629463569222346,
0.09107231920199502,0.02175670091707341,
0.09112219451371571,0.02043360844686602,
0.09117206982543641,0.03308867291777823,
0.0912219451371571,0.04159037610480662,
0.0912718204488778,0.025228640236050395,
0.09132169576059851,0.06385392593660698,
0.0913715710723192,0.01706171436557445,
0.0914214463840399,0.04355622327092781,
0.0914713216957606,0.04525968775783535,
0.09152119700748129,0.045110705457165994,
0.091571072319202,0.02641009323295772,
0.0916209476309227,0.025084632648728653,
0.09167082294264339,0.015772496143333842,
0.09172069825436409,0.03900486543136836,
0.09177057356608478,0.03458192192427777,
0.09182044887780548,0.0005504656898843163,
0.09187032418952619,0.02925066489498303,
0.09192019950124689,-0.008634874366716762,
0.09197007481296758,0.03994495812993971,
0.09201995012468828,0.03213086273292046,
0.09206982543640897,0.04542185917159159,
0.09211970074812968,0.044647480632925854,
0.09216957605985038,-8.871507847283897e-05,
0.09221945137157107,0.03298319678372035,
0.09226932668329177,0.048959321277648106,
0.09231920199501246,0.0296939967461761,
0.09236907730673316,0.008770997757379054,
0.09241895261845387,0.02322451615957405,
0.09246882793017457,0.0314027859206656,
0.09251870324189526,0.01979968288956115,
0.09256857855361596,0.029374773798039596,
0.09261845386533665,-0.0014159985470315953,
0.09266832917705736,0.00815796330059461,
0.09271820448877806,0.02038721671400433,
0.09276807980049875,0.05376227996938114,
0.09281795511221945,0.03190973014212392,
0.09286783042394015,0.0357011783934584,
0.09291770573566084,-0.003946641378997737,
0.09296758104738155,-0.024961822484722025,
0.09301745635910225,0.04349690637315641,
0.09306733167082294,0.0018285967595659779,
0.09311720698254364,0.02157123666335045,
0.09316708229426433,0.012280246880177474,
0.09321695760598504,0.021579461753654758,
0.09326683291770574,0.02153815153285884,
0.09331670822942643,0.018005385898972687,
0.09336658354114713,0.041533249436545544,
0.09341645885286783,0.01716809617948226,
0.09346633416458854,0.0057656937735907285,
0.09351620947630923,0.031008436674675965,
0.09356608478802993,-0.014774720791491145,
0.09361596009975062,0.0054268101158127455,
0.09366583541147132,0.007667406467898987,
0.09371571072319201,0.02147044589155635,
0.09376558603491272,0.026505939464512678,
0.09381546134663342,0.028342762308769608,
0.09386533665835411,0.038398143385187836,
0.09391521197007481,0.007086509205858894,
0.0939650872817955,0.036059822089161975,
0.09401496259351622,0.03678139387896673,
0.09406483790523691,0.0042099288181105705,
0.09411471321695761,0.041863094925538046,
0.0941645885286783,0.02809788281907412,
0.094214463840399,0.019978904282999012,
0.0942643391521197,0.013691927286450294,
0.0943142144638404,-0.004942563352695916,
0.0943640897755611,-0.005487943471815181,
0.0944139650872818,0.02640010396417581,
0.09446384039900249,-0.0012230207380514568,
0.09451371571072319,0.032623494872103365,
0.0945635910224439,0.027096867291743577,
0.09461346633416459,0.0076146914446909115,
0.09466334164588529,0.010385705657693214,
0.09471321695760598,0.012065254095230916,
0.09476309226932668,0.0140726676528788,
0.09481296758104737,0.015327410267922552,
0.09486284289276808,0.015445001700698227,
0.09491271820448878,0.0395407836747928,
0.09496259351620948,0.0005313162752773326,
0.09501246882793017,0.02559936517381023,
0.09506234413965087,-0.0021719842948509788,
0.09511221945137158,0.0256485933777856,
0.09516209476309227,0.0110489876101674,
0.09521197007481297,0.019591676299581792,
0.09526184538653366,0.018090649591030374,
0.09531172069825436,-0.0009347801345815478,
0.09536159600997507,-0.0008331893483026704,
0.09541147132169576,-0.009567757515899165,
0.09546134663341646,0.020824119069840923,
0.09551122194513716,0.028708981980049442,
0.09556109725685785,0.022893004214187426,
0.09561097256857855,0.006924203996735378,
0.09566084788029926,0.019046797863375757,
0.09571072319201995,-0.009679771141960076,
0.09576059850374065,0.024834886930266396,
0.09581047381546134,-0.014579059129495715,
0.09586034912718204,-0.01269947629638292,
0.09591022443890275,0.004466186125343887,
0.09596009975062345,6.921230729823062e-05,
0.09600997506234414,0.00407995567507471,
0.09605985037406484,-0.003253133383000654,
0.09610972568578553,-0.010982721955094548,
0.09615960099750623,0.02464509590401641,
0.09620947630922694,0.0007780287702826511,
0.09625935162094763,0.001636279326386352,
0.09630922693266833,0.006792548497435105,
0.09635910224438902,-0.005161347504381607,
0.09640897755610972,0.0012285492985557897,
0.09645885286783043,-0.01198976894905096,
0.09650872817955113,-0.015373941781527973,
0.09655860349127182,0.002400796024776688,
0.09660847880299252,-0.019666778498605396,
0.09665835411471321,-0.003883468539117931,
0.09670822942643391,0.007494430297321743,
0.09675810473815462,-0.003256039066630965,
0.09680798004987531,-0.011044816337545761,
0.09685785536159601,-0.004691660716065949,
0.0969077306733167,-0.01693557289618693,
0.0969576059850374,0.011218706663417,
0.09700748129675811,-0.014537051418176097,
0.0970573566084788,0.002970252035207519,
0.0971072319201995,-0.024900158238982645,
0.0971571072319202,0.013584289045289221,
0.0972069825436409,0.004848035133399533,
0.09725685785536159,-0.007411722895727847,
0.0973067331670823,-0.0033101798083677646,
0.097356608478803,0.011241652758498663,
0.09740648379052369,-0.007630822664062783,
0.09745635910224439,-0.003998683387276815,
0.09750623441396508,-0.0053594141423944815,
0.09755610972568579,-0.014830996126994221,
0.09760598503740649,0.012765827820245199,
0.09765586034912718,-0.018552115636966918,
0.09770573566084788,-0.010961286275181406,
0.09775561097256857,-0.009212291094746451,
0.09780548628428928,-0.02016750416000233,
0.09785536159600998,-0.00473397985234288,
0.09790523690773068,-0.009483909920270678,
0.09795511221945137,-0.011543326011155819,
0.09800498753117207,-0.02232795216277183,
0.09805486284289276,-0.005599559312602122,
0.09810473815461347,-0.003586412043972513,
0.09815461346633417,-0.036784467792177006,
0.09820448877805486,0.0009052677411332272,
0.09825436408977556,-0.018349319847193554,
0.09830423940149625,-0.018065695530055575,
0.09835411471321696,0.002004379531988426,
0.09840399002493766,-0.014193661826560962,
0.09845386533665836,-0.0034060763101120307,
0.09850374064837905,-0.00621469527764344,
0.09855361596009975,0.0018098669530453946,
0.09860349127182044,-0.011278444324474775,
0.09865336658354115,-0.007628077040924717,
0.09870324189526185,0.012396897265866687,
0.09875311720698254,0.011695247082093095,
0.09880299251870324,-0.012112036311788813,
0.09885286783042393,-0.012397471002144366,
0.09890274314214464,-0.0024295206561104673,
0.09895261845386534,-0.0043502560950330615,
0.09900249376558604,-0.027305712825381162,
0.09905236907730673,-0.009773842384506987,
0.09910224438902743,-0.010561762360845873,
0.09915211970074812,-0.015205855103783701,
0.09920199501246883,2.1202363563298937e-05,
0.09925187032418953,-0.00437974837530508,
0.09930174563591022,-0.010577199111886409,
0.09935162094763092,-0.023184756563855047,
0.09940149625935162,-0.03633795624520339,
0.09945137157107233,0.0038378985205543004,
0.09950124688279302,-0.020200604174829356,
0.09955112219451372,-0.01240644197885168,
0.09960099750623441,-0.023055574794795954,
0.09965087281795511,-0.01901531819074547,
0.0997007481296758,-0.029491277443321154,
0.09975062344139651,-0.0011819806706788727,
0.09980049875311721,-0.02209051066917036,
0.0998503740648379,-0.015149221642834514,
0.0999002493765586,0.005672827064333634,
0.0999501246882793,-0.004615670479867554,
0.1,-0.04035709606799445,
0.1000498753117207,-0.023935538878348678,
0.1000997506234414,0.0049733831861253665,
0.10014962593516209,-0.03746762273885293,
0.10019950124688279,-0.003765534178717448,
0.1002493765586035,0.018130339505954274,
0.1002992518703242,-0.016650259483524835,
0.10034912718204489,-0.019589460806230266,
0.10039900249376559,-0.03835577658850639,
0.10044887780548628,0.00703984160823273,
0.10049875311720698,0.00041761994748703776,
0.10054862842892769,-0.02592977431267892,
0.10059850374064838,-0.014241591554964815,
0.10064837905236908,-0.03838082830462791,
0.10069825436408977,-0.00769588757544234,
0.10074812967581047,-0.002370836761157692,
0.10079800498753118,-0.007393829310546289,
0.10084788029925187,-0.010407508885981414,
0.10089775561097257,-0.019118479716603846,
0.10094763092269327,-0.0017969072486337563,
0.10099750623441396,0.002520007446025844,
0.10104738154613466,0.006848344426288355,
0.10109725685785537,-0.022831357992875966,
0.10114713216957606,0.011238686428094755,
0.10119700748129676,-0.0032812394608900553,
0.10124688279301745,0.011024599236966911,
0.10129675810473815,-0.010406914098957982,
0.10134663341645886,-0.01582926867715281,
0.10139650872817955,-0.0025519965377534953,
0.10144638403990025,-0.0030889465500315866,
0.10149625935162095,-0.00713771092695053,
0.10154613466334164,0.002442223691705844,
0.10159600997506234,-0.023479596260126807,
0.10164588528678305,0.00011991521837540799,
0.10169576059850374,-0.0009181853710266957,
0.10174563591022444,-0.02536290134229962,
0.10179551122194513,-0.01217789841173348,
0.10184538653366583,-0.02065743455988709,
0.10189526184538654,-0.015181905894291645,
0.10194513715710724,-0.037781979754516734,
0.10199501246882793,-0.021522265556691896,
0.10204488778054863,0.0011729700148301308,
0.10209476309226932,-0.01504703793684719,
0.10214463840399003,0.01073950053448304,
0.10219451371571073,-0.011160705640199692,
0.10224438902743142,-0.008040366338797131,
0.10229426433915212,-0.006956245987589944,
0.10234413965087281,0.0008282012934270246,
0.10239401496259351,-0.013875024660239424,
0.10244389027431422,-0.01610898699437773,
0.10249376558603492,-0.0262417767228831,
0.10254364089775561,0.0021889182427076905,
0.10259351620947631,-0.033736685691856255,
0.102643391521197,-0.05262571926656304,
0.10269326683291771,-0.006031764688712944,
0.10274314214463841,-0.0034567551277096035,
0.1027930174563591,-0.012662045365113218,
0.1028428927680798,-0.028321870361970626,
0.1028927680798005,-0.03225230866528864,
0.10294264339152119,-0.012968912784949715,
0.1029925187032419,0.006717389944881204,
0.1030423940149626,-0.002535044043649801,
0.10309226932668329,-0.005833664142595673,
0.10314214463840399,0.0033995177390626647,
0.10319201995012468,-0.025811802844411463,
0.10324189526184539,-0.0002860288065662472,
0.10329177057356609,-0.027178875648044266,
0.10334164588528678,0.0023256876178323997,
0.10339152119700748,0.01623257891450358,
0.10344139650872818,0.006455505933740501,
0.10349127182044887,0.002945700391151291,
0.10354114713216958,-0.009533820399370124,
0.10359102244389028,-0.003166247020347241,
0.10364089775561097,-0.017768628798926878,
0.10369077306733167,-0.016646793414645446,
0.10374064837905236,-0.008742832700224346,
0.10379052369077307,0.015618019690173983,
0.10384039900249377,-0.005408099708143396,
0.10389027431421446,0.01707868436393401,
0.10394014962593516,-0.019696443747862967,
0.10399002493765586,-0.009545787028554142,
0.10403990024937655,-0.022936505557094138,
0.10408977556109726,-0.02785909942028619,
0.10413965087281796,-0.009056874634395584,
0.10418952618453865,0.00936970158671763,
0.10423940149625935,0.011271997691404387,
0.10428927680798004,-0.00561739210938387,
0.10433915211970075,0.013947375275298338,
0.10438902743142145,-0.015677578733404203,
0.10443890274314215,-0.0024416881312549236,
0.10448877805486284,-0.0018664749190738681,
0.10453865336658354,0.004147209664994576,
0.10458852867830425,0.017057597726868323,
0.10463840399002494,0.004496104710967735,
0.10468827930174564,0.007295488842571896,
0.10473815461346633,-0.012680126057827796,
0.10478802992518703,-0.01615620852846237,
0.10483790523690772,0.008289218164431317,
0.10488778054862843,0.008835566683516628,
0.10493765586034913,0.003537348821413985,
0.10498753117206983,7.714235069925315e-05,
0.10503740648379052,0.011433226175996755,
0.10508728179551122,0.014564990628680441,
0.10513715710723193,0.036479201810776116,
0.10518703241895262,0.01885399056217239,
0.10523690773067332,0.023131829609736858,
0.10528678304239401,0.01644148122907057,
0.10533665835411471,0.009313418449115204,
0.1053865336658354,-0.01889182681500747,
0.10543640897755611,0.01734908664988926,
0.10548628428927681,0.01618346299405682,
0.1055361596009975,0.006184366048568363,
0.1055860349127182,0.019868981791018488,
0.1056359102244389,0.01905148295042532,
0.10568578553615961,0.005248690300020232,
0.1057356608478803,-0.011591689097767893,
0.105785536159601,0.009953883606519182,
0.1058354114713217,0.006535230396483326,
0.10588528678304239,0.003526700172085671,
0.10593516209476309,0.026702292001588142,
0.1059850374064838,-0.00351955291818774,
0.10603491271820449,-0.024642832970425042,
0.10608478802992519,0.02507828147398277,
0.10613466334164588,0.0020126038773704506,
0.10618453865336658,0.018259395104115388,
0.10623441396508729,0.0049457054338463285,
0.10628428927680798,0.04621360883184086,
0.10633416458852868,-0.01267105731421567,
0.10638403990024937,0.0010520447576689053,
0.10643391521197007,0.005224458067255683,
0.10648379052369077,0.03187227265045596,
0.10653366583541148,0.020014032727690007,
0.10658354114713217,0.011836105014040494,
0.10663341645885287,0.030966554318961247,
0.10668329177057356,0.023046982415224872,
0.10673316708229426,0.006456418942949396,
0.10678304239401497,0.008393564307313153,
0.10683291770573566,0.02008257846817428,
0.10688279301745636,-0.0016341407006838782,
0.10693266832917706,0.015781129416033747,
0.10698254364089775,0.0037037047703635684,
0.10703241895261846,0.015130828399023646,
0.10708229426433916,-0.014501643834490215,
0.10713216957605985,0.026091848989702408,
0.10718204488778055,0.02607132322686649,
0.10723192019950124,0.016828877733897876,
0.10728179551122194,0.030069717874031267,
0.10733167082294265,0.021841005862527685,
0.10738154613466334,0.04790847299581977,
0.10743142144638404,0.029989267318828446,
0.10748129675810474,0.005069121208287911,
0.10753117206982543,0.005663616626325479,
0.10758104738154614,-0.007031822153162958,
0.10763092269326684,0.026787075842429543,
0.10768079800498753,0.024934305497535756,
0.10773067331670823,0.044887371304088514,
0.10778054862842892,-0.009231792319071074,
0.10783042394014962,0.025373946046372824,
0.10788029925187033,0.01839571515004188,
0.10793017456359102,0.010117227294948438,
0.10798004987531172,0.02539743690500817,
0.10802992518703242,0.058161526252779275,
0.10807980049875311,0.03925949853218273,
0.10812967581047382,0.025734054072041674,
0.10817955112219452,0.01338581601792324,
0.10822942643391521,0.035289741160290974,
0.10827930174563591,0.0091541988228563,
0.1083291770573566,0.03292916374306218,
0.1083790523690773,0.0032003528420622707,
0.10842892768079801,0.025576307672022645,
0.1084788029925187,0.03788184088577363,
0.1085286783042394,0.0012983483746735677,
0.1085785536159601,0.019824480131162843,
0.10862842892768079,0.020130473313588235,
0.1086783042394015,0.02510803498481498,
0.1087281795511222,0.006645311668647531,
0.1087780548628429,0.008953130751187519,
0.10882793017456359,0.019103889518062765,
0.10887780548628428,0.0027179993936250098,
0.108927680798005,0.01550860925758985,
0.10897755610972569,0.008906025083992693,
0.10902743142144639,0.022339892345102905,
0.10907730673316708,0.01898510296619483,
0.10912718204488778,0.03378861552395559,
0.10917705735660847,0.02103896017579697,
0.10922693266832918,0.03871270695547102,
0.10927680798004988,0.03680668093335727,
0.10932668329177057,0.038999493341548036,
0.10937655860349127,0.006623244804304658,
0.10942643391521197,-0.002182006993104158,
0.10947630922693267,0.037471508437091905,
0.10952618453865337,0.04063208666455194,
0.10957605985037407,0.029746433434859547,
0.10962593516209476,0.03307842853918603,
0.10967581047381546,0.022080651768542747,
0.10972568578553615,0.04491204265711911,
0.10977556109725686,0.040607953270370985,
0.10982543640897756,0.0418855638272648,
0.10987531172069825,0.024247841722448663,
0.10992518703241895,0.055515902725757224,
0.10997506234413965,0.04935946487240449,
0.11002493765586036,0.03223690294872321,
0.11007481296758105,0.05925175095608658,
0.11012468827930175,0.04316348053858722,
0.11017456359102244,0.027037285663294188,
0.11022443890274314,0.027169180449544285,
0.11027431421446383,0.06845374362255018,
0.11032418952618454,0.019736332060396024,
0.11037406483790524,0.032965075827829315,
0.11042394014962593,0.03827568116593535,
0.11047381546134663,0.05083775146387364,
0.11052369077306733,0.03958660176439936,
0.11057356608478804,0.027540794109437303,
0.11062344139650873,0.004436206610110786,
0.11067331670822943,0.03699262831934709,
0.11072319201995012,0.030422519668894338,
0.11077306733167082,0.04013124683839106,
0.11082294264339151,0.019235456441670417,
0.11087281795511222,0.03357429369286462,
0.11092269326683292,0.05451743630865326,
0.11097256857855362,0.03904239205373421,
0.11102244389027431,0.056998694222968965,
0.111072319201995,0.0305971247204618,
0.11112219451371572,0.030871802933640842,
0.11117206982543641,0.04244027974929664,
0.11122194513715711,0.020639114122422395,
0.1112718204488778,0.061027343575132155,
0.1113216957605985,0.015881925368877118,
0.11137157107231921,0.01644147904496146,
0.1114214463840399,0.05761046472247565,
0.1114713216957606,0.017744192746008414,
0.1115211970074813,0.0254897313752385,
0.11157107231920199,0.0525116673673265,
0.11162094763092269,0.03685452224502639,
0.1116708229426434,0.022779028290059393,
0.11172069825436409,0.009741935990871219,
0.11177057356608479,0.03278532887450004,
0.11182044887780548,-0.017434429697450265,
0.11187032418952618,0.023343768573415257,
0.11192019950124689,0.021704340787146892,
0.11197007481296758,0.0069660956752517385,
0.11201995012468828,0.021963750436276998,
0.11206982543640898,0.01522157406951826,
0.11211970074812967,0.005260939818430996,
0.11216957605985037,0.02015708657173225,
0.11221945137157108,0.017185551832797002,
0.11226932668329177,0.022100244585685123,
0.11231920199501247,0.022979427937503936,
0.11236907730673316,0.03310296150077793,
0.11241895261845386,0.01518085164277299,
0.11246882793017457,0.028924225956073038,
0.11251870324189527,0.014352946403102218,
0.11256857855361596,-0.013091050565612425,
0.11261845386533666,0.03625075067937344,
0.11266832917705735,0.005218012386340502,
0.11271820448877805,0.008970538864304744,
0.11276807980049876,0.0009257062968241886,
0.11281795511221945,0.024581522904321938,
0.11286783042394015,0.03758730730144527,
0.11291770573566084,0.022986363995689745,
0.11296758104738154,0.004385411325122351,
0.11301745635910225,3.489933513869947e-05,
0.11306733167082295,0.03461184445383994,
0.11311720698254364,0.012087469856582824,
0.11316708229426434,0.01070921705711418,
0.11321695760598503,0.022573032232285784,
0.11326683291770574,0.0032491785968920897,
0.11331670822942644,0.02603355881445228,
0.11336658354114713,0.04215696301410991,
0.11341645885286783,0.015516713356195044,
0.11346633416458853,0.038439329117549687,
0.11351620947630922,0.009919334124685018,
0.11356608478802993,0.0318306858157274,
0.11361596009975063,0.0475303030654968,
0.11366583541147132,0.0210011911564634,
0.11371571072319202,0.04165325780818532,
0.11376558603491271,0.027481706331232657,
0.11381546134663342,0.013936178922373726,
0.11386533665835412,0.02447056015736924,
0.11391521197007481,0.01199246639474802,
0.11396508728179551,0.016553112221122438,
0.1140149625935162,0.008911809403519724,
0.1140648379052369,0.01185962115261013,
0.11411471321695761,0.008773629336386386,
0.1141645885286783,0.0032974154062803043,
0.114214463840399,0.018232179963213965,
0.1142643391521197,0.01596988801518695,
0.1143142144638404,0.004797997817711652,
0.1143640897755611,0.024600353902764476,
0.1144139650872818,0.037575744917581116,
0.1144638403990025,0.012186480949273331,
0.11451371571072319,-0.011575961046155658,
0.11456359102244389,0.01251163990038106,
0.11461346633416458,0.017103446455701405,
0.11466334164588529,-0.014261727498075936,
0.11471321695760599,0.0007639036946983542,
0.11476309226932668,0.004518196649009134,
0.11481296758104738,-0.017893821386478895,
0.11486284289276807,0.007618403115593402,
0.11491271820448878,0.012492450488365971,
0.11496259351620948,-0.006959377021456829,
0.11501246882793018,-0.01316270813031483,
0.11506234413965087,0.0006118264827219867,
0.11511221945137157,-0.004878775004911509,
0.11516209476309226,-0.0005312679299129385,
0.11521197007481297,-0.002258308411443073,
0.11526184538653367,-0.006306798112807209,
0.11531172069825436,-0.011600974620713862,
0.11536159600997506,-0.0018893793816103198,
0.11541147132169575,-0.01184603879184349,
0.11546134663341646,0.014014499063671181,
0.11551122194513716,0.014576618408916026,
0.11556109725685786,0.032976041325719525,
0.11561097256857855,0.004838305712089232,
0.11566084788029925,-0.014176746887964935,
0.11571072319201996,0.020070631862701215,
0.11576059850374065,0.019564720218957013,
0.11581047381546135,0.0012423545090101337,
0.11586034912718204,0.01251916357833839,
0.11591022443890274,-0.009475832468478025,
0.11596009975062344,0.007357420042993127,
0.11600997506234415,0.012428557189341822,
0.11605985037406484,0.010677338311811295,
0.11610972568578554,0.0030974886942135714,
0.11615960099750623,-0.009439422398222926,
0.11620947630922693,-0.02099554311478887,
0.11625935162094764,-0.02913518320460646,
0.11630922693266833,0.011748206584200685,
0.11635910224438903,-0.0023650320472028115,
0.11640897755610972,-0.0027147394911901284,
0.11645885286783042,0.006404932932509453,
0.11650872817955112,-0.008554982984491146,
0.11655860349127183,-0.0007669058006493216,
0.11660847880299252,-0.01764046503343814,
0.11665835411471322,-0.0010338099368078248,
0.11670822942643391,-0.0031206208766142583,
0.11675810473815461,-0.004565918780378234,
0.11680798004987532,0.01974239140028999,
0.11685785536159601,-0.015438941351132617,
0.11690773067331671,-0.006065363744720943,
0.1169576059850374,0.002244958817242636,
0.1170074812967581,-0.00016925454525871728,
0.1170573566084788,-0.03102763680394971,
0.1171072319201995,0.0026340642273292424,
0.1171571072319202,-0.020717221894345147,
0.1172069825436409,0.004531119336385859,
0.1172568578553616,0.010329037631479583,
0.11730673316708229,0.010484835707205264,
0.117356608478803,-0.026307498677540318,
0.1174064837905237,-0.04041793407051615,
0.11745635910224439,-0.013934849452452113,
0.11750623441396509,0.02084139808808753,
0.11755610972568578,-0.0024345123908640093,
0.11760598503740648,0.009872507080014012,
0.11765586034912719,-0.014544983147619778,
0.11770573566084788,0.012848233313632185,
0.11775561097256858,-0.021889392136467817,
0.11780548628428927,-0.008352040789353584,
0.11785536159600997,-0.003951327455813298,
0.11790523690773068,-0.010104968052790918,
0.11795511221945137,0.005891567427988041,
0.11800498753117207,0.001126206585144205,
0.11805486284289277,0.013993856243207481,
0.11810473815461346,-0.024220574091800298,
0.11815461346633417,-0.022941553065623392,
0.11820448877805487,-0.0017138106590247337,
0.11825436408977556,0.002986319270131519,
0.11830423940149626,-0.021103137733025926,
0.11835411471321695,0.0011342510283355468,
0.11840399002493765,-0.02382860945914817,
0.11845386533665836,-0.0027920374889856435,
0.11850374064837906,-0.008032627991043286,
0.11855361596009975,-0.0027032698580953243,
0.11860349127182045,-0.01900054908012106,
0.11865336658354114,-0.014026866203800883,
0.11870324189526185,-0.009140610829871762,
0.11875311720698255,-0.036586748365604126,
0.11880299251870324,-0.010566877304264288,
0.11885286783042394,-0.013246247033035747,
0.11890274314214463,0.015584170184031161,
0.11895261845386533,-0.0022810101381252577,
0.11900249376558604,-0.025035134585056316,
0.11905236907730674,0.010455147721656573,
0.11910224438902743,-0.005865427134720163,
0.11915211970074813,-0.019837057590877467,
0.11920199501246882,-0.02124014623437296,
0.11925187032418953,-0.022495375610249023,
0.11930174563591023,-0.02552501828144549,
0.11935162094763092,-0.007909695736037621,
0.11940149625935162,-0.030556418106039266,
0.11945137157107232,-0.012027200477665352,
0.11950124688279301,0.0154781654216913,
0.11955112219451372,-0.006598217021389086,
0.11960099750623442,-0.027347637043532373,
0.11965087281795511,-0.02399557242716573,
0.11970074812967581,-0.014638027203306293,
0.1197506234413965,-0.028982405461531777,
0.11980049875311721,-0.014702367594192169,
0.11985037406483791,-0.00523299329104975,
0.1199002493765586,-0.01364995024387936,
0.1199501246882793,-0.03054463341082299,
0.12,-0.010604476405850572,
0.1200498753117207,-0.026287441992593592,
0.1200997506234414,-0.02130587004700597,
0.1201496259351621,-0.021686336673186986,
0.12019950124688279,-0.03679638671211061,
0.12024937655860349,-0.04738014964671549,
0.12029925187032418,-0.00818923682934939,
0.1203491271820449,-0.020632009363473827,
0.12039900249376559,-0.005971941832648953,
0.12044887780548628,-0.002082316469076643,
0.12049875311720698,-0.01969751805674195,
0.12054862842892768,-0.01185700063497573,
0.12059850374064839,-0.033452812487298145,
0.12064837905236908,-0.0009383568444034634,
0.12069825436408978,-0.029046598624005913,
0.12074812967581047,0.017329651902723293,
0.12079800498753117,-0.009776062956499578,
0.12084788029925186,-0.051272698522955476,
0.12089775561097257,0.002318324919462003,
0.12094763092269327,-0.0008619928937385925,
0.12099750623441397,-0.007579679019758166,
0.12104738154613466,0.0004941840100186751,
0.12109725685785536,-0.037740965264100104,
0.12114713216957607,-0.03502449357462385,
0.12119700748129676,0.0016145588529152249,
0.12124688279301746,-0.02061597086302703,
0.12129675810473815,0.001526961620003429,
0.12134663341645885,0.023939637717231316,
0.12139650872817954,-0.015275855332880813,
0.12144638403990025,-0.007134800951276535,
0.12149625935162095,0.022288987221765755,
0.12154613466334165,-0.0040996088538459916,
0.12159600997506234,-0.01626698963682445,
0.12164588528678304,-0.03399365577837909,
0.12169576059850375,0.01251927440176766,
0.12174563591022444,-0.01504255772232583,
0.12179551122194514,0.004219880295165819,
0.12184538653366583,-0.04723421969536723,
0.12189526184538653,-0.0026628555016522558,
0.12194513715710723,-0.03085086823218441,
0.12199501246882793,0.011676267970168215,
0.12204488778054863,-0.04179868895903108,
0.12209476309226933,-0.013583176598465788,
0.12214463840399002,-0.005670538252248492,
0.12219451371571072,-0.017927214752414267,
0.12224438902743143,0.00972925367776127,
0.12229426433915212,-0.03495420081316018,
0.12234413965087282,-0.004264002059728336,
0.12239401496259351,0.009101570601855829,
0.12244389027431421,-0.002013396059379122,
0.12249376558603492,0.0043795717833439805,
0.12254364089775562,-0.00981276515342893,
0.12259351620947631,-0.014132269013484203,
0.122643391521197,-0.015049448779234944,
0.1226932668329177,-0.0032149784513491883,
0.1227431421446384,-0.006657925468838282,
0.12279301745635911,-0.0076075008312305615,
0.1228428927680798,-0.0052500003708198335,
0.1228927680798005,0.030341884205233025,
0.1229426433915212,-0.02664391036875334,
0.12299251870324189,-0.02300620361846563,
0.1230423940149626,0.01420836214543309,
0.1230922693266833,0.005381255861686231,
0.12314214463840399,-0.02074199115037683,
0.12319201995012469,0.0020290918359397135,
0.12324189526184538,0.022513898748589365,
0.12329177057356608,0.011836634666700603,
0.12334164588528679,-0.009528266089413451,
0.12339152119700748,-0.0010809978433141524,
0.12344139650872818,-0.009242556448758175,
0.12349127182044888,0.0030450031744195553,
0.12354114713216957,-0.020912396196158117,
0.12359102244389028,0.011842113351546092,
0.12364089775561098,-0.015754877078509366,
0.12369077306733167,0.011850924977853403,
0.12374064837905237,-0.0027406656957038446,
0.12379052369077306,0.014039678049250682,
0.12384039900249376,0.043052178115050785,
0.12389027431421447,0.00015479430387682028,
0.12394014962593516,-0.008403726230082939,
0.12399002493765586,-0.0016110723211724847,
0.12403990024937656,0.007840298884719349,
0.12408977556109725,-0.013372956101795279,
0.12413965087281796,-0.005833181727505451,
0.12418952618453866,-0.006094993352402099,
0.12423940149625935,0.012097025300422412,
0.12428927680798005,0.011399432853945596,
0.12433915211970074,-0.02047929438103059,
0.12438902743142144,-0.026264070622724987,
0.12443890274314215,-0.012358876299720675,
0.12448877805486284,-0.005370292777398805,
0.12453865336658354,-0.014783385777634446,
0.12458852867830424,-0.015867857856665703,
0.12463840399002493,-0.00789438751384225,
0.12468827930174564,-0.01062735934501021,
0.12473815461346634,0.011161952321873427,
0.12478802992518703,-0.009644497576086881,
0.12483790523690773,-0.005295231046819117,
0.12488778054862842,-0.00904987132490969,
0.12493765586034913,-0.011405673897589317,
0.12498753117206983,0.023739483965815676,
0.12503740648379053,0.023381872516216005,
0.12508728179551123,0.014403101290604684,
0.12513715710723192,-0.002706931773102019,
0.12518703241895263,0.0047681132572169995,
0.1252369077306733,0.0039935121269893785,
0.12528678304239402,0.00865445565637834,
0.1253366583541147,0.03902465807288105,
0.1253865336658354,0.00903242799942238,
0.12543640897755612,0.021371898519471293,
0.1254862842892768,0.015879904316184072,
0.1255361596009975,0.03461966124535552,
0.1255860349127182,0.008927236862661801,
0.1256359102244389,0.0063514916241794615,
0.1256857855361596,-0.014311928409114376,
0.1257356608478803,0.023630972385952513,
0.125785536159601,-0.014221978720700103,
0.12583541147132168,-0.009336972801598304,
0.1258852867830424,0.010251517345294326,
0.1259351620947631,0.008493198610467758,
0.12598503740648379,-0.0008737090554816231,
0.1260349127182045,0.00248768761981329,
0.12608478802992518,0.01827044828448702,
0.1261346633416459,0.022962740256492274,
0.1261845386533666,0.014737803954830656,
0.12623441396508728,0.005687214293693994,
0.126284289276808,0.032050045325459506,
0.12633416458852867,-0.006459303064341015,
0.12638403990024938,0.028528555815317637,
0.1264339152119701,0.011106817106382607,
0.12648379052369077,0.052193758433861946,
0.12653366583541148,0.01759099035212029,
0.12658354114713216,0.010808104246656224,
0.12663341645885287,0.003795207813854968,
0.12668329177057355,0.024465140217655373,
0.12673316708229426,0.008509226630522572,
0.12678304239401497,0.010721463190541868,
0.12683291770573565,0.029317468951576935,
0.12688279301745636,0.026350758755574105,
0.12693266832917705,0.022293730690370755,
0.12698254364089775,0.039601054734728545,
0.12703241895261846,0.013938187567031855,
0.12708229426433915,0.049692618480489475,
0.12713216957605986,0.021354868118578885,
0.12718204488778054,0.03451996064431619,
0.12723192019950125,-0.012389164904195438,
0.12728179551122196,0.028649225893285547,
0.12733167082294264,0.02023488317852308,
0.12738154613466335,0.032958836485276755,
0.12743142144638403,0.033544603152915985,
0.12748129675810474,0.030382669242097884,
0.12753117206982545,0.0012554167231056818,
0.12758104738154613,0.010631558361331115,
0.12763092269326684,0.0342624948825655,
0.12768079800498752,0.046082053868093026,
0.12773067331670823,0.03206474853175009,
0.1277805486284289,0.028985833996533445,
0.12783042394014962,0.03337384365904877,
0.12788029925187033,0.04709258577767722,
0.12793017456359101,0.02835815383669637,
0.12798004987531172,0.03890461395971716,
0.1280299251870324,0.012669927039315812,
0.12807980049875312,0.006198200847623677,
0.12812967581047383,0.0061394165002774045,
0.1281795511221945,0.018528985042073735,
0.12822942643391522,0.030603269502813828,
0.1282793017456359,0.01368455621638627,
0.1283291770573566,0.03106440881743312,
0.12837905236907732,-0.001963134782049819,
0.128428927680798,0.03676482082949919,
0.1284788029925187,0.010620138239732718,
0.1285286783042394,0.054328632252010026,
0.1285785536159601,0.04159341337031101,
0.1286284289276808,0.009246655679444622,
0.1286783042394015,0.031003863082917017,
0.1287281795511222,0.022790682005134767,
0.12877805486284288,0.006907878804921587,
0.1288279301745636,0.03065678617177812,
0.1288778054862843,0.029265765666732477,
0.12892768079800498,0.005418896994285872,
0.1289775561097257,0.004916642969913388,
0.12902743142144638,0.02801502248775802,
0.12907730673316709,0.019766006438148805,
0.12912718204488777,0.010582023666310156,
0.12917705735660848,0.016551524182122124,
0.1292269326683292,0.02260942973001803,
0.12927680798004987,0.04735063562548579,
0.12932668329177058,0.02190637582760318,
0.12937655860349126,0.045382047289298524,
0.12942643391521197,0.021842097982629153,
0.12947630922693268,0.03943885868403206,
0.12952618453865336,0.07583885127333248,
0.12957605985037407,0.02837295446204461,
0.12962593516209475,0.03407987456560199,
0.12967581047381546,0.038920458470707506,
0.12972568578553617,0.039066072917670294,
0.12977556109725685,0.022287820336580222,
0.12982543640897756,0.024623511445806885,
0.12987531172069824,0.03159512966678218,
0.12992518703241895,0.029454812175554863,
0.12997506234413966,0.02863949972174719,
0.13002493765586035,0.02168528830777111,
0.13007481296758105,0.029963265667113773,
0.13012468827930174,0.01620184738083702,
0.13017456359102245,0.013296707872519454,
0.13022443890274316,0.00917138200912708,
0.13027431421446384,0.031319937686367955,
0.13032418952618455,0.005575417931844913,
0.13037406483790523,0.010257496749135873,
0.13042394014962594,0.01955156157637926,
0.13047381546134662,0.05189362692160872,
0.13052369077306733,0.03982251445218403,
0.13057356608478804,0.033668780324480695,
0.13062344139650872,0.028968237503285303,
0.13067331670822943,-0.014381871960838101,
0.1307231920199501,0.05040513567683752,
0.13077306733167082,0.044823185161451916,
0.13082294264339153,0.011328997716265873,
0.13087281795511221,0.03522040420387175,
0.13092269326683292,0.023047923240909905,
0.1309725685785536,0.06083210468529221,
0.13102244389027431,0.037628824782205125,
0.13107231920199502,0.026567208486801618,
0.1311221945137157,0.006049484701407471,
0.13117206982543642,0.050965533870729184,
0.1312219451371571,0.023443336297501075,
0.1312718204488778,0.029359417316683737,
0.13132169576059852,0.017543466180118483,
0.1313715710723192,0.04285283973898504,
0.1314214463840399,0.026015596483521884,
0.1314713216957606,0.03326767646997331,
0.1315211970074813,0.039816815113228265,
0.13157107231920198,0.0046139102358883875,
0.1316209476309227,0.017563932691921212,
0.1316708229426434,0.007049956244995895,
0.13172069825436408,0.008580005277807203,
0.1317705735660848,-0.007036356255422448,
0.13182044887780547,0.03787369858039823,
0.13187032418952618,0.02360958526849829,
0.1319201995012469,-0.0029358599654306025,
0.13197007481296757,0.041881471023392916,
0.13201995012468828,0.05801315307255667,
0.13206982543640897,0.010085682198189044,
0.13211970074812968,0.04904739394734811,
0.13216957605985039,0.056333171055247835,
0.13221945137157107,0.02367057852668964,
0.13226932668329178,0.019523884607581244,
0.13231920199501246,0.03311018766211992,
0.13236907730673317,0.02578260622115878,
0.13241895261845388,0.039183900730237635,
0.13246882793017456,0.023374796425120553,
0.13251870324189527,0.02511984629620517,
0.13256857855361595,0.004497658599933459,
0.13261845386533666,0.032608112216434795,
0.13266832917705737,0.02025374045321246,
0.13271820448877805,-0.003792568371567325,
0.13276807980049876,0.026866035069501092,
0.13281795511221944,0.009827137625715443,
0.13286783042394015,0.012132169571678357,
0.13291770573566083,0.029756744635544723,
0.13296758104738154,0.010406331119183205,
0.13301745635910225,0.012230461418119539,
0.13306733167082294,0.040943006487220365,
0.13311720698254365,0.04507351343647541,
0.13316708229426433,0.025191924745309822,
0.13321695760598504,0.0102367902818283,
0.13326683291770575,0.019259685966959747,
0.13331670822942643,0.027872377284815907,
0.13336658354114714,0.00773967900825912,
0.13341645885286782,0.01580929485250028,
0.13346633416458853,0.036328881812941416,
0.13351620947630924,0.02045044838824856,
0.13356608478802992,0.008881834108439146,
0.13361596009975063,0.024308964405528297,
0.1336658354114713,0.029155231927446547,
0.13371571072319202,0.029334868114787756,
0.13376558603491273,0.04040929891974514,
0.1338154613466334,0.027413107727461937,
0.13386533665835412,0.019648229561206088,
0.1339152119700748,0.013196360492065719,
0.13396508728179551,0.01614468171863817,
0.1340149625935162,0.009559056948830559,
0.1340648379052369,0.012377898102052183,
0.13411471321695762,0.028352007006833768,
0.1341645885286783,0.020068856267311655,
0.134214463840399,0.0473856074027023,
0.1342643391521197,0.01471730854196173,
0.1343142144638404,0.01900858480707452,
0.1343640897755611,0.01946679667678024,
0.1344139650872818,-0.0014976766494169853,
0.1344638403990025,0.022256232749462906,
0.13451371571072318,0.017354662837592922,
0.1345635910224439,0.007784324755997669,
0.1346134663341646,0.024461237393401607,
0.13466334164588528,-0.015264746137861164,
0.134713216957606,0.023929502466370944,
0.13476309226932667,0.025574645864873104,
0.13481296758104738,0.009734128396399363,
0.1348628428927681,-0.016397305021260675,
0.13491271820448877,0.043929238970488844,
0.13496259351620948,0.010011493659584234,
0.13501246882793017,-0.005325074570121333,
0.13506234413965088,0.0277649752303087,
0.13511221945137158,-0.01081584970113576,
0.13516209476309227,0.0006576776450638519,
0.13521197007481298,0.0014268912319927388,
0.13526184538653366,0.009600971449528074,
0.13531172069825437,0.027501387641306607,
0.13536159600997505,0.008246028925002997,
0.13541147132169576,0.014860367064313875,
0.13546134663341647,0.005973329562834527,
0.13551122194513715,-0.00014991070680502386,
0.13556109725685786,-0.005781038452931807,
0.13561097256857854,0.0062153949028918316,
0.13566084788029925,0.015443591605956434,
0.13571072319201996,-0.004297165281854823,
0.13576059850374064,0.00466742973054257,
0.13581047381546135,-0.007818766264681894,
0.13586034912718203,0.004740775865909886,
0.13591022443890274,-0.0015338012189449121,
0.13596009975062345,0.00672558035580297,
0.13600997506234414,0.02676177524215871,
0.13605985037406484,-0.017066249075948017,
0.13610972568578553,-0.011103288733964666,
0.13615960099750624,-0.008025387218000007,
0.13620947630922695,0.004813301880839331,
0.13625935162094763,-0.001117364813609109,
0.13630922693266834,-0.0018255082675390465,
0.13635910224438902,-0.02722637799974129,
0.13640897755610973,0.02423662875581211,
0.1364588528678304,0.0058956546004394084,
0.13650872817955112,-0.014409641653590387,
0.13655860349127183,0.016013935530262112,
0.1366084788029925,0.005906278088145425,
0.13665835411471322,-0.0008763366131550169,
0.1367082294264339,0.012200584392449601,
0.1367581047381546,0.0013245501569961948,
0.13680798004987532,0.0015272553346378775,
0.136857855361596,-0.018024652486838974,
0.1369077306733167,-0.003661319784538075,
0.1369576059850374,-0.003341754205151605,
0.1370074812967581,-0.01746456372066118,
0.13705735660847881,-0.01449748075890604,
0.1371072319201995,0.017920610838327175,
0.1371571072319202,-0.007778647315841028,
0.1372069825436409,0.022091715020083766,
0.1372568578553616,0.021670117162033844,
0.1373067331670823,-0.014010410601142853,
0.137356608478803,-0.020019998411961157,
0.1374064837905237,-0.026989042207167323,
0.13745635910224438,-0.00130825388275905,
0.1375062344139651,0.006199848197177563,
0.1375561097256858,-0.013056373387972622,
0.13760598503740648,-0.010484086031594383,
0.1376558603491272,0.011789024699696745,
0.13770573566084787,-0.02209943637555345,
0.13775561097256858,-0.024033692207477288,
0.13780548628428926,0.022179939049763897,
0.13785536159600997,0.0007078232271043958,
0.13790523690773068,-0.012727961275200123,
0.13795511221945136,0.0004224220773409717,
0.13800498753117207,0.021148200270007737,
0.13805486284289276,-0.000767031435024536,
0.13810473815461347,-0.0025789587728245753,
0.13815461346633418,-0.009956697772009538,
0.13820448877805486,-0.02133520881321021,
0.13825436408977557,-0.01982916047375749,
0.13830423940149625,0.013841582917070834,
0.13835411471321696,0.013988320486018634,
0.13840399002493767,-0.011904463590570038,
0.13845386533665835,0.005639468925766238,
0.13850374064837906,-0.009619059432258001,
0.13855361596009974,-0.02228374897955552,
0.13860349127182045,-0.02397666766808944,
0.13865336658354116,0.00032935086602770263,
0.13870324189526184,-0.012895918568425981,
0.13875311720698255,0.0027216749926115037,
0.13880299251870323,0.013397670964569217,
0.13885286783042394,-0.0004629912457346456,
0.13890274314214462,-0.039168889014449225,
0.13895261845386533,-0.016388481178873822,
0.13900249376558604,-0.0267853559124009,
0.13905236907730673,-0.004552183736847357,
0.13910224438902744,-0.011546801254611194,
0.13915211970074812,-0.016951552321194774,
0.13920199501246883,-0.009686829755730547,
0.13925187032418954,-0.030460832642554857,
0.13930174563591022,0.005988814402865842,
0.13935162094763093,-0.012216982251130397,
0.1394014962593516,-0.02224747321903653,
0.13945137157107232,0.028673398123939473,
0.13950124688279303,-0.018136109879940007,
0.1395511221945137,-0.03247882518933565,
0.13960099750623442,-0.010118608805285667,
0.1396508728179551,-0.021750161304946638,
0.1397007481296758,-0.02020869982555637,
0.13975062344139652,-0.01746733048720988,
0.1398004987531172,0.002809817469800857,
0.1398503740648379,0.014056473801617881,
0.1399002493765586,-0.029085332188906746,
0.1399501246882793,-0.04680329137455049,
0.14,0.0030327777044786095,
0.1400498753117207,0.006200390423040466,
0.1400997506234414,-0.01987840794137997,
0.1401496259351621,-0.002972669590903744,
0.1401995012468828,-0.014667063761902334,
0.14024937655860348,-0.00683561861082719,
0.1402992518703242,0.02093109711667694,
0.1403491271820449,-0.016773835960606304,
0.14039900249376558,-0.013881894452123351,
0.1404488778054863,-0.021351249316747783,
0.14049875311720697,-0.019107845541072643,
0.14054862842892768,-0.024454548190302985,
0.1405985037406484,0.008317123624403283,
0.14064837905236907,-0.0015105969929432098,
0.14069825436408978,-0.0066247776945233434,
0.14074812967581046,0.009526386259934558,
0.14079800498753117,-0.01280661612374496,
0.14084788029925188,-0.004284526341667951,
0.14089775561097256,-0.009636574911221739,
0.14094763092269327,0.005803972229099636,
0.14099750623441396,-0.016899349710274868,
0.14104738154613466,-0.028920601386483176,
0.14109725685785537,-0.021214134599196695,
0.14114713216957606,0.00034573765636447887,
0.14119700748129677,-0.0007913521414450488,
0.14124688279301745,0.002877709103210852,
0.14129675810473816,-0.0010143612899872131,
