time,amplitude,label
0.0,-0.015151536184034779,
4.987531172069826e-05,0.0017937721837214104,
9.975062344139652e-05,-0.005676200802616495,
0.00014962593516209475,-0.02079890884099137,
0.00019950124688279303,-0.0009024773971983927,
0.00024937655860349125,-0.028499984042010148,
0.0002992518703241895,-0.019187087718264863,
0.00034912718204488776,-0.004236958856182988,
0.00039900249376558606,-0.048435633171852926,
0.0004488778054862843,-0.0018365341828284042,
0.0004987531172069825,-0.00800347621852629,
0.0005486284289276808,-0.03752298379817437,
0.000598503740648379,-0.006910234771096115,
0.0006483790523690773,-0.011697985796348778,
0.0006982543640897755,-0.027404637229406097,
0.0007481296758104738,-0.005038651660483853,
0.0007980049875311721,-0.027439512930418304,
0.0008478802992518703,-0.015219552553681993,
0.0008977556109725686,-0.04039384947139983,
0.0009476309226932668,-0.02446932867002857,
0.000997506234413965,-0.034667731457034376,
0.0010473815461346633,-0.016931275242279973,
0.0010972568578553616,-0.014896235721580883,
0.00114713216957606,0.0088934816297511,
0.001197007481296758,-0.0006015650306851576,
0.0012468827930174563,-0.002888426732885311,
0.0012967581047381546,-0.007302256295950771,
0.001346633416458853,-0.012467173403235388,
0.001396508728179551,0.007295879970852948,
0.0014463840399002493,-0.04151062640076507,
0.0014962593516209476,-0.02559025063052367,
0.001546134663341646,0.0013756744330396115,
0.0015960099750623442,0.005622420390078684,
0.0016458852867830423,0.0007697785455493891,
0.0016957605985037406,-0.016784448475640694,
0.001745635910224439,-0.01891472507353727,
0.0017955112219451373,-0.009485153374317446,
0.0018453865336658353,-0.029042794397296276,
0.0018952618453865336,-0.03268490663519597,
0.001945137157107232,-0.004859385348423027,
0.00199501246882793,0.004293389681900513,
0.0020448877805486283,-0.04999249531239061,
0.0020947630922693266,-0.040590369869355936,
0.002144638403990025,-0.014360321268103833,
0.0021945137157107233,-0.0065381999830773085,
0.0022443890274314216,-0.006592699907944373,
0.00229426433915212,-0.04002124666463691,
0.0023441396508728177,-0.020423586199415682,
0.002394014962593516,-0.024775270219956094,
0.0024438902743142144,-0.013241749486278778,
0.0024937655860349127,-0.020973806707932155,
0.002543640897755611,-0.001258631030695196,
0.0025935162094763093,-0.030787747630419,
0.0026433915211970076,-0.03569461386843255,
0.002693266832917706,-0.016062580799883357,
0.002743142144638404,-0.012314177586080843,
0.002793017456359102,-0.04120388779208127,
0.0028428927680798004,-0.026785838502948064,
0.0028927680798004987,-0.04116762619797387,
0.002942643391521197,-0.005183129084892803,
0.0029925187032418953,-0.004532587306112709,
0.0030423940149625936,-0.03899612915283909,
0.003092269326683292,-0.007383988058330992,
0.00314214463840399,-0.004146134033840393,
0.0031920199501246885,-0.013338853153513547,
0.0032418952618453864,-0.004089349468531043,
0.0032917705735660847,0.0020984745469329914,
0.003341645885286783,-0.02251217289512743,
0.0033915211970074813,-0.035535548236050804,
0.0034413965087281796,-0.0066818260378023915,
0.003491271820448878,-0.01620296150696319,
0.003541147132169576,-0.03787641583041371,
0.0035910224438902745,-0.025733919738520752,
0.0036408977556109724,-0.02345320923580745,
0.0036907730673316707,-0.04224566366444925,
0.003740648379052369,-0.020293662125837206,
0.0037905236907730673,-0.015992309103824275,
0.0038403990024937656,-0.024935906565580424,
0.003890274314214464,-0.0293044085659413,
0.003940149625935162,-0.00970582187456782,
0.00399002493765586,0.009712816275841332,
0.004039900249376558,0.013648807172588373,
0.004089775561097257,-0.032612296460513085,
0.004139650872817955,-0.03828963600538382,
0.004189526184538653,-0.019817960690932546,
0.004239401496259352,0.014850682981244437,
0.00428927680798005,-0.014638468729866709,
0.004339152119700748,0.0032757031802649467,
0.0043890274314214465,0.005332426538243484,
0.004438902743142145,0.011506627532114056,
0.004488778054862843,-0.02709458353444635,
0.004538653366583541,-0.02665657270133361,
0.00458852867830424,-0.035056595250883504,
0.004638403990024938,-0.02976995310964095,
0.0046882793017456355,0.0001843266675437185,
0.004738154613466334,-0.020419864435663338,
0.004788029925187032,-0.042289511387174766,
0.00483790523690773,-0.011558201365814473,
0.004887780548628429,-0.02495983772763708,
0.004937655860349127,-0.004530419235325987,
0.004987531172069825,-0.024293527922323335,
0.005037406483790524,-0.03300005406313346,
0.005087281795511222,-0.005104735934237287,
0.00513715710723192,-0.036818488631950155,
0.0051870324189526185,0.008451779920167816,
0.005236907730673317,0.015344786532101381,
0.005286783042394015,-0.0029705925987102456,
0.0053366583541147134,-0.019727306554679195,
0.005386533665835412,-0.01848358345315027,
0.00543640897755611,-0.02132320703732315,
0.005486284289276808,0.007276031819227882,
0.005536159600997507,-0.01840474483377262,
0.005586034912718204,-0.016157420162014977,
0.005635910224438902,-0.04322860959353645,
0.005685785536159601,-0.02350237455246729,
0.005735660847880299,0.017016103732109412,
0.005785536159600997,-0.03684708718266411,
0.005835411471321696,0.008424552324732637,
0.005885286783042394,-0.02861324653915595,
0.005935162094763092,-0.022834894477092582,
0.0059850374064837905,0.009835234477952412,
0.006034912718204489,0.009376419014520607,
0.006084788029925187,-0.0037916102697243977,
0.0061346633416458855,0.0024682567242027267,
0.006184538653366584,0.0055956825156146354,
0.006234413965087282,0.011856391225980221,
0.00628428927680798,-0.01499100710270962,
0.006334164588528679,-0.0041241543493953465,
0.006384039900249377,0.0003204014737622114,
0.006433915211970074,0.004177419935064932,
0.006483790523690773,0.007228330287337579,
0.006533665835411471,0.015278461283361945,
0.006583541147132169,-0.004460163270993407,
0.006633416458852868,0.019089192041194882,
0.006683291770573566,0.0009462847497266735,
0.006733167082294264,0.008623417255053036,
0.0067830423940149626,-0.02099237608399564,
0.006832917705735661,-0.011349431387775229,
0.006882793017456359,0.002642706675623296,
0.0069326683291770575,-0.004731789955978119,
0.006982543640897756,0.014547556929260089,
0.007032418952618454,-0.004530314645336485,
0.007082294264339152,0.022196756150989923,
0.007132169576059851,-0.010240698960814105,
0.007182044887780549,-0.0010893529091193452,
0.007231920199501247,0.00027082846958874704,
0.007281795511221945,0.017883165880135683,
0.007331670822942643,-0.017049076406301985,
0.007381546134663341,-0.001381724364886813,
0.00743142144638404,-0.0055423280961036025,
0.007481296758104738,0.011082679525579375,
0.007531172069825436,-0.014818116586115947,
0.007581047381546135,-0.014508582072769196,
0.007630922693266833,-0.00616130853549686,
0.007680798004987531,-0.020883270101057397,
0.0077306733167082295,0.014762779111180223,
0.007780548628428928,0.011606322783377254,
0.007830423940149626,0.015499903183008314,
0.007880299251870324,0.01778409659470531,
0.007930174563591023,0.011401813041001473,
0.00798004987531172,0.01379296874259351,
0.00802992518703242,0.008180992308357225,
0.008079800498753117,-0.006314923834024183,
0.008129675810473816,-0.013909374489872907,
0.008179551122194513,0.028065594341173773,
0.008229426433915213,0.015300563968789316,
0.00827930174563591,0.02118437728307117,
0.00832917705735661,-0.010466719904120403,
0.008379052369077307,0.01843799932886695,
0.008428927680798006,0.006689962635113039,
0.008478802992518703,-0.010946713460686045,
0.0085286783042394,0.012211628227318791,
0.0085785536159601,0.019658291720980825,
0.008628428927680797,0.009095304116241045,
0.008678304239401496,0.0013306233047744014,
0.008728179551122194,0.01664806379873771,
0.008778054862842893,-0.002573664662871053,
0.00882793017456359,-0.01889430198820644,
0.00887780548628429,0.018719221670840024,
0.008927680798004987,0.012126282615822388,
0.008977556109725686,-0.006159717026568317,
0.009027431421446384,0.024596115385809,
0.009077306733167083,-0.0008053824365857106,
0.00912718204488778,0.02716261508497815,
0.00917705735660848,0.009179685820997693,
0.009226932668329177,0.03333294389588562,
0.009276807980049876,0.045464386815282046,
0.009326683291770574,0.006740221527658175,
0.009376558603491271,0.02522879427432987,
0.00942643391521197,-0.009341397812342207,
0.009476309226932668,-0.00444739589072278,
0.009526184538653367,-0.017685228960931457,
0.009576059850374064,0.01669566728181478,
0.009625935162094763,0.007525874158118761,
0.00967581047381546,0.011764165442187502,
0.00972568578553616,-0.005626002091024313,
0.009775561097256857,0.025512972932505488,
0.009825436408977557,-0.020993187862416565,
0.009875311720698254,0.02892453042789709,
0.009925187032418953,0.03364485687923258,
0.00997506234413965,-0.014774468114219591,
0.01002493765586035,0.021603830702125924,
0.010074812967581047,-0.006096514749826587,
0.010124688279301746,0.011026573963876792,
0.010174563591022444,0.01690837545181925,
0.010224438902743141,0.02315962068648327,
0.01027431421446384,0.018667435107358486,
0.010324189526184538,-0.014467370417361028,
0.010374064837905237,0.01449798787027009,
0.010423940149625935,0.036838425066141295,
0.010473815461346634,0.04169762366436361,
0.010523690773067331,0.0005827279486618903,
0.01057356608478803,-0.00170114028034192,
0.010623441396508728,0.028735431610045027,
0.010673316708229427,0.005340486172456273,
0.010723192019950124,-0.006676895771653247,
0.010773067331670824,0.028936269924936534,
0.010822942643391521,0.014912850145364968,
0.01087281795511222,0.0022522109108862112,
0.010922693266832918,-0.021223322996831485,
0.010972568578553617,-0.0074243993589593535,
0.011022443890274314,0.0012803594321429551,
0.011072319201995013,0.010155190505724672,
0.01112219451371571,-0.00919210032874172,
0.011172069825436408,-0.0004255635180368672,
0.011221945137157107,0.017821128289176345,
0.011271820448877805,0.04328210687130249,
0.011321695760598504,0.029095158744060032,
0.011371571072319201,0.05260055965338985,
0.0114214463840399,-0.0035749715448438676,
0.011471321695760598,0.02196478356953878,
0.011521197007481297,0.029273478364622386,
0.011571072319201995,0.003612159590894639,
0.011620947630922694,0.008879718657112363,
0.011670822942643391,0.03336835907335601,
0.01172069825436409,-0.006962909820474868,
0.011770573566084788,0.027584060920029792,
0.011820448877805487,0.011623772888877944,
0.011870324189526184,0.018370364722740954,
0.011920199501246884,0.0184327160185151,
0.011970074812967581,0.026046075587935036,
0.012019950124688279,0.004184476622606334,
0.012069825436408978,0.02049322587301957,
0.012119700748129675,-0.001670187203481846,
0.012169576059850374,0.0033096495187446735,
0.012219451371571072,0.03009966120550446,
0.012269326683291771,0.024837815858153277,
0.012319201995012468,0.034598885858999576,
0.012369077306733168,0.005828729692495382,
0.012418952618453865,-0.00204032676338526,
0.012468827930174564,0.02192392454838477,
0.012518703241895262,0.02059231813440926,
0.01256857855361596,0.009458194505197725,
0.012618453865336658,0.004035749843128177,
0.012668329177057357,0.023580563553674706,
0.012718204488778055,0.023383923898454926,
0.012768079800498754,0.009288331963703373,
0.012817955112219451,0.017304331887459164,
0.012867830423940149,0.0034284697916830698,
0.012917705735660848,0.021549334646978356,
0.012967581047381545,-0.007040465131081638,
0.013017456359102245,0.02812458212159033,
0.013067331670822942,0.050967055669689745,
0.013117206982543641,0.002189664095955557,
0.013167082294264339,0.04039607938525726,
0.013216957605985038,0.013053374182948153,
0.013266832917705735,0.040108728278476675,
0.013316708229426434,0.011826197940196377,
0.013366583541147132,0.018255367106584534,
0.013416458852867831,0.0195251350201457,
0.013466334164588529,0.04908092302669433,
0.013516209476309228,0.02158769594479606,
0.013566084788029925,0.03314331571874889,
0.013615960099750624,0.03221684343386168,
0.013665835411471322,0.001965454606013984,
0.01371571072319202,0.022679858662871713,
0.013765586034912718,-0.00024529436470734425,
0.013815461346633416,0.029267281442676228,
0.013865336658354115,0.02671310522976059,
0.013915211970074812,-0.0051541872792966875,
0.013965087281795512,0.020260148413865576,
0.014014962593516209,0.014111157494588213,
0.014064837905236908,0.03900821868239067,
0.014114713216957606,0.0026896170565247103,
0.014164588528678305,0.044118693252997915,
0.014214463840399002,-0.007749448573944846,
0.014264339152119701,0.03729068888914153,
0.014314214463840399,0.011500489191047597,
0.014364089775561098,0.028825093854550288,
0.014413965087281795,-0.001376593536872757,
0.014463840399002495,0.018677239817321105,
0.014513715710723192,0.024747593346522566,
0.01456359102244389,0.001195060646896038,
0.014613466334164589,0.007236618764311427,
0.014663341645885286,0.029053154595132587,
0.014713216957605985,0.02300893552590575,
0.014763092269326683,-0.021475022211320863,
0.014812967581047382,0.005143210056099343,
0.01486284289276808,0.017044100267616442,
0.014912718204488778,0.005361816814340474,
0.014962593516209476,0.0005425759891045101,
0.015012468827930175,0.018648320549962943,
0.015062344139650873,0.005200676006116069,
0.015112219451371572,-0.007478494145021879,
0.01516209476309227,0.013032959727406182,
0.015211970074812968,-0.002290947208120472,
0.015261845386533666,-0.005175023488219884,
0.015311720698254365,0.003103297945571633,
0.015361596009975062,0.006659578850635196,
0.01541147132169576,0.007533872850558182,
0.015461346633416459,0.016030433016070447,
0.015511221945137156,0.009841439333105053,
0.015561097256857856,0.022851850411770104,
0.015610972568578553,0.016735451945497675,
0.015660847880299252,-0.032973225182689574,
0.01571072319201995,-0.005769184254018516,
0.015760598503740647,0.029332228104396143,
0.015810473815461346,0.031008431361398112,
0.015860349127182045,-0.012802652559811991,
0.015910224438902745,0.0106539867265224,
0.01596009975062344,0.009337820604129535,
0.01600997506234414,0.02148977829483172,
0.01605985037406484,0.026196996212009382,
0.016109725685785538,0.025494725238955802,
0.016159600997506234,0.012668022056366694,
0.016209476309226933,0.00966244278534397,
0.016259351620947632,0.0013338771393674453,
0.016309226932668328,0.01977146535334822,
0.016359102244389027,-0.022049259815357367,
0.016408977556109726,0.04713994156239071,
0.016458852867830425,0.0012807502927242942,
0.01650872817955112,-0.009294930770357918,
0.01655860349127182,0.015096589835994104,
0.01660847880299252,-0.009093289415388213,
0.01665835411471322,-0.0005373025398187521,
0.016708229426433914,0.02697294977907605,
0.016758104738154613,0.0027626262188547215,
0.016807980049875312,-0.007386386760908949,
0.01685785536159601,0.011944565120811908,
0.016907730673316707,-0.016938268875092706,
0.016957605985037406,-0.0003346787830178538,
0.017007481296758106,0.006284190243865319,
0.0170573566084788,-0.009245602933088924,
0.0171072319201995,0.013972115421096075,
0.0171571072319202,-0.019594021987587782,
0.0172069825436409,-0.013179528125463925,
0.017256857855361595,0.025342679758822727,
0.017306733167082294,-0.021166350400368527,
0.017356608478802993,-0.030107868585395242,
0.017406483790523692,-0.00577146275363756,
0.017456359102244388,0.004952971246974923,
0.017506234413965087,0.003593955780229162,
0.017556109725685786,0.006091024806842821,
0.017605985037406485,-0.012845373877804109,
0.01765586034912718,-0.01764875899754878,
0.01770573566084788,-0.039253943390567,
0.01775561097256858,-0.020834604974126283,
0.01780548628428928,-0.012353584727071926,
0.017855361596009974,-0.00259526352030656,
0.017905236907730673,-0.002472684471519072,
0.017955112219451373,-0.0015842742654812044,
0.018004987531172068,-0.003808937537778432,
0.018054862842892767,-0.010271869597477133,
0.018104738154613467,0.003283241155843121,
0.018154613466334166,0.006926989948215885,
0.01820448877805486,-0.026504876171236754,
0.01825436408977556,0.022420224944998096,
0.01830423940149626,0.011128661553303144,
0.01835411471321696,0.002307640812711546,
0.018403990024937655,0.014772317685835966,
0.018453865336658354,0.008527106837732605,
0.018503740648379053,-0.012967576282848496,
0.018553615960099752,-0.035509992874381925,
0.018603491271820448,-0.022537978985982282,
0.018653366583541147,-0.026926801259425606,
0.018703241895261846,-0.0056091477267027606,
0.018753117206982542,0.010235586178508812,
0.01880299251870324,0.0017307729929686936,
0.01885286783042394,0.012369757347023447,
0.01890274314214464,-0.014469145389997195,
0.018952618453865335,-0.023539095332541116,
0.019002493765586034,-0.011760470757433509,
0.019052369077306733,-0.019646011410418066,
0.019102244389027433,-0.010659492130178501,
0.01915211970074813,0.010734314429769295,
0.019201995012468828,-0.009654924180645834,
0.019251870324189527,-0.014462889855041763,
0.019301745635910226,-0.012758307006317016,
0.01935162094763092,-0.01532052053144415,
0.01940149625935162,-0.0034877592773211816,
0.01945137157107232,-0.011620348358349037,
0.01950124688279302,-0.026028476890658566,
0.019551122194513715,-0.010953029725386256,
0.019600997506234414,0.015360179430481373,
0.019650872817955113,-0.013634133562810732,
0.01970074812967581,0.0034621360423844824,
0.019750623441396508,0.007631496108702897,
0.019800498753117207,0.0006570708886051973,
0.019850374064837906,0.006061466550058708,
0.019900249376558602,0.0013148964023998021,
0.0199501246882793,-0.025745139011415216,
0.02,0.014035765432606307,
0.0200498753117207,-0.009673304132422168,
0.020099750623441395,-0.018914910791088698,
0.020149625935162094,-0.016463916138257206,
0.020199501246882794,-0.016317914405968137,
0.020249376558603493,-0.01960197270885719,
0.02029925187032419,-0.044971824208928216,
0.020349127182044888,0.014964014459346458,
0.020399002493765587,-0.024033693670598405,
0.020448877805486283,-0.015039129941308012,
0.02049875311720698,0.012300001755663011,
0.02054862842892768,0.016420674524288137,
0.02059850374064838,-0.004507697842921656,
0.020648379052369076,-0.005152009528669104,
0.020698254364089775,-0.04911742043432049,
0.020748129675810474,-0.0005447051885165005,
0.020798004987531173,-0.016171655342088902,
0.02084788029925187,-0.03801465225729106,
0.020897755610972568,-0.019250052327040718,
0.020947630922693267,-0.013515247718485026,
0.020997506234413967,0.0030739266675224725,
0.021047381546134662,-0.003297474727373566,
0.02109725685785536,-0.027660143118756052,
0.02114713216957606,-0.0010328553804929003,
0.02119700748129676,-0.009479611164005072,
0.021246882793017455,-0.0014131223453729101,
0.021296758104738155,-0.0023471783205273565,
0.021346633416458854,-0.02233138608193988,
0.02139650872817955,0.0077998340705817334,
0.02144638403990025,-0.03517052672843603,
0.021496259351620948,-0.01497184674944758,
0.021546134663341647,-0.015457980512402728,
0.021596009975062343,-0.018743957247828125,
0.021645885286783042,-0.010521633133246224,
0.02169576059850374,-0.029776658174702375,
0.02174563591022444,-0.0033274597132898973,
0.021795511221945136,-0.032754453967543236,
0.021845386533665835,-0.00514643994973892,
0.021895261845386534,-0.01192955227341666,
0.021945137157107233,0.006081012196460997,
0.02199501246882793,-0.02183872497891886,
0.02204488778054863,-0.03316173004343452,
0.022094763092269327,-0.02894431217838881,
0.022144638403990027,-0.022828480598702475,
0.022194513715710722,-0.007495897537549102,
0.02224438902743142,0.03922970016599832,
0.02229426433915212,-0.023488639689543275,
0.022344139650872816,-0.03969997790921656,
0.022394014962593516,-0.00948714405022199,
0.022443890274314215,-0.026890700923032942,
0.022493765586034914,-0.005098903191871245,
0.02254364089775561,-0.027216451515608114,
0.02259351620947631,-0.05054540019702375,
0.022643391521197008,0.007027898336111785,
0.022693266832917707,-0.028562286646332355,
0.022743142144638403,-0.03523879526503127,
0.022793017456359102,-0.0017703766125838523,
0.0228428927680798,-0.0225380137109084,
0.0228927680798005,-0.03642855836590606,
0.022942643391521196,-0.020895527092500903,
0.022992518703241895,-0.001877985856337451,
0.023042394014962594,-0.04058648789409146,
0.02309226932668329,-0.015359339842162305,
0.02314214463840399,-0.005052008823043956,
0.02319201995012469,-0.02041407432042741,
0.023241895261845388,-0.01980025550926052,
0.023291770573566083,-0.027647332869027874,
0.023341645885286783,-0.009225879460394429,
0.02339152119700748,-0.033936730810983265,
0.02344139650872818,-0.022730921923780616,
0.023491271820448877,-0.01337731693265098,
0.023541147132169576,-0.007170467461374237,
0.023591022443890275,-0.010965159979756372,
0.023640897755610974,-0.022899898544556978,
0.02369077306733167,-0.03166281800533207,
0.02374064837905237,-0.010232254171567815,
0.023790523690773068,0.006333804157735507,
0.023840399002493767,-0.023662524957950376,
0.023890274314214463,-0.008454325721516609,
0.023940149625935162,-0.031359541862093665,
0.02399002493765586,0.0034554830268937464,
0.024039900249376557,-0.0007849494971657947,
0.024089775561097256,-0.016837033857612704,
0.024139650872817955,-0.04162527196011253,
0.024189526184538655,-0.010665312962657884,
0.02423940149625935,-0.03544627762215708,
0.02428927680798005,-0.009744016748628365,
0.02433915211970075,-0.025053601360628626,
0.024389027431421448,-0.021689590047347964,
0.024438902743142144,0.014452804687313876,
0.024488778054862843,-0.009456209052588638,
0.024538653366583542,-0.02643594255767401,
0.02458852867830424,0.0003679509480042902,
0.024638403990024937,0.007682231871354158,
0.024688279301745636,-0.02022502107056298,
0.024738154613466335,0.007782136797513994,
0.02478802992518703,-0.015731833440066283,
0.02483790523690773,-0.011990836705430422,
0.02488778054862843,-0.013363916891030845,
0.02493765586034913,-0.004194621196638328,
0.024987531172069824,-0.015123272893332453,
0.025037406483790523,-0.005536310555133062,
0.025087281795511222,-0.005196640206662023,
0.02513715710723192,-0.0038777331908486385,
0.025187032418952617,-0.020693910418274127,
0.025236907730673316,-0.03184143770486565,
0.025286783042394016,-0.0014425652379226831,
0.025336658354114715,0.015510778747216162,
0.02538653366583541,-0.005287505144048635,
0.02543640897755611,-0.003759793709548661,
0.02548628428927681,-0.01804281860510233,
0.025536159600997508,-0.022559825010314883,
0.025586034912718204,-0.03228831010772863,
0.025635910224438903,0.005616893944128511,
0.025685785536159602,-0.04006089752116099,
0.025735660847880298,0.0037565094574418274,
0.025785536159600997,0.010489126960371496,
0.025835411471321696,0.0033603865726462047,
0.025885286783042395,-0.028909037662538946,
0.02593516209476309,-0.026148528188817657,
0.02598503740648379,0.02538764205250903,
0.02603491271820449,-0.013315189677501515,
0.02608478802992519,-0.0005019010555725092,
0.026134663341645884,-0.016418473306212655,
0.026184538653366583,-0.02173907722182708,
0.026234413965087282,-0.014818958597301805,
0.02628428927680798,0.01716102569603172,
0.026334164588528677,-0.012507335359647749,
0.026384039900249377,0.00234117708687725,
0.026433915211970076,0.002033619140621694,
0.02648379052369077,-0.008995337648318518,
0.02653366583541147,-0.015595963660222461,
0.02658354114713217,-0.014244846278319236,
0.02663341645885287,0.00209721863890452,
0.026683291770573565,-0.018633156552945437,
0.026733167082294264,-0.008598841895789158,
0.026783042394014963,-0.007618704509264155,
0.026832917705735662,0.00623703090547979,
0.026882793017456358,-0.02674771889233556,
0.026932668329177057,-0.01350214126087832,
0.026982543640897756,-0.005965503157387376,
0.027032418952618455,-0.015282081133826364,
0.02708229426433915,-0.01155041881925621,
0.02713216957605985,0.0020529620196488895,
0.02718204488778055,-0.030175490123617078,
0.02723192019950125,0.0061642893758675375,
0.027281795511221944,-0.011406068783713336,
0.027331670822942643,-0.011060219558127133,
0.027381546134663343,0.01790525825250034,
0.02743142144638404,0.03121879234357508,
0.027481296758104738,0.021237963947338966,
0.027531172069825437,-0.020598826873552887,
0.027581047381546136,0.0028286309278170913,
0.02763092269326683,-0.02299748541813573,
0.02768079800498753,0.010669987714414745,
0.02773067331670823,0.01527153722072817,
0.02778054862842893,0.01501927316792219,
0.027830423940149625,-0.011255457639747909,
0.027880299251870324,0.022165601159452576,
0.027930174563591023,0.003393513420720637,
0.027980049875311722,0.003944004284454836,
0.028029925187032418,0.003569325593357711,
0.028079800498753117,0.0309539067979124,
0.028129675810473816,0.023081523108096247,
0.028179551122194512,0.004971220814768144,
0.02822942643391521,-0.0012519705782538474,
0.02827930174563591,0.012593701997443908,
0.02832917705735661,-0.010690060459984253,
0.028379052369077305,-0.00012198828444186932,
0.028428927680798004,0.006199893262793351,
0.028478802992518704,0.013101990647984403,
0.028528678304239403,0.022894028225023365,
0.0285785536159601,0.027964475109429152,
0.028628428927680798,0.0056995559963877555,
0.028678304239401497,-0.0022115077322315373,
0.028728179551122196,0.041773165337691646,
0.02877805486284289,0.00639955600136701,
0.02882793017456359,0.015186961741740246,
0.02887780548628429,0.036445977616114664,
0.02892768079800499,0.0064815016816249195,
0.028977556109725685,0.027934024366419653,
0.029027431421446384,0.002595477509621604,
0.029077306733167083,-0.006430131785838917,
0.02912718204488778,0.0031766538442427293,
0.029177057356608478,0.001600775147924175,
0.029226932668329177,-0.0027208308544037843,
0.029276807980049877,0.0216369843009555,
0.029326683291770572,-0.005476460087011073,
0.02937655860349127,0.022433218606938393,
0.02942643391521197,-0.004992904311518621,
0.02947630922693267,0.013561795042165797,
0.029526184538653365,0.0217031095429435,
0.029576059850374065,0.017119733437045065,
0.029625935162094764,0.017925083063212888,
0.029675810473815463,0.012946940732437453,
0.02972568578553616,0.013047158978507282,
0.029775561097256858,0.017632876254334427,
0.029825436408977557,0.04937197363195088,
0.029875311720698253,0.026371861575230603,
0.029925187032418952,0.029251412768473012,
0.02997506234413965,0.007987730493692086,
0.03002493765586035,0.011240542350725932,
0.030074812967581046,0.032174523852825127,
0.030124688279301745,0.011055042973558008,
0.030174563591022444,0.006744360730188595,
0.030224438902743143,0.03226048938871871,
0.03027431421446384,0.0007739165647280555,
0.03032418952618454,0.025972176532613044,
0.030374064837905237,0.018686372217933702,
0.030423940149625937,0.030872676430839782,
0.030473815461346632,0.03325582861727642,
0.03052369077306733,0.02363810339990834,
0.03057356608478803,0.00403865396001612,
0.03062344139650873,0.003898880572842666,
0.030673316708229426,-0.017735337362698687,
0.030723192019950125,0.0015460454155831922,
0.030773067331670824,0.001249923813726097,
0.03082294264339152,0.021143432704614544,
0.03087281795511222,0.032004969004936726,
0.030922693266832918,0.034464420543319926,
0.030972568578553617,0.02133547053006537,
0.031022443890274313,0.005166073237171508,
0.031072319201995012,0.010064481784536988,
0.03112219451371571,0.022550114058790937,
0.03117206982543641,0.023912570844092904,
0.031221945137157106,0.02419780047381236,
0.03127182044887781,0.011645403833396992,
0.031321695760598504,0.033432401183710984,
0.0313715710723192,0.02802304929760393,
0.0314214463840399,0.011500373901491579,
0.0314713216957606,0.032434023590000166,
0.031521197007481294,-0.004320498848910462,
0.031571072319202,-0.011228153052922307,
0.03162094763092269,0.04378808500812198,
0.03167082294264339,0.035380041214395086,
0.03172069825436409,0.047110633883125086,
0.03177057356608479,0.010674421176392503,
0.03182044887780549,0.037911123091344284,
0.031870324189526185,0.029960938886550346,
0.03192019950124688,0.01561348646372367,
0.03197007481296758,0.025332226770695455,
0.03201995012468828,0.0318581168254817,
0.032069825436408975,0.028895183562989302,
0.03211970074812968,0.0328788131334028,
0.03216957605985037,0.014435477305009558,
0.032219451371571076,0.026850007038414222,
0.03226932668329177,0.026959230665910702,
0.03231920199501247,0.014922094624110595,
0.03236907730673317,0.01095662783079306,
0.032418952618453865,0.017287085973262846,
0.03246882793017456,0.01427513895519197,
0.032518703241895264,0.02665000943533383,
0.03256857855361596,0.0359571117173826,
0.032618453865336655,0.021003445993683468,
0.03266832917705736,0.044670670504462925,
0.032718204488778053,0.02690122225693791,
0.032768079800498756,0.0391914182850565,
0.03281795511221945,0.014502867215962051,
0.03286783042394015,0.054727450630030046,
0.03291770573566085,0.014224011506595627,
0.032967581047381546,0.01941136234205457,
0.03301745635910224,0.029097372299856896,
0.033067331670822944,0.014115187059614297,
0.03311720698254364,0.026711345181993838,
0.03316708229426434,0.03481942579648084,
0.03321695760598504,0.025289625121511266,
0.033266832917705734,0.01439076146325061,
0.03331670822942644,0.043141613595075304,
0.03336658354114713,0.057605866514750095,
0.03341645885286783,0.028837910293866304,
0.03346633416458853,0.01955540740879415,
0.033516209476309226,0.028765207233254552,
0.03356608478802992,0.024907490775827996,
0.033615960099750625,0.019113180431629247,
0.03366583541147132,0.01636514157003084,
0.03371571072319202,0.03108055941580245,
0.03376558603491272,0.018929672450174122,
0.033815461346633414,0.01893201922724578,
0.03386533665835412,0.018003082113717775,
0.03391521197007481,0.019331360613672275,
0.03396508728179551,0.0007526601213965062,
0.03401496259351621,0.019799651435212232,
0.03406483790523691,0.021319514642694447,
0.0341147132169576,0.04507165944785875,
0.034164588528678305,0.02868097163687919,
0.034214463840399,0.035892984281920844,
0.034264339152119704,0.010065095527183446,
0.0343142144638404,0.0009532162102391592,
0.034364089775561095,0.05714266750235282,
0.0344139650872818,0.029361104783671096,
0.03446384039900249,0.004449877299365267,
0.03451371571072319,0.015045589781403468,
0.03456359102244389,0.018560104677018012,
0.03461346633416459,0.04723890243655302,
0.03466334164588529,0.042932936748241,
0.034713216957605986,0.02015571514995685,
0.03476309226932668,0.002969630589352807,
0.034812967581047384,0.03626933795679206,
0.03486284289276808,0.014247936816749952,
0.034912718204488775,0.006992420690316166,
0.03496259351620948,0.007360993516769105,
0.035012468827930174,0.01761029840289725,
0.03506234413965087,0.008225004137944391,
0.03511221945137157,0.006138051762931992,
0.03516209476309227,0.012847150025265345,
0.03521197007481297,0.024126590707941487,
0.035261845386533666,0.03182203365546965,
0.03531172069825436,0.029771814604243177,
0.035361596009975065,0.020828864374392464,
0.03541147132169576,-0.0011299172117136425,
0.035461346633416456,0.021711520961759573,
0.03551122194513716,0.023184314458346914,
0.035561097256857854,0.039238924745379086,
0.03561097256857856,0.02329476833540887,
0.03566084788029925,0.021767251680938668,
0.03571072319201995,0.024180007081973792,
0.03576059850374065,-0.013655928904906805,
0.03581047381546135,0.022664782942414908,
0.03586034912718204,-0.013459477597127824,
0.035910224438902745,0.026185376362305772,
0.03596009975062344,0.041207054400510194,
0.036009975062344136,0.009716917149872387,
0.03605985037406484,-0.002982254510209276,
0.036109725685785535,-0.0029274230543612015,
0.03615960099750624,0.0036400265723414617,
0.03620947630922693,-0.0072004293682869785,
0.03625935162094763,0.0012352602525744476,
0.03630922693266833,0.005574224890187015,
0.03635910224438903,0.019015068703493662,
0.03640897755610972,0.005802037839592453,
0.036458852867830426,-0.005701717197760539,
0.03650872817955112,0.02004498046222538,
0.036558603491271824,0.0037162566341930534,
0.03660847880299252,0.02247270936437261,
0.036658354114713215,0.020911940628217794,
0.03670822942643392,0.011059177633918418,
0.036758104738154614,-0.008001415908319098,
0.03680798004987531,0.0023160083383622168,
0.03685785536159601,0.04423881435287293,
0.03690773067331671,0.013937347966301108,
0.0369576059850374,0.0012225462979478618,
0.037007481296758106,0.010420427349258642,
0.0370573566084788,0.034425557105141474,
0.037107231920199504,0.00041415114189485803,
0.0371571072319202,0.02322546873596923,
0.037206982543640896,0.017568224991701176,
0.0372568578553616,0.00377175593663185,
0.037306733167082294,0.024129393384001,
0.03735660847880299,0.010715633147017718,
0.03740648379052369,0.019676745198034792,
0.03745635910224439,0.008517233861077625,
0.037506234413965084,0.0021831836684158144,
0.037556109725685786,-0.00488152366382558,
0.03760598503740648,0.00810095535992863,
0.037655860349127185,0.019643624122714382,
0.03770573566084788,-0.019728422733431585,
0.037755610972568576,-0.003924277890287079,
0.03780548628428928,-0.003608665548137643,
0.037855361596009975,0.003825304455490041,
0.03790523690773067,0.018381544539827887,
0.03795511221945137,-0.0177728486388281,
0.03800498753117207,-0.027021227723716776,
0.03805486284289277,0.0049890279122105,
0.03810473815461347,-0.03732410507746299,
0.03815461346633416,0.022273640222898967,
0.038204488778054865,0.005084294339870062,
0.03825436408977556,0.011704198483845765,
0.03830423940149626,0.021202045222736755,
0.03835411471321696,0.013672786326786347,
0.038403990024937655,-0.01639753170518911,
0.03845386533665835,-0.018672892364561627,
0.03850374064837905,-0.012592875341421401,
0.03855361596009975,-0.005679064126438889,
0.03860349127182045,-0.03300150145904572,
0.03865336658354115,-0.0035617938417446837,
0.03870324189526184,-0.004219731238203333,
0.038753117206982546,-0.023706774851294382,
0.03880299251870324,0.010427720955935945,
0.03885286783042394,0.038814089508052575,
0.03890274314214464,-0.016083238729430228,
0.038952618453865336,-0.005504565167401401,
0.03900249376558604,-0.02136765376031293,
0.039052369077306734,-0.017440081766816246,
0.03910224438902743,-0.02165240709042949,
0.03915211970074813,0.010391146186259102,
0.03920199501246883,-0.007304805781654263,
0.039251870324189524,-0.002039660514218335,
0.039301745635910226,-0.0028074093071862568,
0.03935162094763092,-0.013401382545378305,
0.03940149625935162,-0.027084611968955667,
0.03945137157107232,-0.017615480590835474,
0.039501246882793016,-0.01976038171082222,
0.03955112219451372,-0.0006454403201124094,
0.039600997506234414,0.0031285138885843687,
0.03965087281795511,0.013490995954402143,
0.03970074812967581,-0.01152348403706243,
0.03975062344139651,-0.014716567578194952,
0.039800498753117204,-0.002460848657716508,
0.03985037406483791,-0.007183704676681383,
0.0399002493765586,-0.019795156767677832,
0.039950124688279305,-0.042372811846411285,
0.04,-0.022069042698455672,
0.0400498753117207,0.011663039441534,
0.0400997506234414,-0.009198190559456509,
0.040149625935162095,-0.012119437535153215,
0.04019950124688279,-0.046080563895050185,
0.04024937655860349,-0.019208076464419917,
0.04029925187032419,-0.02233938707855336,
0.040349127182044885,0.02138230453309798,
0.04039900249376559,-0.031058546860686084,
0.04044887780548628,-0.030036960638325127,
0.040498753117206986,-0.030825726678236836,
0.04054862842892768,-0.021152174789030267,
0.04059850374064838,3.170706155594151e-05,
0.04064837905236908,-0.012610736144888307,
0.040698254364089775,-0.017582574577995308,
0.04074812967581047,-0.014728965846800043,
0.040798004987531174,-0.0080094958544526,
0.04084788029925187,-0.02112890388975171,
0.040897755610972565,-0.003469982310685066,
0.04094763092269327,-0.029438152815723418,
0.04099750623441396,-0.019633481451636053,
0.041047381546134666,-0.029053306763298294,
0.04109725685785536,-0.01195467476312114,
0.04114713216957606,-0.04328904214254717,
0.04119700748129676,-0.006106368890109026,
0.041246882793017456,-0.023276255418088414,
0.04129675810473815,-0.026531426817713796,
0.041346633416458854,-0.03375659085009485,
0.04139650872817955,-0.024980793368778793,
0.04144638403990025,-0.0031510064140375764,
0.04149625935162095,-0.005053899990088201,
0.041546134663341644,0.00909341931342426,
0.04159600997506235,-0.029293467703264728,
0.04164588528678304,-0.011375725563224155,
0.04169576059850374,-9.689664857018623e-05,
0.04174563591022444,-0.044581501495373044,
0.041795511221945136,-0.023675957069196348,
0.04184538653366583,-0.051501073583466644,
0.041895261845386535,-0.005965671159859633,
0.04194513715710723,-0.021990725346014216,
0.04199501246882793,-0.014732299144190867,
0.04204488778054863,-0.008045834035198044,
0.042094763092269324,-0.04513117557554886,
0.04214463840399003,-0.025433767412822585,
0.04219451371571072,-0.014985190512746821,
0.04224438902743142,-0.009049811898219417,
0.04229426433915212,0.002844534383320111,
0.04234413965087282,-0.019237118713842802,
0.04239401496259352,-0.029399436929439797,
0.042443890274314215,-0.01703787917709108,
0.04249376558603491,-0.01966946645148604,
0.042543640897755614,-0.023929831633612016,
0.04259351620947631,-0.0073345271699459536,
0.042643391521197005,-0.02908246796346798,
0.04269326683291771,-0.03153809238504835,
0.0427431421446384,-0.01942520152831313,
0.0427930174563591,-0.0026258900410310437,
0.0428428927680798,-0.02924967091350303,
0.0428927680798005,-0.029648588983691104,
0.0429426433915212,-0.01525382677336814,
0.042992518703241896,-0.017040446765784457,
0.04304239401496259,-0.005202290529563161,
0.043092269326683294,0.020115554229936636,
0.04314214463840399,-0.011101879893329496,
0.043192019950124685,-0.007306528167893121,
0.04324189526184539,-0.024071992319371467,
0.043291770573566084,-0.03016584986585196,
0.043341645885286786,-0.031039339059271535,
0.04339152119700748,-0.0013496015511459316,
0.04344139650872818,-0.009105159791716562,
0.04349127182044888,-0.030612362882277477,
0.043541147132169576,-0.006468398638505993,
0.04359102244389027,-0.01260872730283242,
0.043640897755610975,-0.019059600913045097,
0.04369077306733167,-0.017372798884893615,
0.043740648379052366,-0.037015502749272386,
0.04379052369077307,-0.011390361313729972,
0.043840399002493764,-0.01889619311064116,
0.04389027431421447,-0.011156918660951483,
0.04394014962593516,-0.011408359999291108,
0.04399002493765586,-0.01829452911279225,
0.04403990024937656,0.009996287039813022,
0.04408977556109726,-0.01082964756686526,
0.04413965087281795,-0.013112060535700274,
0.044189526184538655,-0.021818121394080264,
0.04423940149625935,-0.008771826645304903,
0.04428927680798005,-0.01016642131580112,
0.04433915211970075,-0.036571422110944565,
0.044389027431421445,-0.021753011022234137,
0.04443890274314215,0.016293566204332872,
0.04448877805486284,6.223323754965711e-05,
0.04453865336658354,-0.008527893214209659,
0.04458852867830424,-0.020833623720640446,
0.04463840399002494,-0.0037154321879840045,
0.04468827930174563,-0.001723625740826764,
0.044738154613466335,-0.021563107299449595,
0.04478802992518703,-0.034206906394939146,
0.044837905236907734,-0.03452909928168793,
0.04488778054862843,-0.006095115324809566,
0.044937655860349125,0.01267783186754978,
0.04498753117206983,0.006661412640427241,
0.045037406483790524,-0.015598675807791135,
0.04508728179551122,-0.025902706183585235,
0.04513715710723192,-0.00655310151418421,
0.04518703241895262,0.01761431849081192,
0.04523690773067331,-0.005043119445931204,
0.045286783042394016,-0.01993883303106491,
0.04533665835411471,-0.026005218813975044,
0.045386533665835414,-0.020264823287769105,
0.04543640897755611,-0.03140967183581676,
0.045486284289276806,-0.006409609506542674,
0.04553615960099751,-0.010064703329606066,
0.045586034912718204,-0.01766650135352442,
0.0456359102244389,-0.009568061454184257,
0.0456857855361596,-0.0033880817224253676,
0.0457356608478803,0.02794674098649761,
0.045785536159601,0.002811292298166437,
0.045835411471321696,-0.003832716143835608,
0.04588528678304239,0.01079297464832719,
0.045935162094763095,-0.033748456065205545,
0.04598503740648379,0.00447017764948143,
0.046034912718204486,0.0031348605908373163,
0.04608478802992519,-0.023977783079046015,
0.046134663341645885,0.0008316109315452602,
0.04618453865336658,0.006976398418079466,
0.04623441396508728,0.004426446799337524,
0.04628428927680798,0.008744334173632438,
0.04633416458852868,0.009286259009151816,
0.04638403990024938,-0.0015201020793770405,
0.04643391521197007,-0.008295820221468724,
0.046483790523690775,-0.0023033031561530467,
0.04653366583541147,0.013745134702773975,
0.04658354114713217,-0.004853877382990654,
0.04663341645885287,0.0021546612270157695,
0.046683291770573565,-0.0057506812432995555,
0.04673316708229427,0.011131008292065366,
0.04678304239401496,-0.004623625187518045,
0.04683291770573566,0.01664132755161566,
0.04688279301745636,0.011042077733599002,
0.04693266832917706,0.004713455687153445,
0.04698254364089775,0.005962655536288511,
0.047032418952618456,0.02972659351439633,
0.04708229426433915,0.01198513559441686,
0.04713216957605985,0.020607269329578175,
0.04718204488778055,0.015480482154387208,
0.047231920199501246,0.027687599575363812,
0.04728179551122195,-0.0048033721414018835,
0.047331670822942644,-0.0021848711116854496,
0.04738154613466334,-0.021474963627864056,
0.04743142144638404,-0.024709761339119597,
0.04748129675810474,-0.01551004521744975,
0.047531172069825434,0.015259656942298172,
0.047581047381546136,-0.0010571982422982462,
0.04763092269326683,0.008517794693563174,
0.047680798004987535,0.029831281904225206,
0.04773067331670823,0.005222386356861868,
0.047780548628428926,0.0007312038758443889,
0.04783042394014963,0.021047056203100212,
0.047880299251870324,-0.00661004412425579,
0.04793017456359102,-0.0001134921677121625,
0.04798004987531172,-0.021648470180510727,
0.04802992518703242,0.021307887633180395,
0.048079800498753114,0.0139155502379905,
0.04812967581047382,0.013842504155101916,
0.04817955112219451,-0.004639998019678309,
0.048229426433915215,0.047696997582396164,
0.04827930174563591,0.027392437547802587,
0.048329177057356607,0.032798743064151384,
0.04837905236907731,0.020854101495748727,
0.048428927680798005,0.024332259686064457,
0.0484788029925187,0.007451579179089613,
0.0485286783042394,-0.0049026063623228856,
0.0485785536159601,0.046389647185081276,
0.048628428927680795,0.010640708541746632,
0.0486783042394015,0.009220194759917486,
0.04872817955112219,0.035375616715426855,
0.048778054862842896,0.02381346088311701,
0.04882793017456359,0.038608121360756475,
0.04887780548628429,0.005274183874344623,
0.04892768079800499,0.008267974439544998,
0.048977556109725685,0.00995744127175158,
0.04902743142144638,-0.002099923512146655,
0.049077306733167084,0.01247990966912296,
0.04912718204488778,0.038638235648004844,
0.04917705735660848,0.004997074589667062,
0.04922693266832918,0.026198113352706328,
0.04927680798004987,-0.0003689827872866997,
0.049326683291770576,0.02559306826111688,
0.04937655860349127,0.03112232194220282,
0.04942643391521197,0.04009563553825464,
0.04947630922693267,0.0053419794768116025,
0.049526184538653366,0.021408893695064758,
0.04957605985037406,0.055957397435125324,
0.049625935162094764,-0.00784599908448205,
0.04967581047381546,0.024515577486709617,
0.04972568578553616,0.021214177842502735,
0.04977556109725686,0.004414573622207886,
0.049825436408977554,0.030879913251478087,
0.04987531172069826,0.017287831401408996,
0.04992518703241895,0.04388983491610014,
0.04997506234413965,0.011392197383269617,
0.05002493765586035,0.011165562063322037,
0.050074812967581046,0.02357779500703226,
0.05012468827930175,-0.00545515752345176,
0.050174563591022445,0.010757609699459885,
0.05022443890274314,0.024236508909098394,
0.05027431421446384,0.031609914885375574,
0.05032418952618454,0.028260307249825964,
0.050374064837905234,0.01316214655706942,
0.05042394014962594,-0.019390610049597218,
0.05047381546134663,0.008308465746444272,
0.05052369077306733,0.029374689882942725,
0.05057356608478803,0.026002104886291573,
0.05062344139650873,0.05219232919933306,
0.05067331670822943,0.006509190998373793,
0.050723192019950125,0.021703629777855234,
0.05077306733167082,0.007657515941944687,
0.050822942643391524,0.02026182774800606,
0.05087281795511222,-0.006477465369171129,
0.050922693266832915,0.025739777771560828,
0.05097256857855362,0.022865724167549135,
0.05102244389027431,0.03352393587078768,
0.051072319201995016,0.011404939151844701,
0.05112219451371571,-0.004606866330573337,
0.05117206982543641,0.0016530277172466072,
0.05122194513715711,0.029360840550840955,
0.051271820448877806,0.037791475038371346,
0.0513216957605985,0.038756070803623664,
0.051371571072319204,0.025449827724938163,
0.0514214463840399,0.012434088372348157,
0.051471321695760595,-0.005141559903224336,
0.0515211970074813,0.006856377202065906,
0.051571072319201994,0.04887681873989209,
0.051620947630922696,0.03317105370261082,
0.05167082294264339,0.0064198504290405335,
0.05172069825436409,0.012320758708409624,
0.05177057356608479,0.015193773131510257,
0.051820448877805486,0.010387110927412178,
0.05187032418952618,0.02648461362985597,
0.051920199501246884,-0.0022780976103608,
0.05197007481296758,0.015079375136579093,
0.052019950124688276,0.014466527969453582,
0.05206982543640898,0.022668551588838605,
0.052119700748129674,0.013633350394061532,
0.05216957605985038,0.02915221347270284,
0.05221945137157107,0.024588768612531956,
0.05226932668329177,0.03867797275203268,
0.05231920199501247,0.0005749065415368189,
0.05236907730673317,0.01674401102225457,
0.05241895261845386,0.010604370524093786,
0.052468827930174565,0.03638600594619565,
0.05251870324189526,0.03800119687844039,
0.05256857855361596,0.037773003788997575,
0.05261845386533666,0.01158363804545133,
0.052668329177057355,0.03203724622056624,
0.05271820448877806,0.05288300725246923,
0.05276807980049875,0.016843677285885015,
0.05281795511221945,0.022056764606424438,
0.05286783042394015,0.026980971980447247,
0.05291770573566085,0.02681169604482347,
0.05296758104738154,0.014077386672438002,
0.053017456359102245,0.04525032478668103,
0.05306733167082294,0.04735857459331802,
0.053117206982543644,0.03209682334390087,
0.05316708229426434,0.022313143382644653,
0.053216957605985035,0.039373896326188436,
0.05326683291770574,0.015746622924419636,
0.053316708229426434,0.04675528000572568,
0.05336658354114713,0.004963705882068081,
0.05341645885286783,0.007713894419257239,
0.05346633416458853,0.02455218306509728,
0.05351620947630923,0.019407432178704182,
0.053566084788029926,0.031562865953587094,
0.05361596009975062,0.025199008787531733,
0.053665835411471324,0.026206858118942643,
0.05371571072319202,0.01999973612661426,
0.053765586034912716,0.035741663487446174,
0.05381546134663342,0.01932523076329834,
0.053865336658354114,0.009614159702921617,
0.05391521197007481,0.026883392673360904,
0.05396508728179551,0.011983249352611691,
0.05401496259351621,0.03143640437623054,
0.05406483790523691,0.029555424488799935,
0.054114713216957606,0.026910036534427677,
0.0541645885286783,0.016088869580466052,
0.054214463840399005,0.007719796605431269,
0.0542643391521197,0.012857009335594504,
0.054314214463840396,0.014829885039849278,
0.0543640897755611,0.02518169220366521,
0.054413965087281795,0.0325117016095231,
0.0544638403990025,0.009180272880584893,
0.05451371571072319,0.023291344515034302,
0.05456359102244389,0.019769036455495978,
0.05461346633416459,0.014367637141514435,
0.05466334164588529,0.028036421115162097,
0.05471321695760598,0.024687032349324116,
0.054763092269326685,0.028341104763966646,
0.05481296758104738,0.001177874119639842,
0.05486284289276808,0.005322085504264539,
0.05491271820448878,0.006089911619393141,
0.054962593516209475,0.018214194580885468,
0.05501246882793018,0.0012076964537825856,
0.05506234413965087,0.03920432785635235,
0.05511221945137157,-0.002898708289785841,
0.05516209476309227,0.003882676918938047,
0.05521197007481297,-0.014916443662436569,
0.05526184538653366,0.004389422348030577,
0.055311720698254366,0.028088191766738737,
0.05536159600997506,0.018999728138261233,
0.05541147132169576,0.018615310285310396,
0.05546134663341646,0.016395331039769458,
0.055511221945137156,0.009535432478634222,
0.05556109725685786,-0.02327772055214486,
0.055610972568578554,0.03362150185469008,
0.05566084788029925,0.0024545484396422852,
0.05571072319201995,0.04309951400460646,
0.05576059850374065,-0.0028919985165271264,
0.055810473815461344,0.011283998809546808,
0.055860349127182046,0.022623173194532546,
0.05591022443890274,-0.010230336478864918,
0.055960099750623445,0.01768489750106437,
0.05600997506234414,-0.0027404554084338208,
0.056059850374064836,0.026680833380573026,
0.05610972568578554,0.017255953911186617,
0.056159600997506234,0.03169577094649701,
0.05620947630922693,0.03546314807591748,
0.05625935162094763,0.019815244871050103,
0.05630922693266833,-0.012680512820445789,
0.056359102244389024,0.030496797130986436,
0.05640897755610973,0.01711268854322366,
0.05645885286783042,-0.0012431440322112977,
0.056508728179551125,-0.0012405070506508707,
0.05655860349127182,0.015361050361713459,
0.056608478802992516,-0.006067293101729992,
0.05665835411471322,0.007467591725823559,
0.056708229426433915,0.023744732574979784,
0.05675810473815461,-0.006097697432951575,
0.05680798004987531,0.022916449125146218,
0.05685785536159601,0.003770295838147056,
0.05690773067331671,-0.008550670351135974,
0.05695760598503741,-0.0190289780027069,
0.0570074812967581,0.0280836284501495,
0.057057356608478806,-0.0011717976523351837,
0.0571072319201995,-0.005001255236586161,
0.0571571072319202,-0.0033871279172870503,
0.0572069825436409,0.011200260881467446,
0.057256857855361595,-0.01092420931869184,
0.05730673316708229,-0.027772737801461438,
0.057356608478802994,0.008701455865489108,
0.05740648379052369,0.03615720812079354,
0.05745635910224439,0.012946235340668268,
0.05750623441396509,-0.006807414109230397,
0.05755610972568578,0.009712819979434026,
0.057605985037406486,-0.016013788019361846,
0.05765586034912718,0.0046126844225332884,
0.05770573566084788,-0.0034559361037249706,
0.05775561097256858,-0.008430220436637393,
0.057805486284289276,0.020148094923747025,
0.05785536159600998,0.019778434239862728,
0.057905236907730674,0.022122883766021686,
0.05795511221945137,-0.015682068953260072,
0.05800498753117207,0.013661435597416755,
0.05805486284289277,0.0035914942400896563,
0.058104738154613464,0.0003312349544662646,
0.05815461346633417,0.009587793561854699,
0.05820448877805486,-0.008153987486105234,
0.05825436408977556,-0.013395928067289325,
0.05830423940149626,-0.002042108809940213,
0.058354114713216956,-0.021928849625615945,
0.05840399002493766,0.004100237428702316,
0.058453865336658355,0.028653090294394584,
0.05850374064837905,0.013667566254115483,
0.05855361596009975,-0.012564466165020584,
0.05860349127182045,-0.006913645554678225,
0.058653366583541144,0.0005562764814460502,
0.05870324189526185,-0.00545140614074509,
0.05875311720698254,0.005332337929047227,
0.05880299251870324,-0.01488388596671274,
0.05885286783042394,-0.0056980324967013975,
0.05890274314214464,0.008202127892561879,
0.05895261845386534,-0.005141114832197272,
0.059002493765586035,0.00979358279851622,
0.05905236907730673,-0.024608137841917545,
0.059102244389027433,0.011233952162685766,
0.05915211970074813,-0.0055633747518023455,
0.059201995012468825,0.019806691645072743,
0.05925187032418953,0.005346953003980232,
0.05930174563591022,0.019194285434497006,
0.059351620947630926,-0.01060670122476354,
0.05940149625935162,-0.038785240736590884,
0.05945137157107232,0.008440986845765504,
0.05950124688279302,0.0047988392730890245,
0.059551122194513716,-0.023184016932238566,
0.05960099750623441,-0.014030258264416832,
0.059650872817955114,-0.034204581657225494,
0.05970074812967581,-0.022417428474147932,
0.059750623441396505,0.006679419245589138,
0.05980049875311721,0.008364484024496159,
0.059850374064837904,0.005502041750494298,
0.059900249376558606,-0.015268736707392004,
0.0599501246882793,-0.00845612848488922,
0.06,-0.0021004086202887212,
0.0600498753117207,0.0014143814021471707,
0.060099750623441396,-0.01587214732632935,
0.06014962593516209,-0.019927127095495822,
0.060199501246882794,-0.03201350177521939,
0.06024937655860349,-0.0006785846654117945,
0.06029925187032419,-0.009175424050592441,
0.06034912718204489,-0.01887450741619193,
0.060399002493765584,0.004896599479945772,
0.06044887780548629,-0.012088909164608195,
0.06049875311720698,-0.021041409028924728,
0.06054862842892768,-0.022753051878641593,
0.06059850374064838,-0.017159750089746767,
0.06064837905236908,-0.018852061523526475,
0.06069825436408977,-0.01816311003646002,
0.060748129675810475,0.008558070935339446,
0.06079800498753117,-0.017968888911522405,
0.06084788029925187,0.0028557742574242696,
0.06089775561097257,-0.0036719710220443676,
0.060947630922693265,-0.004290615459980709,
0.06099750623441397,-0.014138503591384764,
0.06104738154613466,-0.02552425456534838,
0.06109725685785536,-0.015653218229326905,
0.06114713216957606,-0.013175425793900217,
0.06119700748129676,-0.044153698337065034,
0.06124688279301746,-0.02083716413770284,
0.061296758104738155,-0.04480038111968497,
0.06134663341645885,-0.004656826718549119,
0.061396508728179554,-0.04599195118913105,
0.06144638403990025,-0.02245936018734622,
0.061496259351620945,0.005193057240483299,
0.06154613466334165,-0.02439441851524673,
0.061596009975062344,-0.041129994667226596,
0.06164588528678304,-0.0009456774147795187,
0.06169576059850374,-0.019105459706171737,
0.06174563591022444,-0.03819355161235185,
0.06179551122194514,-0.03956613071852535,
0.061845386533665836,0.004436594278751966,
0.06189526184538653,-0.02633741308771142,
0.061945137157107234,-0.019452279082984622,
0.06199501246882793,-0.023149101498375672,
0.062044887780548626,-0.03237974819022124,
0.06209476309226933,-0.026155713105052103,
0.062144638403990024,-0.028122407586238025,
0.06219451371571072,-0.007690301363332612,
0.06224438902743142,-0.007431793919979543,
0.06229426433915212,0.00576692763129576,
0.06234413965087282,0.0005954648354300381,
0.062394014962593516,-0.03489192546645062,
0.06244389027431421,-0.024159881093855348,
0.062493765586034915,-0.03866200033312295,
0.06254364089775562,-0.010829041624925591,
0.06259351620947631,-0.014714521751236484,
0.06264339152119701,-0.04049502562504158,
0.0626932668329177,-0.03010634965648886,
0.0627431421446384,-0.02770760872061787,
0.0627930174563591,-0.03884182407523166,
0.0628428927680798,-0.01370365904776948,
0.0628927680798005,-0.0434712257907261,
0.0629426433915212,0.009074378795699101,
0.06299251870324189,-0.010660369210906104,
0.06304239401496259,-0.01822750186007932,
0.0630922693266833,-0.008749746425590888,
0.063142144638404,-0.019100390309415717,
0.06319201995012469,-0.01058808994101893,
0.06324189526184539,-0.014661844855978604,
0.06329177057356608,0.00036073452839081345,
0.06334164588528678,-0.025587028536833804,
0.06339152119700749,-0.030630833460737205,
0.06344139650872818,-0.029437773558316616,
0.06349127182044888,-0.017709610584020402,
0.06354114713216957,0.003891796672730697,
0.06359102244389027,-0.003415395240654937,
0.06364089775561098,-0.020269250233505978,
0.06369077306733167,-0.011034205665213362,
0.06374064837905237,-0.033947418943905086,
0.06379052369077307,-0.03612138149095632,
0.06384039900249376,-0.010071998536621671,
0.06389027431421446,-0.0377549026524632,
0.06394014962593517,-0.027847366081910983,
0.06399002493765586,-0.017633277181369207,
0.06403990024937656,-0.008941295040688326,
0.06408977556109725,-0.02829103385307652,
0.06413965087281795,-0.011554132352177837,
0.06418952618453866,-0.010211823390967746,
0.06423940149625935,-0.00737244097636431,
0.06428927680798005,-0.019217420615365154,
0.06433915211970075,-0.020659960903818633,
0.06438902743142144,-0.011962734249438702,
0.06443890274314215,-0.004425483815178816,
0.06448877805486285,-0.01498889134192622,
0.06453865336658354,0.014067934595218483,
0.06458852867830424,-0.010940204082584462,
0.06463840399002493,0.016945806072228245,
0.06468827930174563,-0.02564762483487234,
0.06473815461346634,-0.019726255528531335,
0.06478802992518704,-0.0023042094075978225,
0.06483790523690773,0.0016795234983877031,
0.06488778054862843,0.004864873940019589,
0.06493765586034912,0.008104970119493432,
0.06498753117206983,0.017410526299741644,
0.06503740648379053,0.006257442386497737,
0.06508728179551122,0.016781013724461936,
0.06513715710723192,-0.0024176675745708233,
0.06518703241895261,-0.004476126575966346,
0.06523690773067331,-0.0040437116181181905,
0.06528678304239402,0.026451517825428962,
0.06533665835411472,-0.017084842918681047,
0.06538653366583541,-0.006454070463126012,
0.06543640897755611,0.01956447320961699,
0.0654862842892768,-0.012934319898275839,
0.06553615960099751,-0.022094964416428775,
0.06558603491271821,0.0009561394966520918,
0.0656359102244389,-0.004271491267420378,
0.0656857855361596,-0.0038086124556269848,
0.0657356608478803,-0.0057936707331517085,
0.06578553615960099,-0.014727592219159945,
0.0658354114713217,-0.01875510100608647,
0.0658852867830424,-0.0185550998566685,
0.06593516209476309,-0.0418794490441488,
0.06598503740648379,-0.002234612382675914,
0.06603491271820448,-0.008299938350300186,
0.06608478802992519,0.026118360567995956,
0.06613466334164589,-0.004924626876609662,
0.06618453865336658,0.004387910276884399,
0.06623441396508728,0.015305585790674748,
0.06628428927680798,0.031892435043435106,
0.06633416458852869,-0.031314863466570794,
0.06638403990024938,-0.015638658694358265,
0.06643391521197008,-0.005628251130037484,
0.06648379052369077,0.004196335502934993,
0.06653366583541147,0.0168425724073466,
0.06658354114713216,0.004477943758557037,
0.06663341645885287,0.006406242486293234,
0.06668329177057357,-0.005430941354788259,
0.06673316708229426,1.201124986408399e-05,
0.06678304239401496,-0.006508122564103255,
0.06683291770573566,0.012456831165631132,
0.06688279301745637,-0.0014476333510685868,
0.06693266832917706,0.004898807524685397,
0.06698254364089776,-0.00022174200059645608,
0.06703241895261845,-0.007684853537952532,
0.06708229426433915,0.008210018062692396,
0.06713216957605984,0.006332868340961622,
0.06718204488778055,0.008852551199793921,
0.06723192019950125,0.005513826987381479,
0.06728179551122195,0.019148623574584425,
0.06733167082294264,0.014377330324418448,
0.06738154613466334,0.004780346759753376,
0.06743142144638405,-0.005359339752709191,
0.06748129675810474,-0.010331411470654469,
0.06753117206982544,0.03489107749749536,
0.06758104738154613,0.004751390791615724,
0.06763092269326683,0.008167452663060865,
0.06768079800498752,0.007493623329375801,
0.06773067331670823,0.002340842320044039,
0.06778054862842893,0.029306960296996826,
0.06783042394014963,0.036577048753832095,
0.06788029925187032,0.01187703149437347,
0.06793017456359102,0.01009512680350431,
0.06798004987531173,-0.002724836689183689,
0.06802992518703242,0.02635669371013127,
0.06807980049875312,0.0033102041586486235,
0.06812967581047381,0.03951374719807209,
0.06817955112219451,-0.009842764655400522,
0.0682294264339152,0.005752284697091955,
0.06827930174563591,-0.021016762694836058,
0.06832917705735661,0.015561425982272692,
0.0683790523690773,0.0004752434482187193,
0.068428927680798,-0.0034160979393147405,
0.0684788029925187,-0.007723376637253913,
0.06852867830423941,-0.014929389476866842,
0.0685785536159601,0.0013127392340248761,
0.0686284289276808,0.03066980361763679,
0.0686783042394015,0.022500466721810518,
0.06872817955112219,0.03620100777075853,
0.0687780548628429,0.045925811256378166,
0.0688279301745636,0.0011048533990549118,
0.06887780548628429,0.038170233065360396,
0.06892768079800499,0.01803465022218078,
0.06897755610972568,0.009642732406311492,
0.06902743142144638,-0.014279591338174972,
0.06907730673316709,0.013716370730495232,
0.06912718204488778,0.051968471884269826,
0.06917705735660848,0.017929901631648874,
0.06922693266832917,0.004105265184202761,
0.06927680798004987,0.03559052743417708,
0.06932668329177058,0.03068586270284425,
0.06937655860349128,0.02463741404807432,
0.06942643391521197,-0.00645608887531339,
0.06947630922693267,-0.010780687795358724,
0.06952618453865336,0.00026969583343696216,
0.06957605985037406,0.010187054893555382,
0.06962593516209477,0.030655053731965285,
0.06967581047381546,0.019965860798894036,
0.06972568578553616,0.02984631308898998,
0.06977556109725686,-0.0018067962723902174,
0.06982543640897755,0.04106270284472616,
0.06987531172069826,0.02091761840193702,
0.06992518703241896,0.010409664844222757,
0.06997506234413965,0.04327488919436249,
0.07002493765586035,0.015882555459376262,
0.07007481296758104,0.03179672682210873,
0.07012468827930174,0.01589040623505131,
0.07017456359102245,0.03276657787535553,
0.07022443890274314,0.012387558875280043,
0.07027431421446384,0.04218452385543771,
0.07032418952618454,0.033876685921547384,
0.07037406483790523,0.022241215148216812,
0.07042394014962594,0.021729276328343077,
0.07047381546134664,0.02837341349742154,
0.07052369077306733,0.038700989837561775,
0.07057356608478803,0.02658542928954086,
0.07062344139650872,0.04649569712016857,
0.07067331670822943,0.03461236438273147,
0.07072319201995013,0.033610418155127254,
0.07077306733167082,0.012062390037175,
0.07082294264339152,0.030892807658293768,
0.07087281795511222,0.023383317859825115,
0.07092269326683291,0.03162180341918286,
0.07097256857855362,0.024394759856558042,
0.07102244389027432,0.01883006939613739,
0.07107231920199501,0.04990264766809349,
0.07112219451371571,0.018049825660729987,
0.0711720698254364,0.0404441942171877,
0.07122194513715711,0.0120028620520682,
0.07127182044887781,0.023374683907567917,
0.0713216957605985,0.03473114527768874,
0.0713715710723192,0.020111246525601926,
0.0714214463840399,0.016213098406375484,
0.07147132169576059,0.007383259850878655,
0.0715211970074813,0.016596759452832836,
0.071571072319202,0.017009092285134756,
0.0716209476309227,0.022426766616430345,
0.07167082294264339,0.025699177992207497,
0.07172069825436408,0.04845244864227893,
0.0717705735660848,0.027007988775325804,
0.07182044887780549,0.02539135283398061,
0.07187032418952619,0.022701445570508273,
0.07192019950124688,0.03594046356483154,
0.07197007481296758,0.05210363280121745,
0.07201995012468827,0.03399384179107505,
0.07206982543640898,0.017861266078039544,
0.07211970074812968,0.02188128064341473,
0.07216957605985037,0.039939653596954894,
0.07221945137157107,0.04115199220725505,
0.07226932668329177,0.025797788594229914,
0.07231920199501247,0.02060189157449492,
0.07236907730673317,0.025123056029843282,
0.07241895261845387,0.03355358380373139,
0.07246882793017456,0.028626868870670702,
0.07251870324189526,0.04410595861686975,
0.07256857855361595,0.03584824442243688,
0.07261845386533666,0.03373882093813854,
0.07266832917705736,0.013745594232632607,
0.07271820448877805,0.009147409961859716,
0.07276807980049875,0.02295049422454644,
0.07281795511221945,-0.0026188924807375447,
0.07286783042394016,0.01839961650185794,
0.07291770573566085,-0.0014372042792628395,
0.07296758104738155,0.012930495188774023,
0.07301745635910224,0.040296744130388334,
0.07306733167082294,0.02342688852299635,
0.07311720698254365,0.010088917842647958,
0.07316708229426434,0.04472574536075806,
0.07321695760598504,0.02924103323182764,
0.07326683291770573,0.019048651508139967,
0.07331670822942643,0.030912392308454797,
0.07336658354114713,0.05018494650444244,
0.07341645885286784,0.03195781503356658,
0.07346633416458853,0.027145307836107108,
0.07351620947630923,-0.013395678494780489,
0.07356608478802992,0.01827050991354003,
0.07361596009975062,0.020823888564211232,
0.07366583541147133,0.04311838867708068,
0.07371571072319202,0.022125391498290944,
0.07376558603491272,0.0355224032231138,
0.07381546134663342,0.018544016005271106,
0.07386533665835411,0.039637954445631715,
0.0739152119700748,0.02955272730252143,
0.07396508728179552,0.025313011614674308,
0.07401496259351621,-0.0070810556221500495,
0.07406483790523691,0.0182847514068797,
0.0741147132169576,0.01447919938679796,
0.0741645885286783,0.016542115625493126,
0.07421446384039901,0.02113001070811382,
0.0742643391521197,0.028191958180399775,
0.0743142144638404,0.02991921558785724,
0.0743640897755611,0.01673014419644968,
0.07441396508728179,0.02491073922451416,
0.07446384039900249,0.007649887045984681,
0.0745137157107232,0.027119457084636495,
0.07456359102244389,0.015307398460150522,
0.07461346633416459,0.008336953596557976,
0.07466334164588528,0.01694999578734642,
0.07471321695760598,0.0020768824949072943,
0.07476309226932669,0.019407119515728474,
0.07481296758104738,0.01954884722836336,
0.07486284289276808,0.020187472275154942,
0.07491271820448878,0.02693112238714694,
0.07496259351620947,0.005907160405500905,
0.07501246882793017,0.01837866311812145,
0.07506234413965088,0.029789684401467984,
0.07511221945137157,0.028366287320871195,
0.07516209476309227,0.0016405786797349733,
0.07521197007481296,0.03634472169660835,
0.07526184538653366,0.03058889814170523,
0.07531172069825437,0.03224766907418646,
0.07536159600997507,0.012075753854438024,
0.07541147132169576,0.02916576328880918,
0.07546134663341646,0.03574303176985172,
0.07551122194513715,0.012823578590848882,
0.07556109725685786,0.027151697689709937,
0.07561097256857856,0.012867913490421542,
0.07566084788029925,0.03780398589024801,
0.07571072319201995,0.00418448501788332,
0.07576059850374064,0.03057836919922763,
0.07581047381546134,0.005510684130713732,
0.07586034912718205,0.004927505522407529,
0.07591022443890275,0.03155547532367067,
0.07596009975062344,0.016632377150240893,
0.07600997506234414,0.037066327804844854,
0.07605985037406483,0.03589586412666008,
0.07610972568578554,0.022070853193415917,
0.07615960099750624,0.013354600034974313,
0.07620947630922693,0.012725515646994569,
0.07625935162094763,0.028538584715491422,
0.07630922693266833,0.04013256746180621,
0.07635910224438902,-0.013404252671064341,
0.07640897755610973,0.007698671650882613,
0.07645885286783043,-0.0033196515905532017,
0.07650872817955112,0.01595445978392264,
0.07655860349127182,-0.01702534941447614,
0.07660847880299251,0.0070193681336181485,
0.07665835411471322,0.024501437155147167,
0.07670822942643392,-0.016282375132695495,
0.07675810473815461,0.02492515754319697,
0.07680798004987531,0.025626192909307934,
0.076857855361596,0.014411287520963972,
0.0769077306733167,0.005272624629586345,
0.07695760598503741,0.0034502087241012553,
0.0770074812967581,-0.014805122386994829,
0.0770573566084788,0.028221319097172577,
0.0771072319201995,0.008885377477844052,
0.0771571072319202,0.014418930236794605,
0.0772069825436409,0.0044266054003448555,
0.0772568578553616,-0.0344290317181798,
0.0773067331670823,0.02248718967578818,
0.07735660847880299,0.03750501362424537,
0.07740648379052369,-0.005379089017853236,
0.0774563591022444,0.026711945346847864,
0.07750623441396509,0.02734004391929717,
0.07755610972568579,0.0053460847176401444,
0.07760598503740648,0.007577708545937205,
0.07765586034912718,0.011000440942260199,
0.07770573566084787,0.014833373745018481,
0.07775561097256858,0.016667601554227942,
0.07780548628428928,0.005973153290445643,
0.07785536159600998,-0.009938193528676984,
0.07790523690773067,-0.007960282925678963,
0.07795511221945137,-0.017558087916329502,
0.07800498753117208,0.0009320619533989662,
0.07805486284289277,0.015486802347325142,
0.07810473815461347,0.020218534599717675,
0.07815461346633416,-0.029145671272404555,
0.07820448877805486,-0.029985907277573758,
0.07825436408977555,-0.016626872879728492,
0.07830423940149626,-0.03709591411958409,
0.07835411471321696,-0.0007141364328794159,
0.07840399002493766,-0.02094161671452803,
0.07845386533665835,-0.013195245251159657,
0.07850374064837905,-0.008542753676477137,
0.07855361596009976,0.013254872471503172,
0.07860349127182045,0.000674894779779763,
0.07865336658354115,-0.014288908055992103,
0.07870324189526184,0.01621871222412139,
0.07875311720698254,-0.011971430288108815,
0.07880299251870324,-0.04647228299716644,
0.07885286783042394,0.011049127128609714,
0.07890274314214464,0.020005393508284047,
0.07895261845386534,-0.025611735822809945,
0.07900249376558603,-0.01724981145994629,
0.07905236907730673,-0.0005989092337072982,
0.07910224438902744,0.001661709862099306,
0.07915211970074813,0.005391075635407822,
0.07920199501246883,-0.002137750418556142,
0.07925187032418952,0.00011351376818273702,
0.07930174563591022,0.029849937722021668,
0.07935162094763092,0.007633779627387104,
0.07940149625935163,-0.00797704117959617,
0.07945137157107232,-0.006138406154199273,
0.07950124688279302,0.007408268561057308,
0.07955112219451371,0.004555059194867838,
0.07960099750623441,-0.034458005976135596,
0.07965087281795512,-0.03362566082473416,
0.07970074812967581,0.009403255361272709,
0.07975062344139651,-0.0023464449504392287,
0.0798004987531172,0.0003469060516521419,
0.0798503740648379,-0.02136772206490813,
0.07990024937655861,-0.002964994011266404,
0.0799501246882793,-0.028208674510320535,
0.08,0.0044862834096664455,
0.0800498753117207,-0.018605567580540876,
0.0800997506234414,0.009962040421937558,
0.08014962593516209,-0.015717549169406382,
0.0801995012468828,-0.0006444149516062758,
0.0802493765586035,-0.009274411478942809,
0.08029925187032419,-0.028288471712551746,
0.08034912718204489,-0.01772809445422277,
0.08039900249376558,-0.001702357454926624,
0.08044887780548629,-0.01749661708156983,
0.08049875311720699,0.00046455731785462195,
0.08054862842892768,-0.0020322809853519676,
0.08059850374064838,-0.006443951024193298,
0.08064837905236907,-0.012675194059171061,
0.08069825436408977,-0.004371331284052897,
0.08074812967581048,0.001280835939202668,
0.08079800498753117,-0.028868333159596984,
0.08084788029925187,-0.034357651268821864,
0.08089775561097257,-0.00314363160275684,
0.08094763092269326,-0.021059275906416992,
0.08099750623441397,-0.01780032283497323,
0.08104738154613467,-0.0083573454856103,
0.08109725685785536,-0.009113638104967117,
0.08114713216957606,-0.004482397924862415,
0.08119700748129675,-0.03368305982615738,
0.08124688279301745,-0.015528642877592128,
0.08129675810473816,-0.033699168614355256,
0.08134663341645886,-0.04303048496153572,
0.08139650872817955,-0.03411346603411143,
0.08144638403990025,-0.020307590439904002,
0.08149625935162094,0.013593554291451856,
0.08154613466334165,-0.02446144619068712,
0.08159600997506235,-0.021142595662252385,
0.08164588528678304,-0.025686739987805754,
0.08169576059850374,-0.014539252644277032,
0.08174563591022443,0.007870127792081858,
0.08179551122194513,-0.012935894694941035,
0.08184538653366584,-0.04539575618144162,
0.08189526184538654,-0.06738674720408978,
0.08194513715710723,-0.01106926555843643,
0.08199501246882793,-0.020170324888831068,
0.08204488778054862,-0.005984808571831882,
0.08209476309226933,-0.04173983998628571,
0.08214463840399003,-0.008878810955874488,
0.08219451371571072,-0.038742989977362564,
0.08224438902743142,-0.022374080298318434,
0.08229426433915212,-0.02667374794616511,
0.08234413965087282,-0.01533859216487517,
0.08239401496259352,-0.017803127884654157,
0.08244389027431422,-0.038755318103007794,
0.08249376558603491,-0.02585305322876226,
0.08254364089775561,-0.032669741756544024,
0.0825935162094763,-0.0013438876426943632,
0.08264339152119701,-0.02509824989213514,
0.08269326683291771,0.00864634217763525,
0.0827431421446384,-0.005770987960365453,
0.0827930174563591,-0.026833489657145337,
0.0828428927680798,-0.0168885441359685,
0.0828927680798005,0.006561170197318278,
0.0829426433915212,-0.02118221147304255,
0.0829925187032419,-0.009579955312224319,
0.08304239401496259,0.019141107122005122,
0.08309226932668329,-0.02346315926020333,
0.08314214463840398,-0.012287571472573387,
0.0831920199501247,-0.0037919538585439224,
0.08324189526184539,0.006936697624195857,
0.08329177057356608,-0.011504782554785709,
0.08334164588528678,-0.019595404588452665,
0.08339152119700748,-0.022197716852516074,
0.08344139650872819,-0.020930624786287128,
0.08349127182044888,-0.027498041700316805,
0.08354114713216958,-0.03175405802137132,
0.08359102244389027,-0.011963751939557775,
0.08364089775561097,-0.0075891572319136315,
0.08369077306733166,-0.028227563786152272,
0.08374064837905237,-0.007622441981199685,
0.08379052369077307,0.0003739988145599806,
0.08384039900249377,0.002157858607540036,
0.08389027431421446,-0.004417264096840629,
0.08394014962593516,-0.01817673086904972,
0.08399002493765587,-0.020554445706196113,
0.08403990024937656,-0.027269280711046444,
0.08408977556109726,-0.009982443628514545,
0.08413965087281795,-0.004872036402522797,
0.08418952618453865,-0.03263295814553773,
0.08423940149625936,-0.012825209521726387,
0.08428927680798005,-0.018396903698478358,
0.08433915211970075,0.019156469513443127,
0.08438902743142145,-0.028624066028478966,
0.08443890274314214,-0.0046729119717663185,
0.08448877805486284,-0.005287812369072804,
0.08453865336658355,-0.006811263844041815,
0.08458852867830424,-0.002362619263566783,
0.08463840399002494,-0.0174189791924262,
0.08468827930174563,-0.03351551062800523,
0.08473815461346633,-0.02737535698233694,
0.08478802992518704,0.0014153878263613116,
0.08483790523690773,-0.011518428362183,
0.08488778054862843,-0.03286115387399238,
0.08493765586034913,-0.002338819269412492,
0.08498753117206982,0.01663733948582226,
0.08503740648379052,-0.03319095877536093,
0.08508728179551123,-0.012915159606077902,
0.08513715710723192,-0.017041832314117492,
0.08518703241895262,-0.015467639784399124,
0.08523690773067331,0.007051902144747899,
0.08528678304239401,0.014497287018639657,
0.08533665835411472,-0.0036107262901225786,
0.08538653366583542,0.01371324459893904,
0.08543640897755611,-0.016716504634829616,
0.0854862842892768,0.020990079611097105,
0.0855361596009975,0.002340641703242851,
0.0855860349127182,0.014076084146223715,
0.08563591022443891,0.0008174279143207241,
0.0856857855361596,0.009956059977267388,
0.0857356608478803,-0.01660794667930964,
0.085785536159601,0.018552065644841242,
0.08583541147132169,0.023252760392053533,
0.0858852867830424,-0.029469229546697576,
0.0859351620947631,-0.004255064323809373,
0.08598503740648379,0.0008199013772397686,
0.08603491271820449,0.03757934932752557,
0.08608478802992518,0.019537882849555058,
0.08613466334164588,-0.010658725870082755,
0.08618453865336659,-0.019166520594202784,
0.08623441396508728,0.0105792934547995,
0.08628428927680798,0.01802651093679334,
0.08633416458852868,0.0011687619198354562,
0.08638403990024937,-0.0037938067298279683,
0.08643391521197008,0.00646670111571213,
0.08648379052369078,0.026964079924138226,
0.08653366583541147,-0.004972775003402235,
0.08658354114713217,-0.009830688493246111,
0.08663341645885286,0.02713547810689204,
0.08668329177057357,0.016484468009766263,
0.08673316708229427,-0.006528644623633597,
0.08678304239401496,0.006252529443184723,
0.08683291770573566,0.03202944425735273,
0.08688279301745636,-0.007365217410688805,
0.08693266832917705,0.016446270819632028,
0.08698254364089776,0.008765503858332472,
0.08703241895261846,0.00042116958149683234,
0.08708229426433915,-0.0018117704050963131,
0.08713216957605985,0.0156541439688897,
0.08718204488778054,-0.00859409738903695,
0.08723192019950125,0.03411474069354415,
0.08728179551122195,-0.00824554228318549,
0.08733167082294264,-0.012697116654940027,
0.08738154613466334,-0.006442763517524832,
0.08743142144638404,-0.006229688010304311,
0.08748129675810473,0.011618426398458084,
0.08753117206982544,0.012824764890336782,
0.08758104738154614,0.02108412993558477,
0.08763092269326683,0.011765021046346306,
0.08768079800498753,0.00020038695941108388,
0.08773067331670822,-0.01215327707692512,
0.08778054862842893,0.0032906135837760565,
0.08783042394014963,-0.008145171784020043,
0.08788029925187033,-0.002877479827818453,
0.08793017456359102,0.004915746173361077,
0.08798004987531172,0.01307736073015828,
0.08802992518703241,0.012258660358225376,
0.08807980049875312,-0.0022483451996875414,
0.08812967581047382,0.008338679428474554,
0.08817955112219451,0.021666222805658553,
0.08822942643391521,0.024640989529039453,
0.0882793017456359,-0.004462336623631592,
0.08832917705735661,0.015559817513018458,
0.08837905236907731,0.019000335768373212,
0.088428927680798,0.01972209612065607,
0.0884788029925187,-0.010793472498421835,
0.0885286783042394,0.020861925667580564,
0.0885785536159601,0.009989302213387534,
0.0886284289276808,-0.019247440257476364,
0.0886783042394015,0.026533514328805262,
0.0887281795511222,0.02952142662495005,
0.08877805486284289,0.023737636289278507,
0.08882793017456359,0.02863279348510303,
0.0888778054862843,0.024382478207258425,
0.08892768079800499,0.020637458824753808,
0.08897755610972569,0.0035617211047792863,
0.08902743142144638,0.0214649523707942,
0.08907730673316708,0.029585258550360215,
0.08912718204488779,0.00986531182078534,
0.08917705735660848,0.03316694312621785,
0.08922693266832918,0.045778782756286815,
0.08927680798004987,-0.004088774637956382,
0.08932668329177057,0.033636254580850074,
0.08937655860349127,0.03672748990803555,
0.08942643391521198,0.02107383067431683,
0.08947630922693267,0.03241316198139302,
0.08952618453865337,0.02308019064503375,
0.08957605985037406,0.015426857403295807,
0.08962593516209476,0.03674281437388537,
0.08967581047381547,0.05837552039737154,
0.08972568578553616,0.023702771522504697,
0.08977556109725686,0.01487475635401144,
0.08982543640897755,0.018790753930958304,
0.08987531172069825,0.022768500137496983,
0.08992518703241895,0.01543821335317732,
0.08997506234413966,0.03325852691591874,
0.09002493765586035,0.02274084297372632,
0.09007481296758105,0.015943987378174214,
0.09012468827930174,0.03509213073433243,
0.09017456359102244,0.021468071764941154,
0.09022443890274315,0.03202490907981101,
0.09027431421446384,0.01874981708786792,
0.09032418952618454,0.01717843646491054,
0.09037406483790524,0.009279117255172172,
0.09042394014962593,0.010201273256712244,
0.09047381546134663,0.03189171251849195,
0.09052369077306734,0.005647827610104905,
0.09057356608478803,0.05087472178478548,
0.09062344139650873,-0.0013108438957988473,
0.09067331670822942,0.010379317824092618,
0.09072319201995012,0.008001965012538432,
0.09077306733167083,0.033395809127661436,
0.09082294264339152,0.018410848250443607,
0.09087281795511222,0.006735539403197915,
0.09092269326683292,0.03138904929694712,
0.09097256857855361,0.010199317536960933,
0.09102244389027432,0.0578989017029073,
0.09107231920199502,0.025136145070003234,
0.09112219451371571,0.0265185686131464,
0.09117206982543641,0.05186397817754097,
0.0912219451371571,0.02278504405036034,
0.0912718204488778,0.0560760223026258,
0.09132169576059851,0.01867428900850384,
0.0913715710723192,0.043450300058315655,
0.0914214463840399,0.02326330783676497,
0.0914713216957606,0.0007985405786899123,
0.09152119700748129,0.026818712716086893,
0.091571072319202,0.014121440186027153,
0.0916209476309227,0.03950352172577895,
0.09167082294264339,0.020087121787057422,
0.09172069825436409,0.027876114837948232,
0.09177057356608478,0.029499549763384973,
0.09182044887780548,0.022060165332414262,
0.09187032418952619,0.017009385080152498,
0.09192019950124689,0.03814862341266586,
0.09197007481296758,0.03571136832292355,
0.09201995012468828,0.022317345088311936,
0.09206982543640897,0.04225425823284368,
0.09211970074812968,0.031453721871230196,
0.09216957605985038,0.007085981692941876,
0.09221945137157107,0.026112769932626026,
0.09226932668329177,0.03480484592608506,
0.09231920199501246,0.02763682446577471,
0.09236907730673316,0.026609386243295112,
0.09241895261845387,0.03249022438879688,
0.09246882793017457,0.041260392535694634,
0.09251870324189526,0.008835177852973271,
0.09256857855361596,0.023792188849992398,
0.09261845386533665,0.04450379986533237,
0.09266832917705736,0.010128239582417192,
0.09271820448877806,0.018407375692909574,
0.09276807980049875,0.03189283016874624,
0.09281795511221945,0.01762545678139668,
0.09286783042394015,0.018633334222713606,
0.09291770573566084,0.01826952248526388,
0.09296758104738155,0.024698948644482643,
0.09301745635910225,0.06814349006632396,
0.09306733167082294,0.028050110358373882,
0.09311720698254364,0.022630583387750727,
0.09316708229426433,0.007569119572241004,
0.09321695760598504,0.03131420611122206,
0.09326683291770574,0.05403823965469394,
0.09331670822942643,0.02554013150032911,
0.09336658354114713,0.019350432695017218,
0.09341645885286783,0.03517181662351312,
0.09346633416458854,0.029734725704711373,
0.09351620947630923,0.006990469425085664,
0.09356608478802993,0.05270808399230885,
0.09361596009975062,0.041939006798214065,
0.09366583541147132,0.014062292993411073,
0.09371571072319201,0.04071204095472118,
0.09376558603491272,0.0017294420967136279,
0.09381546134663342,0.01336483263551773,
0.09386533665835411,0.05734446247475884,
0.09391521197007481,0.03761357959620695,
0.0939650872817955,0.020535676338459315,
0.09401496259351622,0.04336068980172341,
0.09406483790523691,0.031011903775437236,
0.09411471321695761,0.01894959631186003,
0.0941645885286783,0.046997497666555234,
0.094214463840399,0.024148428165357675,
0.0942643391521197,0.02727809632651923,
0.0943142144638404,0.015204897448263961,
0.0943640897755611,0.007253970347187805,
0.0944139650872818,0.027237485620150378,
0.09446384039900249,0.03007622254144178,
0.09451371571072319,0.03768229023283017,
0.0945635910224439,0.03182042270026374,
0.09461346633416459,0.016529411430851192,
0.09466334164588529,0.0006969195535417166,
0.09471321695760598,-0.012656191094184775,
0.09476309226932668,-0.018427881065375757,
0.09481296758104737,0.006405015005981384,
0.09486284289276808,0.035109443144573295,
0.09491271820448878,0.020643401645700735,
0.09496259351620948,0.015195078147063005,
0.09501246882793017,0.043427704673918675,
0.09506234413965087,0.0347095675858113,
0.09511221945137158,0.035641376472302956,
0.09516209476309227,0.03999183895341197,
0.09521197007481297,0.04859732251069566,
0.09526184538653366,0.01259407075906197,
0.09531172069825436,0.0044436503725030704,
0.09536159600997507,0.02505370675504981,
0.09541147132169576,0.02366499464465917,
0.09546134663341646,0.012632539422495684,
0.09551122194513716,0.01302329708332053,
0.09556109725685785,0.03655670919778545,
0.09561097256857855,-3.838689586026234e-05,
0.09566084788029926,0.030894221011822917,
0.09571072319201995,0.018209185092901273,
0.09576059850374065,0.01948542289329795,
0.09581047381546134,-0.009644834542246562,
0.09586034912718204,0.012308453388763688,
0.09591022443890275,0.0059511163040154285,
0.09596009975062345,0.012992141211736795,
0.09600997506234414,-0.00998804068300553,
0.09605985037406484,0.032122694650000665,
0.09610972568578553,0.00846159621886722,
0.09615960099750623,0.01880093825138196,
0.09620947630922694,-0.0017541708446337564,
0.09625935162094763,0.008893615933933986,
0.09630922693266833,0.014742183252202539,
0.09635910224438902,0.01572049072629301,
0.09640897755610972,0.019062663572234365,
0.09645885286783043,0.000856756682027577,
0.09650872817955113,0.0347166888997573,
0.09655860349127182,0.011001891052032392,
0.09660847880299252,0.030115022793279527,
0.09665835411471321,-0.0039790199367478445,
0.09670822942643391,0.009775721181693014,
0.09675810473815462,-0.0035721727365183153,
0.09680798004987531,0.0189372283903656,
0.09685785536159601,0.040418222154314586,
0.0969077306733167,-0.012121449476894414,
0.0969576059850374,0.018475140883113764,
0.09700748129675811,-0.014005035842611237,
0.0970573566084788,0.017914038550450782,
0.0971072319201995,0.010526036403035953,
0.0971571072319202,0.018789864053050224,
0.0972069825436409,0.051156480500222326,
0.09725685785536159,0.018595741699830005,
0.0973067331670823,0.01956202429292347,
0.097356608478803,0.012209132289277492,
0.09740648379052369,5.846628069725891e-05,
0.09745635910224439,0.0027128603641928236,
0.09750623441396508,0.015880048872099355,
0.09755610972568579,-0.00630229219342139,
0.09760598503740649,0.03468586407795227,
0.09765586034912718,0.013488610584307888,
0.09770573566084788,0.010689060423231641,
0.09775561097256857,-0.0068421937204960395,
0.09780548628428928,-0.005533935894667058,
0.09785536159600998,0.010275368636254783,
0.09790523690773068,0.020815655914666956,
0.09795511221945137,0.010643037994874304,
0.09800498753117207,-0.0031168158726370123,
0.09805486284289276,0.012005974908924015,
0.09810473815461347,-0.0320650085032047,
0.09815461346633417,0.00414090039697543,
0.09820448877805486,0.005061216174585577,
0.09825436408977556,-0.005773304611464928,
0.09830423940149625,0.026227811509698534,
0.09835411471321696,-0.023359943123064355,
0.09840399002493766,0.01730200884711831,
0.09845386533665836,0.00017452504745205685,
0.09850374064837905,0.006663038452624178,
0.09855361596009975,-0.02227173338633293,
0.09860349127182044,-0.012726199193981918,
0.09865336658354115,-0.01460067495064819,
0.09870324189526185,0.007683737686907493,
0.09875311720698254,0.018458138586918214,
0.09880299251870324,-0.010113337411005969,
0.09885286783042393,-0.04078677095055899,
0.09890274314214464,-0.03394396143524408,
0.09895261845386534,0.001230159445382285,
0.09900249376558604,-0.0021317286249737098,
0.09905236907730673,0.0064539874590342095,
0.09910224438902743,-0.0003099637985230657,
0.09915211970074812,-0.01006799133252307,
0.09920199501246883,-0.002639874332878332,
0.09925187032418953,0.02069702112552732,
0.09930174563591022,0.024469060165906772,
0.09935162094763092,-0.00888177784560483,
0.09940149625935162,-0.02473356615788102,
0.09945137157107233,0.00746200277856703,
0.09950124688279302,-0.012252379096190393,
0.09955112219451372,0.0029830270092123757,
0.09960099750623441,-0.019625492312135468,
0.09965087281795511,0.005561381693625243,
0.0997007481296758,-0.022352719507656972,
0.09975062344139651,0.004053933333056704,
0.09980049875311721,-0.002443484726034989,
0.0998503740648379,-0.022711466034758133,
0.0999002493765586,-0.003278052650680846,
0.0999501246882793,0.0011539673958863633,
0.1,0.007581039064886654,
0.1000498753117207,-0.001077921638588118,
0.1000997506234414,0.006221799766000565,
0.10014962593516209,-0.03403125947649766,
0.10019950124688279,-0.02690145976164266,
0.1002493765586035,-0.010159957090634716,
0.1002992518703242,0.024535609749152473,
0.10034912718204489,-0.019633802374425545,
0.10039900249376559,-0.0005472422002590089,
0.10044887780548628,0.008539439441884098,
0.10049875311720698,-0.022242115432905687,
0.10054862842892769,0.005483896181991804,
0.10059850374064838,-0.0376536789651231,
0.10064837905236908,0.03142691445462939,
0.10069825436408977,-0.00712081384362872,
0.10074812967581047,-0.009935515150642553,
0.10079800498753118,-0.013480160392742796,
0.10084788029925187,-0.043716808076671276,
0.10089775561097257,-0.011410013572170771,
0.10094763092269327,-0.013694702972929847,
0.10099750623441396,-0.005218959848969898,
0.10104738154613466,-0.020433503781918872,
0.10109725685785537,-0.012374824700015549,
0.10114713216957606,0.00684971942771553,
0.10119700748129676,-0.001820428338418282,
0.10124688279301745,-0.03336532419629043,
0.10129675810473815,-0.002298441730441643,
0.10134663341645886,-0.011331410658366237,
0.10139650872817955,-0.03091086445830907,
0.10144638403990025,0.0052086027485912165,
0.10149625935162095,-0.005496419639574792,
0.10154613466334164,0.0006664843419762357,
0.10159600997506234,-0.03184653885303888,
0.10164588528678305,-0.0009259937649804695,
0.10169576059850374,8.799868162708696e-05,
0.10174563591022444,0.00029272638794706693,
0.10179551122194513,0.0014953539102789196,
0.10184538653366583,-0.006489905031585552,
0.10189526184538654,-0.03726719229804616,
0.10194513715710724,0.013476972916424992,
0.10199501246882793,-0.007104491728327741,
0.10204488778054863,-0.010613741914348366,
0.10209476309226932,-0.00016872789850236151,
0.10214463840399003,-0.03940995918221702,
0.10219451371571073,-0.016647457992919924,
0.10224438902743142,-0.0058517017565638384,
0.10229426433915212,-0.013146425722352209,
0.10234413965087281,-0.0026477173584389113,
0.10239401496259351,0.014226081052245904,
0.10244389027431422,-0.0302281954906769,
0.10249376558603492,-0.005459069532085891,
0.10254364089775561,-0.010329055539112845,
0.10259351620947631,0.0020040115941772473,
0.102643391521197,-0.0025436452191128084,
0.10269326683291771,-0.017612536171458526,
0.10274314214463841,-0.0013551489325179366,
0.1027930174563591,-0.01313876831781418,
0.1028428927680798,-0.006126915956038114,
0.1028927680798005,0.002132807698115696,
0.10294264339152119,-0.009697317137416516,
0.1029925187032419,-0.024356996391941686,
0.1030423940149626,-0.018035109975178966,
0.10309226932668329,-0.008402945753261962,
0.10314214463840399,-0.005393034739023434,
0.10319201995012468,-0.027167788376764205,
0.10324189526184539,-0.014603636844306923,
0.10329177057356609,-0.017567712536093027,
0.10334164588528678,-0.01643510470801985,
0.10339152119700748,-0.026600587626924365,
0.10344139650872818,0.00039346407434922084,
0.10349127182044887,0.004623398926289225,
0.10354114713216958,-0.04706815624966429,
0.10359102244389028,0.009877338603023807,
0.10364089775561097,-0.0010846340797964274,
0.10369077306733167,-0.020176006679508023,
0.10374064837905236,-0.01110458927015062,
0.10379052369077307,-0.03295075733512971,
0.10384039900249377,-0.008677699268467535,
0.10389027431421446,0.0004916100509556355,
0.10394014962593516,0.01502205253986813,
0.10399002493765586,-0.021860767923811315,
0.10403990024937655,-0.0051864362081989485,
0.10408977556109726,-0.0076555885866135135,
0.10413965087281796,-0.014857704084745838,
0.10418952618453865,-0.011171283296957707,
0.10423940149625935,-0.017188680980200453,
0.10428927680798004,0.004438328673542597,
0.10433915211970075,-0.010269771188002942,
0.10438902743142145,-0.016079940818429846,
0.10443890274314215,-0.0009892548955221002,
0.10448877805486284,-0.022222232026795314,
0.10453865336658354,-0.01537014227169027,
0.10458852867830425,0.013845433212187489,
0.10463840399002494,-0.010116415921711478,
0.10468827930174564,0.01632583528108596,
0.10473815461346633,-0.013219896882520997,
0.10478802992518703,0.01170030894878737,
0.10483790523690772,-0.0094618047416594,
0.10488778054862843,-0.01197772527036755,
0.10493765586034913,-0.0007987268221260812,
0.10498753117206983,-0.008341116081113192,
0.10503740648379052,-0.031922824134250224,
0.10508728179551122,-0.011207186283695032,
0.10513715710723193,0.00328944861946588,
0.10518703241895262,0.02493175520596076,
0.10523690773067332,0.009552575832296822,
0.10528678304239401,-0.001114096789524511,
0.10533665835411471,0.0002756748220212632,
0.1053865336658354,0.008598677706839938,
0.10543640897755611,0.017352876005018683,
0.10548628428927681,-0.015722608930540588,
0.1055361596009975,-0.011710501380080406,
0.1055860349127182,0.0067507322914229385,
0.1056359102244389,0.01593045489243454,
0.10568578553615961,0.0002860501712017682,
0.1057356608478803,-0.021555390514054425,
0.105785536159601,0.0054615987211864385,
0.1058354114713217,0.01483788207895107,
0.10588528678304239,-0.0123540250673894,
0.10593516209476309,-0.00410748989774398,
0.1059850374064838,-0.007970404638362015,
0.10603491271820449,0.01986869390578502,
0.10608478802992519,0.014204789536679835,
0.10613466334164588,0.014379785816367447,
0.10618453865336658,-0.012379982539683716,
0.10623441396508729,-0.006092311855476778,
0.10628428927680798,0.015360988624060675,
0.10633416458852868,0.01375272208250273,
0.10638403990024937,0.02045674534329424,
0.10643391521197007,-0.03186792155602282,
0.10648379052369077,0.009716298760183085,
0.10653366583541148,0.03964249831176545,
0.10658354114713217,0.013462203289515211,
0.10663341645885287,0.021093674599480826,
0.10668329177057356,-0.008108236054058226,
0.10673316708229426,0.0161970247941462,
0.10678304239401497,0.0016091864357049971,
0.10683291770573566,-0.013575523497870166,
0.10688279301745636,0.006463373707632051,
0.10693266832917706,-0.006801246385371206,
0.10698254364089775,0.01605390120125186,
0.10703241895261846,0.022604196240853067,
0.10708229426433916,0.0073995352096896515,
0.10713216957605985,0.02042667025164654,
0.10718204488778055,0.0165191558531919,
0.10723192019950124,0.00605040267076855,
0.10728179551122194,0.011518355493813557,
0.10733167082294265,-0.0118918602649186,
0.10738154613466334,-0.011238564741085854,
0.10743142144638404,0.006209159717415329,
0.10748129675810474,0.04116609569050379,
0.10753117206982543,0.030693383538878613,
0.10758104738154614,0.017320960750416125,
0.10763092269326684,-0.002348338245607127,
0.10768079800498753,0.0026494492256135555,
0.10773067331670823,-0.011533718744330823,
0.10778054862842892,0.016572748747457955,
0.10783042394014962,-0.004653264713200175,
0.10788029925187033,0.01017743243767951,
0.10793017456359102,0.0037418022990814096,
0.10798004987531172,-0.010925038924082203,
0.10802992518703242,-0.015314589568142474,
0.10807980049875311,0.0011009115236754775,
0.10812967581047382,0.021903787526672405,
0.10817955112219452,0.031029042025836673,
0.10822942643391521,0.02268995598032246,
0.10827930174563591,0.010954149610888088,
0.1083291770573566,0.017375124768767933,
0.1083790523690773,0.013492420517258887,
0.10842892768079801,0.013657019177059639,
0.1084788029925187,0.02361739824892133,
0.1085286783042394,0.020525006261064658,
0.1085785536159601,-0.00712301390122172,
0.10862842892768079,0.019574516180278098,
0.1086783042394015,0.011729821091978584,
0.1087281795511222,0.03994858610216682,
0.1087780548628429,0.03299330452089329,
0.10882793017456359,0.022932385455158653,
0.10887780548628428,0.007208380504888043,
0.108927680798005,0.03224075752179391,
0.10897755610972569,0.011162537280094035,
0.10902743142144639,0.002888498362104898,
0.10907730673316708,0.0010209110929933103,
0.10912718204488778,0.020583246242999186,
0.10917705735660847,-0.009576893876835572,
0.10922693266832918,0.014928815782234376,
0.10927680798004988,0.020931292675308747,
0.10932668329177057,0.035743237234473126,
0.10937655860349127,0.011899095221985798,
0.10942643391521197,0.03192276952066261,
0.10947630922693267,0.02754847529557966,
0.10952618453865337,0.025607231143601528,
0.10957605985037407,0.028514643034960145,
0.10962593516209476,0.033425807914350875,
0.10967581047381546,0.018569368867910142,
0.10972568578553615,0.02184384679441822,
0.10977556109725686,0.01115610466668294,
0.10982543640897756,0.03095238055687473,
0.10987531172069825,0.015753396576784505,
0.10992518703241895,0.02200705651745448,
0.10997506234413965,0.01562840977637738,
0.11002493765586036,0.005885045537574029,
0.11007481296758105,0.018722099572020874,
0.11012468827930175,0.008026922075991472,
0.11017456359102244,0.005203967997039916,
0.11022443890274314,0.02565805159976723,
0.11027431421446383,0.0174772863295566,
0.11032418952618454,0.024263652566982125,
0.11037406483790524,0.03975617456681526,
0.11042394014962593,0.04660623614512536,
0.11047381546134663,0.04184638672706627,
0.11052369077306733,0.028666417041076128,
0.11057356608478804,0.04616578691821396,
0.11062344139650873,0.01267296745462259,
0.11067331670822943,0.025867629761105994,
0.11072319201995012,0.07380119870346838,
0.11077306733167082,0.01122623247429719,
0.11082294264339151,-0.024254836684396153,
0.11087281795511222,0.051572230310007586,
0.11092269326683292,0.030618310764327104,
0.11097256857855362,0.02823301248929313,
0.11102244389027431,0.02530946474347812,
0.111072319201995,0.006404933984601142,
0.11112219451371572,0.052396951721568254,
0.11117206982543641,0.043165319897715944,
0.11122194513715711,0.04122557744290069,
0.1112718204488778,0.025918085592023025,
0.1113216957605985,0.03698123557092921,
0.11137157107231921,0.01491524733418251,
0.1114214463840399,0.030263706796610147,
0.1114713216957606,0.06595775581347627,
0.1115211970074813,0.02153293029025409,
0.11157107231920199,0.013755618588413647,
0.11162094763092269,-4.960095810553275e-05,
0.1116708229426434,0.05240876029678701,
0.11172069825436409,0.02564106016835968,
0.11177057356608479,0.025423762764684818,
0.11182044887780548,0.025908915155500728,
0.11187032418952618,0.018003196639726677,
0.11192019950124689,0.04403721710392806,
0.11197007481296758,0.02171108431641375,
0.11201995012468828,0.032673787647280204,
0.11206982543640898,0.04692978079582047,
0.11211970074812967,0.014354736399329075,
0.11216957605985037,0.015198361689304399,
0.11221945137157108,0.006419658406409141,
0.11226932668329177,0.023610307665992803,
0.11231920199501247,0.02078324142860341,
0.11236907730673316,0.023595904841915004,
0.11241895261845386,0.04548789597134306,
0.11246882793017457,-0.001349611151207502,
0.11251870324189527,0.023131334634789055,
0.11256857855361596,0.03820571550239453,
0.11261845386533666,0.015842786000760167,
0.11266832917705735,0.0098766271815913,
0.11271820448877805,0.040017964444762855,
0.11276807980049876,0.0288770060073913,
0.11281795511221945,0.021762637685651166,
0.11286783042394015,0.03017424442011328,
0.11291770573566084,0.05562964419768304,
0.11296758104738154,0.028624954272156146,
0.11301745635910225,0.017788764737267385,
0.11306733167082295,-0.00175921153253656,
0.11311720698254364,0.02420866121528468,
0.11316708229426434,0.016843384248821796,
0.11321695760598503,0.054329897201155775,
0.11326683291770574,0.03505572750623797,
0.11331670822942644,0.04300724607079375,
0.11336658354114713,0.03193816834081278,
0.11341645885286783,0.02327830446248921,
0.11346633416458853,0.03955801335334034,
0.11351620947630922,0.010913842784735773,
0.11356608478802993,0.02338263150891203,
0.11361596009975063,0.03527037553385451,
0.11366583541147132,0.014199186027740755,
0.11371571072319202,0.010137998659156919,
0.11376558603491271,0.00510363854364488,
0.11381546134663342,0.02553443411742856,
0.11386533665835412,0.06577642028344208,
0.11391521197007481,0.01750266688779132,
0.11396508728179551,0.0166406296830144,
0.1140149625935162,0.019935299927958595,
0.1140648379052369,0.005628360062490446,
0.11411471321695761,0.025361101393122754,
0.1141645885286783,0.018632921620048225,
0.114214463840399,0.00229928629068777,
0.1142643391521197,0.02373986590560348,
0.1143142144638404,0.04440131542120858,
0.1143640897755611,0.03607489808854107,
0.1144139650872818,0.03847211394740523,
0.1144638403990025,0.019294900906181335,
0.11451371571072319,0.044430103617994016,
0.11456359102244389,0.021863291736657218,
0.11461346633416458,0.030449062723797528,
0.11466334164588529,0.027494423387623833,
0.11471321695760599,0.016743117272568733,
0.11476309226932668,0.01679097696204317,
0.11481296758104738,0.027505544308082476,
0.11486284289276807,0.007467223268799861,
0.11491271820448878,0.02366018625824772,
0.11496259351620948,0.011998718613803696,
0.11501246882793018,0.05084109745777594,
0.11506234413965087,0.015579865887741474,
0.11511221945137157,0.04010202633720471,
0.11516209476309226,0.0011602128878086676,
0.11521197007481297,0.032730873963626915,
0.11526184538653367,0.008839237969518349,
0.11531172069825436,-0.023094137876727712,
0.11536159600997506,0.030409216089347206,
0.11541147132169575,0.021347855155342998,
0.11546134663341646,0.027122062600883755,
0.11551122194513716,0.0412269403060736,
0.11556109725685786,-0.0014823656686242664,
0.11561097256857855,0.023169963273417995,
0.11566084788029925,0.013992719759485003,
0.11571072319201996,0.02670757225989036,
0.11576059850374065,0.0062963587382192775,
0.11581047381546135,-0.007090068909323174,
0.11586034912718204,0.03417853776810538,
0.11591022443890274,0.02029571994505213,
0.11596009975062344,0.02319032252199862,
0.11600997506234415,0.016022959423441348,
0.11605985037406484,0.04440477571155544,
0.11610972568578554,-0.010381613294284359,
0.11615960099750623,0.02409931592987245,
0.11620947630922693,0.02139295920800131,
0.11625935162094764,-0.011990116197020166,
0.11630922693266833,0.02592569681221212,
0.11635910224438903,-0.005461980637974002,
0.11640897755610972,0.008251765712319675,
0.11645885286783042,0.008780475148124956,
0.11650872817955112,0.015194349691474398,
0.11655860349127183,0.007117572390474054,
0.11660847880299252,0.02793577977257719,
0.11665835411471322,0.01763176200723835,
0.11670822942643391,0.025471446219282948,
0.11675810473815461,-0.022303169558778906,
0.11680798004987532,0.010113137632158289,
0.11685785536159601,0.028303052598937985,
0.11690773067331671,0.01714358891783316,
0.1169576059850374,0.011382392039001802,
0.1170074812967581,0.0357587966779024,
0.1170573566084788,0.017129452266787765,
0.1171072319201995,0.017510227800065416,
0.1171571072319202,-0.007854053064024863,
0.1172069825436409,-0.00506458345487419,
0.1172568578553616,0.009468388815554118,
0.11730673316708229,-0.007544057941232283,
0.117356608478803,0.008573053148699496,
0.1174064837905237,0.019307191759229656,
0.11745635910224439,-0.003583721343772171,
0.11750623441396509,0.0316200793408292,
0.11755610972568578,0.025680232785428126,
0.11760598503740648,0.011404406385999731,
0.11765586034912719,0.0067859445370992005,
0.11770573566084788,0.00759559399421409,
0.11775561097256858,-0.011857918836494022,
0.11780548628428927,-0.012602914085554551,
0.11785536159600997,-0.0018243390266180796,
0.11790523690773068,-0.013566001437701319,
0.11795511221945137,-0.007620442353800658,
0.11800498753117207,0.018190531086892635,
0.11805486284289277,0.0014159694913428566,
0.11810473815461346,0.015312182491971851,
0.11815461346633417,-0.012019144637156837,
0.11820448877805487,0.007247558487003629,
0.11825436408977556,0.011677006076919558,
0.11830423940149626,-0.009512908072442375,
0.11835411471321695,-0.017666199730869744,
0.11840399002493765,0.009103447758314913,
0.11845386533665836,-0.01833905660898975,
0.11850374064837906,-0.018510081609311994,
0.11855361596009975,-0.012396561571723603,
0.11860349127182045,-0.005628096158679094,
0.11865336658354114,0.021684251298107998,
0.11870324189526185,0.009190802587753918,
0.11875311720698255,0.0201292880239769,
0.11880299251870324,0.024716457479093575,
0.11885286783042394,-0.00410005358351935,
0.11890274314214463,0.007087081471780174,
0.11895261845386533,0.007114320313748333,
0.11900249376558604,0.0007986295452937233,
0.11905236907730674,-0.003613886396262209,
0.11910224438902743,-0.016883556903496348,
0.11915211970074813,0.006667620518170728,
0.11920199501246882,0.0018192582478655161,
0.11925187032418953,0.00978289432727106,
0.11930174563591023,-4.514735834575297e-06,
0.11935162094763092,-0.0011824198528009836,
0.11940149625935162,-0.008239429126087591,
0.11945137157107232,-0.017003063943177216,
0.11950124688279301,-0.006594251642485312,
0.11955112219451372,-0.0017096484749337384,
0.11960099750623442,-0.011301472294701293,
0.11965087281795511,0.00020229522202479776,
0.11970074812967581,-0.004215976483060706,
0.1197506234413965,-0.009898199469454477,
0.11980049875311721,0.004411196899093139,
0.11985037406483791,0.027551379471787395,
0.1199002493765586,-0.021437709551387865,
0.1199501246882793,-0.004977575896113546,
0.12,-0.0014493901239349379,
0.1200498753117207,-0.01078927225634568,
0.1200997506234414,0.006919013251053147,
0.1201496259351621,0.0096315960645634,
0.12019950124688279,-0.006295568347592677,
0.12024937655860349,0.022110532541711327,
0.12029925187032418,-0.01255959177653776,
0.1203491271820449,-0.005858496213606407,
0.12039900249376559,-0.017029252799515143,
0.12044887780548628,-0.012797645676748392,
0.12049875311720698,8.378470259527877e-05,
0.12054862842892768,-0.007514679873667454,
0.12059850374064839,0.03136328147168264,
0.12064837905236908,-0.034839967283835094,
0.12069825436408978,-0.017401321602202965,
0.12074812967581047,-0.03046603539390013,
0.12079800498753117,-0.021186387821235837,
0.12084788029925186,-0.005771251219634068,
0.12089775561097257,-0.023018661321306984,
0.12094763092269327,0.004487250639412722,
0.12099750623441397,-0.005022624501553591,
0.12104738154613466,-0.02995557758738847,
0.12109725685785536,-0.005996454399226744,
0.12114713216957607,-0.007624856639039796,
0.12119700748129676,-0.005940293166756563,
0.12124688279301746,-0.01869011762024239,
0.12129675810473815,0.024370874352598236,
0.12134663341645885,-0.0005644128505979638,
0.12139650872817954,-0.024664919689929267,
0.12144638403990025,-0.02293454674019174,
0.12149625935162095,0.0006752285737058848,
0.12154613466334165,-0.006382008427886222,
0.12159600997506234,0.0018917260614327025,
0.12164588528678304,-0.010863577894859597,
0.12169576059850375,0.001694476331782017,
0.12174563591022444,-0.022757480478861166,
0.12179551122194514,-0.0047267809194224625,
0.12184538653366583,0.007126499186712234,
0.12189526184538653,-0.040301094674743354,
0.12194513715710723,-0.034358716459986685,
0.12199501246882793,-0.014320904523701808,
0.12204488778054863,-0.0176692952380729,
0.12209476309226933,0.014176127507896458,
0.12214463840399002,-0.01880770722903825,
0.12219451371571072,-0.005147402005189047,
0.12224438902743143,-0.01933325448072014,
0.12229426433915212,-0.019559989738782695,
0.12234413965087282,-0.04791639207462582,
0.12239401496259351,-0.014950332544468009,
0.12244389027431421,-0.019932067649628564,
0.12249376558603492,-0.008446211171594878,
0.12254364089775562,-0.014551651014498847,
0.12259351620947631,-0.01234454489476426,
0.122643391521197,-0.004858623247701701,
0.1226932668329177,-0.013401419526548958,
0.1227431421446384,-0.019358109064078997,
0.12279301745635911,-0.01737487170052954,
0.1228428927680798,-0.005985490182324098,
0.1228927680798005,-0.0024294353170459925,
0.1229426433915212,0.012396325790666716,
0.12299251870324189,0.013656289501864052,
0.1230423940149626,-0.007358489974434062,
0.1230922693266833,-0.031138981120807305,
0.12314214463840399,-0.02088480407218242,
0.12319201995012469,-0.006524378899512567,
0.12324189526184538,-0.023617465393826476,
0.12329177057356608,0.008705874875001067,
0.12334164588528679,-0.0010687698605929084,
0.12339152119700748,-0.00606773631103949,
0.12344139650872818,-0.01956628202655126,
0.12349127182044888,-0.0017610654111061552,
0.12354114713216957,-0.026451371824700098,
0.12359102244389028,0.025509877405536396,
0.12364089775561098,-0.015093025650409578,
0.12369077306733167,-0.010487802977040933,
0.12374064837905237,-0.011043487052699691,
0.12379052369077306,-0.02461538199349298,
0.12384039900249376,-0.030603602430496597,
0.12389027431421447,-0.01937885047252438,
0.12394014962593516,0.015948081187966597,
0.12399002493765586,-0.01593853148981874,
0.12403990024937656,-0.03490644030295615,
0.12408977556109725,0.003093746753915088,
0.12413965087281796,-0.013271858921597022,
0.12418952618453866,-0.03383934580632204,
0.12423940149625935,-0.026917432956178114,
0.12428927680798005,0.007109493212372715,
0.12433915211970074,0.008220917092106437,
0.12438902743142144,0.009212819471367423,
0.12443890274314215,0.019568770848418418,
0.12448877805486284,-0.020279153070036866,
0.12453865336658354,-0.013052574019034889,
0.12458852867830424,-0.01074110160367658,
0.12463840399002493,-0.00047742195998534426,
0.12468827930174564,-0.008592280501951067,
0.12473815461346634,-0.007943060212881943,
0.12478802992518703,-0.00348313305834606,
0.12483790523690773,0.02117056642490231,
0.12488778054862842,-0.0006450673203569016,
0.12493765586034913,-0.004954049002613363,
0.12498753117206983,-0.01977838575537581,
0.12503740648379053,0.009248809749784129,
0.12508728179551123,-0.015463589725439413,
0.12513715710723192,-0.004168819574391026,
0.12518703241895263,-0.009807136335265048,
0.1252369077306733,-0.01684231674565611,
0.12528678304239402,-0.03521359694530665,
0.1253366583541147,0.006574038672469175,
0.1253865336658354,0.013610923714672775,
0.12543640897755612,0.024098614113200398,
0.1254862842892768,0.024620607111110526,
0.1255361596009975,0.005504292819296835,
0.1255860349127182,-0.0037592866157835857,
0.1256359102244389,0.018974624735172696,
0.1256857855361596,-0.010934306566802693,
0.1257356608478803,0.02947280520375333,
0.125785536159601,-0.0031386033851278196,
0.12583541147132168,0.021065684371916957,
0.1258852867830424,-0.0008801096428287863,
0.1259351620947631,-0.011394337373754825,
0.12598503740648379,-0.009669687773221382,
0.1260349127182045,-0.007036272536228525,
0.12608478802992518,0.01505625441122713,
0.1261346633416459,-0.004611516153143022,
0.1261845386533666,0.028982108037583918,
0.12623441396508728,0.023511452224075455,
0.126284289276808,0.017980990918867585,
0.12633416458852867,-0.0002949282715998076,
0.12638403990024938,0.02079640305655558,
0.1264339152119701,0.005375006507214232,
0.12648379052369077,-0.007898228256222214,
0.12653366583541148,0.008978985139222403,
0.12658354114713216,-0.0010995931941013802,
0.12663341645885287,0.002407380900717093,
0.12668329177057355,0.015419065352333202,
0.12673316708229426,0.006122952596254801,
0.12678304239401497,0.0155087186722986,
0.12683291770573565,-0.02117539065470511,
0.12688279301745636,0.031292910684070065,
0.12693266832917705,0.023998025767920546,
0.12698254364089775,0.0045370236057991845,
0.12703241895261846,0.029145137449104828,
0.12708229426433915,0.0022538147311645627,
0.12713216957605986,0.018112824743600937,
0.12718204488778054,-0.006170765007890806,
0.12723192019950125,-0.012012350219884725,
0.12728179551122196,0.015879016031599257,
0.12733167082294264,0.008371679273959175,
0.12738154613466335,-0.004433321897557456,
0.12743142144638403,0.001851117841002281,
0.12748129675810474,5.285731327388243e-07,
0.12753117206982545,-0.00185372452379182,
0.12758104738154613,0.016241630825189625,
0.12763092269326684,-0.0010093089304717313,
0.12768079800498752,0.012203042834427011,
0.12773067331670823,-0.017753365183529247,
0.1277805486284289,0.020906012655636172,
0.12783042394014962,0.011366180847102511,
0.12788029925187033,0.012662679217917513,
0.12793017456359101,0.001247755447573282,
0.12798004987531172,0.03087732503809085,
0.1280299251870324,0.00881964841156562,
0.12807980049875312,0.02167700201441759,
0.12812967581047383,0.02245638152750691,
0.1281795511221945,-0.0022736414523757496,
0.12822942643391522,0.005046156010554704,
0.1282793017456359,0.00915005732549862,
0.1283291770573566,0.029976407757674066,
0.12837905236907732,0.003024732448346919,
0.128428927680798,0.027556674639706274,
0.1284788029925187,0.0013005310957886727,
0.1285286783042394,0.008600225019934493,
0.1285785536159601,0.03399989228814585,
0.1286284289276808,0.042021266126677115,
0.1286783042394015,-0.003690762594705091,
0.1287281795511222,0.01259540678009375,
0.12877805486284288,0.026778031510942144,
0.1288279301745636,0.026009139368817318,
0.1288778054862843,0.03405965910336687,
0.12892768079800498,0.017054966707634615,
0.1289775561097257,0.01617492143350417,
0.12902743142144638,0.02327350969814409,
0.12907730673316709,0.018578908269890986,
0.12912718204488777,0.03893569230210295,
0.12917705735660848,0.04442495039660247,
0.1292269326683292,0.031153159746069532,
0.12927680798004987,0.027752322722030022,
0.12932668329177058,0.013099846093477363,
0.12937655860349126,0.01975709764147836,
0.12942643391521197,0.01958438398944075,
0.12947630922693268,0.020812395302003843,
0.12952618453865336,0.036440168486589083,
0.12957605985037407,0.019140600330940432,
0.12962593516209475,0.01880984278231039,
0.12967581047381546,0.030586266975399352,
0.12972568578553617,0.018722605805558925,
0.12977556109725685,0.03133246100073419,
0.12982543640897756,-0.0009447193681690925,
0.12987531172069824,0.01952961905776898,
0.12992518703241895,0.0012072474525336094,
0.12997506234413966,0.010405673746283334,
0.13002493765586035,0.0524974343074569,
0.13007481296758105,0.04682272925919586,
0.13012468827930174,0.027026541587733665,
0.13017456359102245,0.015784558000826898,
0.13022443890274316,0.047118339679900034,
0.13027431421446384,0.030890305696528227,
0.13032418952618455,0.008394730569077306,
0.13037406483790523,0.008596493538438194,
0.13042394014962594,0.01414287428000578,
0.13047381546134662,0.020947796957853457,
0.13052369077306733,0.012319556572780948,
0.13057356608478804,0.022788542556085208,
0.13062344139650872,0.022502907847049655,
0.13067331670822943,0.029785815690609216,
0.1307231920199501,0.011039856059834454,
0.13077306733167082,0.031015357534753672,
0.13082294264339153,-0.016619477743065388,
0.13087281795511221,0.02249388966769913,
0.13092269326683292,0.0017611229677278462,
0.1309725685785536,0.020117554252823074,
0.13102244389027431,0.0413710523678145,
0.13107231920199502,0.021605491263264713,
0.1311221945137157,0.04239925295667038,
0.13117206982543642,0.03582960706639443,
0.1312219451371571,0.0378908882911269,
0.1312718204488778,0.04348840952718607,
0.13132169576059852,0.04127222368942278,
0.1313715710723192,0.04256234140265411,
0.1314214463840399,0.02220504216314764,
0.1314713216957606,0.03987415066448556,
0.1315211970074813,0.03207332924059024,
0.13157107231920198,0.0479539196891553,
0.1316209476309227,0.035130740393470125,
0.1316708229426434,0.054731184631891576,
0.13172069825436408,0.019268467867879585,
0.1317705735660848,0.01707650065277715,
0.13182044887780547,0.03913073711302922,
0.13187032418952618,0.01635976092293618,
0.1319201995012469,0.03542578498850843,
0.13197007481296757,0.03169769027566758,
0.13201995012468828,0.01434159596581795,
0.13206982543640897,0.03994536605831586,
0.13211970074812968,0.03109585196264574,
0.13216957605985039,0.04304107600456924,
0.13221945137157107,0.03553302591104941,
0.13226932668329178,0.03313741059626622,
0.13231920199501246,0.045346746019542736,
0.13236907730673317,0.030582059866656526,
0.13241895261845388,0.02827024355799087,
0.13246882793017456,0.05487261688924151,
0.13251870324189527,0.05605275011313246,
0.13256857855361595,0.046792746464173696,
0.13261845386533666,0.023675826745226704,
0.13266832917705737,0.03321134064785522,
0.13271820448877805,0.036659626074402055,
0.13276807980049876,0.025592274151009425,
0.13281795511221944,0.04611372121034426,
0.13286783042394015,0.0309988627116523,
0.13291770573566083,0.03281691831369062,
0.13296758104738154,0.02274877994652572,
0.13301745635910225,0.012594551563823865,
0.13306733167082294,0.03807167292503447,
0.13311720698254365,0.025882248494869677,
0.13316708229426433,0.014556881272926564,
0.13321695760598504,0.05341564785401634,
0.13326683291770575,0.026947934594981723,
0.13331670822942643,0.026521642017538823,
0.13336658354114714,0.018688913555522275,
0.13341645885286782,0.034152514442218444,
0.13346633416458853,0.0024643660482112813,
0.13351620947630924,0.04564382273477592,
0.13356608478802992,0.01616925078994893,
0.13361596009975063,0.03556630841304312,
0.1336658354114713,0.03002825668656312,
0.13371571072319202,0.014015199790286382,
0.13376558603491273,0.023796260837443184,
0.1338154613466334,0.03758059180633673,
0.13386533665835412,0.020434573125624363,
0.1339152119700748,0.023976767699647936,
0.13396508728179551,0.010106861398129753,
0.1340149625935162,-0.004614540769494555,
0.1340648379052369,0.003028906424878873,
0.13411471321695762,0.03306557525878282,
0.1341645885286783,0.013304016170863768,
0.134214463840399,0.033202175759068135,
0.1342643391521197,-0.005889244355469059,
0.1343142144638404,0.02219045506169246,
0.1343640897755611,0.03413431003032068,
0.1344139650872818,0.02159337642306912,
0.1344638403990025,0.016867407068091346,
0.13451371571072318,0.024916537736855943,
0.1345635910224439,0.005472354873211498,
0.1346134663341646,0.02312531916082769,
0.13466334164588528,0.023853739152868376,
0.134713216957606,0.03914367773186951,
0.13476309226932667,0.013371099454603297,
0.13481296758104738,0.016844959897294946,
0.1348628428927681,0.025313626594621604,
0.13491271820448877,0.01859788622109965,
0.13496259351620948,0.017025602140802093,
0.13501246882793017,-0.0007768204395669949,
0.13506234413965088,0.03294308945717138,
0.13511221945137158,0.016105667628057728,
0.13516209476309227,0.0018915624986916742,
0.13521197007481298,0.014774456392492826,
0.13526184538653366,0.001124265563571012,
0.13531172069825437,0.0022408660837510697,
0.13536159600997505,0.029482376961844702,
0.13541147132169576,0.03795611609466358,
0.13546134663341647,0.017320459898547316,
0.13551122194513715,0.01178255536363487,
0.13556109725685786,0.03361611891901753,
0.13561097256857854,0.04734922163789314,
0.13566084788029925,0.03785912934487619,
0.13571072319201996,0.01612281607834455,
0.13576059850374064,0.018556922389831376,
0.13581047381546135,0.023343767384386135,
0.13586034912718203,0.019281203295934544,
0.13591022443890274,-0.007648916530004844,
0.13596009975062345,0.03913735028858163,
0.13600997506234414,0.03550157431943621,
0.13605985037406484,0.0263915247672453,
0.13610972568578553,-0.004222767225774866,
0.13615960099750624,0.012899980781953736,
0.13620947630922695,0.016401590611769865,
0.13625935162094763,0.009146754884386987,
0.13630922693266834,-0.00176191459527544,
0.13635910224438902,0.01832039236154336,
0.13640897755610973,0.008409076662896729,
0.1364588528678304,0.01580004023543553,
0.13650872817955112,0.032583632274599816,
0.13655860349127183,0.0076083909609623145,
0.1366084788029925,0.02111569049545349,
0.13665835411471322,0.0073163482107710676,
0.1367082294264339,0.018531186755400525,
0.1367581047381546,-0.0006886685913267999,
0.13680798004987532,0.022863995223628197,
0.136857855361596,0.008812136254921464,
0.1369077306733167,-0.0002766360408016748,
0.1369576059850374,0.0363123327496528,
0.1370074812967581,0.008247032617761343,
0.13705735660847881,-0.00031679057766158085,
0.1371072319201995,0.011662004038162558,
0.1371571072319202,0.007437922261477624,
0.1372069825436409,0.018837558932432386,
0.1372568578553616,0.016345174089442,
0.1373067331670823,-0.00926255869200888,
0.137356608478803,-0.002646879022550317,
0.1374064837905237,0.000560077134997285,
0.13745635910224438,-0.038944169083460295,
0.1375062344139651,0.03683161140060085,
0.1375561097256858,-0.003811025779652477,
0.13760598503740648,-0.007684218899562077,
0.1376558603491272,0.007548765619298014,
0.13770573566084787,0.007931527164332491,
0.13775561097256858,-0.0034810581382505035,
0.13780548628428926,0.004277760667989033,
0.13785536159600997,-0.017892018959377944,
0.13790523690773068,-0.005709117585324001,
0.13795511221945136,0.014238626593225006,
0.13800498753117207,-0.0023203787071010102,
0.13805486284289276,0.0067012594305928125,
0.13810473815461347,0.02376888808411132,
0.13815461346633418,0.0274558614300853,
0.13820448877805486,0.02878826796278265,
0.13825436408977557,0.013631763920427684,
0.13830423940149625,0.00480305958386421,
0.13835411471321696,-0.00402047978453283,
0.13840399002493767,0.008782488393622733,
0.13845386533665835,-0.009497999799957083,
0.13850374064837906,0.013152561788612871,
0.13855361596009974,-0.002067301846904304,
0.13860349127182045,0.016726805397724236,
0.13865336658354116,-0.010632789461501571,
0.13870324189526184,0.009154674820644585,
0.13875311720698255,0.018229401270788714,
0.13880299251870323,-0.006645155960735532,
0.13885286783042394,-0.001622026192308924,
0.13890274314214462,0.012757103844410965,
0.13895261845386533,0.01189844213940796,
0.13900249376558604,0.018719636507935462,
0.13905236907730673,-0.01268033340008699,
0.13910224438902744,-0.011041568853249096,
0.13915211970074812,-0.00829598017703161,
0.13920199501246883,0.00034242915280553016,
0.13925187032418954,0.015452696410133717,
0.13930174563591022,-0.007180936013162634,
0.13935162094763093,0.0005865775859897784,
0.1394014962593516,-0.03189411462472319,
0.13945137157107232,-0.0024791305588917935,
0.13950124688279303,0.006752918966796039,
0.1395511221945137,-0.03425476290478011,
0.13960099750623442,-0.003532574468188425,
0.1396508728179551,-0.019552785206748604,
0.1397007481296758,-0.013518470425750235,
0.13975062344139652,-0.004909303132583543,
0.1398004987531172,-0.027572954410635328,
0.1398503740648379,-0.02007127733417677,
0.1399002493765586,0.008114010873529377,
0.1399501246882793,0.008700861176837021,
0.14,0.011154551319627837,
0.1400498753117207,-0.004016528896029297,
0.1400997506234414,-0.009481930632953344,
0.1401496259351621,-0.010658752497141856,
0.1401995012468828,-0.023536264003166572,
0.14024937655860348,-0.03189167778073239,
0.1402992518703242,0.0009542038919630154,
0.1403491271820449,-0.0064279200003045465,
0.14039900249376558,0.00412818126964621,
0.1404488778054863,-0.01890973711291343,
0.14049875311720697,0.004515045535641861,
0.14054862842892768,0.029962421148765316,
0.1405985037406484,-0.009228018261978478,
0.14064837905236907,0.0006288247092264788,
0.14069825436408978,0.007116662827990878,
0.14074812967581046,0.018146446281635937,
0.14079800498753117,0.03373468301451634,
0.14084788029925188,-0.012004904961465586,
0.14089775561097256,-0.03448740185346303,
0.14094763092269327,-0.00024194964880916263,
0.14099750623441396,0.0015088155242277742,
0.14104738154613466,-0.008666598732571737,
0.14109725685785537,-0.01735461914796253,
0.14114713216957606,-0.0034737235059964858,
0.14119700748129677,0.017498496709870533,
0.14124688279301745,-0.024875961956435256,
0.14129675810473816,-0.020312541934234925,
0.14134663341645887,0.004003055403336262,
0.14139650872817955,-0.022144943496503595,
