time,amplitude,label
0.0,-0.005129639422907782,
4.987531172069826e-05,0.025333023613417802,
9.975062344139652e-05,0.025124867465936465,
0.00014962593516209475,-0.018298828276637043,
0.00019950124688279303,0.010858660190636454,
0.00024937655860349125,-0.01511345923677964,
0.0002992518703241895,-0.023439748809363954,
0.00034912718204488776,-0.0037891367030561387,
0.00039900249376558606,0.022822026529218612,
0.0004488778054862843,0.02066019097590584,
0.0004987531172069825,0.011344787606144838,
0.0005486284289276808,-0.029300845388461186,
0.000598503740648379,-0.011905469774175115,
0.0006483790523690773,-0.021634182886737133,
0.0006982543640897755,-0.011359873821923942,
0.0007481296758104738,0.0017205952051284833,
0.0007980049875311721,-0.0022947079436929484,
0.0008478802992518703,-0.009685908511240062,
0.0008977556109725686,-0.002550993252008157,
0.0009476309226932668,-0.009408908745543468,
0.000997506234413965,-0.03822704731984307,
0.0010473815461346633,-0.0037481743356172085,
0.0010972568578553616,0.014230078819266452,
0.00114713216957606,0.006014752981999381,
0.001197007481296758,5.730938007071206e-05,
0.0012468827930174563,0.018253048606189717,
0.0012967581047381546,-0.009322024653068563,
0.001346633416458853,0.03676512599053401,
0.001396508728179551,0.010150111321148528,
0.0014463840399002493,0.026144307899096386,
0.0014962593516209476,0.009254224200660476,
0.001546134663341646,-0.001023682487141772,
0.0015960099750623442,0.03424389555485324,
0.0016458852867830423,0.008298725497917494,
0.0016957605985037406,0.02631650672166085,
0.001745635910224439,0.02122571343921057,
0.0017955112219451373,0.016411367875930002,
0.0018453865336658353,0.004673246303193088,
0.0018952618453865336,0.00398484531687744,
0.001945137157107232,-0.001977577601601393,
0.00199501246882793,0.023981713833434802,
0.0020448877805486283,0.021171328577232605,
0.0020947630922693266,-0.008709361322008877,
0.002144638403990025,0.012599650149566634,
0.0021945137157107233,0.004472799716543897,
0.0022443890274314216,0.017836491707234947,
0.00229426433915212,0.011368971416368228,
0.0023441396508728177,-0.009722473727541871,
0.002394014962593516,-0.0004373943447684627,
0.0024438902743142144,0.01125584501933115,
0.0024937655860349127,0.020466059062878617,
0.002543640897755611,-0.0021093185791125433,
0.0025935162094763093,0.019825653741247364,
0.0026433915211970076,0.0056615478341186685,
0.002693266832917706,-0.013003483265841817,
0.002743142144638404,0.010582061710472625,
0.002793017456359102,-0.0038190313681573575,
0.0028428927680798004,0.02637226434948205,
0.0028927680798004987,0.015332458346405193,
0.002942643391521197,0.023703587102402127,
0.0029925187032418953,0.010878936402757134,
0.0030423940149625936,0.0035340557101850648,
0.003092269326683292,0.012275386697342478,
0.00314214463840399,0.0271855264292074,
0.0031920199501246885,0.009175055229621348,
0.0032418952618453864,-0.014402947241670027,
0.0032917705735660847,0.0032455667986502276,
0.003341645885286783,0.014638529519607138,
0.0033915211970074813,0.03563563710543194,
0.0034413965087281796,0.004633457704813651,
0.003491271820448878,0.004024089845648398,
0.003541147132169576,0.005696923465901758,
0.0035910224438902745,0.0018747924416699854,
0.0036408977556109724,0.011396316653461327,
0.0036907730673316707,0.024631048903770332,
0.003740648379052369,0.032770195185317874,
0.0037905236907730673,0.04698064987095833,
0.0038403990024937656,0.030591475128742614,
0.003890274314214464,-0.006781013051503582,
0.003940149625935162,0.04824288310361311,
0.00399002493765586,0.0085691421392301,
0.004039900249376558,0.039064657605691555,
0.004089775561097257,0.011034107216744044,
0.004139650872817955,0.022470666386987765,
0.004189526184538653,-0.0018518861140350874,
0.004239401496259352,0.00020538616982709174,
0.00428927680798005,0.014307298980349208,
0.004339152119700748,0.009295092273371563,
0.0043890274314214465,0.023080988505630878,
0.004438902743142145,0.022752331831674574,
0.004488778054862843,-0.0037491225804994095,
0.004538653366583541,0.05884310718554091,
0.00458852867830424,-0.008391484294832965,
0.004638403990024938,0.03521124848869798,
0.0046882793017456355,-0.0037879205447063843,
0.004738154613466334,0.02322309710212276,
0.004788029925187032,0.022957835960235283,
0.00483790523690773,0.01502610453362222,
0.004887780548628429,0.05039742027604152,
0.004937655860349127,-0.007458627671838778,
0.004987531172069825,0.042805731955955086,
0.005037406483790524,0.0369628285903335,
0.005087281795511222,0.029378842026808048,
0.00513715710723192,0.014515827281954998,
0.0051870324189526185,0.010604934966287458,
0.005236907730673317,0.019616904282942247,
0.005286783042394015,0.00552754684007817,
0.0053366583541147134,0.054245077542504176,
0.005386533665835412,0.02841149066876865,
0.00543640897755611,0.050790010574366565,
0.005486284289276808,0.01560431033692226,
0.005536159600997507,0.03651694604325062,
0.005586034912718204,0.02518134384008061,
0.005635910224438902,0.011637874310950602,
0.005685785536159601,0.03260012162797015,
0.005735660847880299,0.01953265264199338,
0.005785536159600997,-0.005238668366046605,
0.005835411471321696,0.02806915577666308,
0.005885286783042394,0.0344822694359503,
0.005935162094763092,0.022607972984582055,
0.0059850374064837905,0.029673599174937653,
0.006034912718204489,0.01446617212550516,
0.006084788029925187,0.028759926323245512,
0.0061346633416458855,0.023475266355316323,
0.006184538653366584,0.017601364316878972,
0.006234413965087282,0.021447693594045344,
0.00628428927680798,0.013661128614989925,
0.006334164588528679,0.030252890373354165,
0.006384039900249377,0.006283789990118287,
0.006433915211970074,0.02495682544435307,
0.006483790523690773,-0.00018496433191962994,
0.006533665835411471,0.024001243713752375,
0.006583541147132169,0.016672924399406597,
0.006633416458852868,0.025777723716458943,
0.006683291770573566,0.02484500564376183,
0.006733167082294264,0.008628290973034046,
0.0067830423940149626,0.0337425747042713,
0.006832917705735661,0.01821034140766605,
0.006882793017456359,0.027336101802401987,
0.0069326683291770575,0.0355068023590132,
0.006982543640897756,0.02664170181695669,
0.007032418952618454,0.0003523516991447602,
0.007082294264339152,0.031907990353436944,
0.007132169576059851,0.00573008454187455,
0.007182044887780549,0.030280860029896717,
0.007231920199501247,-0.008155619998823572,
0.007281795511221945,0.0279109333006547,
0.007331670822942643,0.02807038360423892,
0.007381546134663341,0.037410205492274244,
0.00743142144638404,0.016291767424164296,
0.007481296758104738,0.0356282004590594,
0.007531172069825436,0.024535231838035274,
0.007581047381546135,-0.005402842255667319,
0.007630922693266833,0.02477845492051154,
0.007680798004987531,0.014026730413393463,
0.0077306733167082295,0.0283617793439881,
0.007780548628428928,0.005110989462473915,
0.007830423940149626,-0.0033997367347741343,
0.007880299251870324,0.02251002285980954,
0.007930174563591023,0.03173098925896514,
0.00798004987531172,-0.016632736096336233,
0.00802992518703242,0.032712930564467946,
0.008079800498753117,0.00027332757324025417,
0.008129675810473816,0.06575711908290756,
0.008179551122194513,-0.007220774753927938,
0.008229426433915213,0.029205575513689526,
0.00827930174563591,-0.009494822729284954,
0.00832917705735661,0.02352884609067317,
0.008379052369077307,0.007159285771700946,
0.008428927680798006,0.010068796551453338,
0.008478802992518703,0.012424783813270146,
0.0085286783042394,0.015832644176424972,
0.0085785536159601,-0.0018249617124219651,
0.008628428927680797,0.016566212966105984,
0.008678304239401496,0.0031056340309147824,
0.008728179551122194,0.006693762992119586,
0.008778054862842893,0.03513001799488533,
0.00882793017456359,0.015133183549185272,
0.00887780548628429,0.008824312103895922,
0.008927680798004987,-0.008420143224912809,
0.008977556109725686,0.01840088532320083,
0.009027431421446384,0.010662993603858166,
0.009077306733167083,0.0223127196143861,
0.00912718204488778,0.012247925217257696,
0.00917705735660848,0.011103477248397275,
0.009226932668329177,0.0018074896975637522,
0.009276807980049876,0.008047652965925363,
0.009326683291770574,5.2502596634624796e-05,
0.009376558603491271,0.017276651937394836,
0.00942643391521197,0.015395468797724972,
0.009476309226932668,0.0076216512027034835,
0.009526184538653367,0.005058967800436744,
0.009576059850374064,0.016155448208532687,
0.009625935162094763,0.009413105795938514,
0.00967581047381546,-0.022805481930063907,
0.00972568578553616,0.00015188480135333235,
0.009775561097256857,-0.01668922640000665,
0.009825436408977557,0.005498875317304996,
0.009875311720698254,0.00366919355455516,
0.009925187032418953,0.0177593097734175,
0.00997506234413965,-0.018405325871214177,
0.01002493765586035,0.01524375531434119,
0.010074812967581047,0.018060263002631298,
0.010124688279301746,0.012949938522461398,
0.010174563591022444,-0.0129805683219004,
0.010224438902743141,0.002397064524802969,
0.01027431421446384,-0.003069654369282091,
0.010324189526184538,-0.04166014053283884,
0.010374064837905237,0.00443241798409757,
0.010423940149625935,-0.01989599641250458,
0.010473815461346634,0.010893318036979016,
0.010523690773067331,-0.018417772714005853,
0.01057356608478803,-0.014506953703661157,
0.010623441396508728,0.0175399915523744,
0.010673316708229427,-0.010184656371546152,
0.010723192019950124,0.00898001573633023,
0.010773067331670824,0.003244979176458786,
0.010822942643391521,-0.01773919433620356,
0.01087281795511222,-0.009429981556027955,
0.010922693266832918,0.019721275417750095,
0.010972568578553617,0.0002746727198344493,
0.011022443890274314,0.024159700493796125,
0.011072319201995013,-0.029361261781718176,
0.01112219451371571,-0.007111452806657131,
0.011172069825436408,0.010460569921951015,
0.011221945137157107,-0.01417299876252083,
0.011271820448877805,0.019190647762885364,
0.011321695760598504,0.00042143424975098903,
0.011371571072319201,-0.022691490382885583,
0.0114214463840399,0.013957056922973983,
0.011471321695760598,0.012036505128306584,
0.011521197007481297,-0.013380446358487537,
0.011571072319201995,-0.005506223338076813,
0.011620947630922694,-0.019321283583025393,
0.011670822942643391,-0.003522560422029944,
0.01172069825436409,-0.010690939501979298,
0.011770573566084788,-0.0038685344982994276,
0.011820448877805487,-0.00401416797047277,
0.011870324189526184,-0.0039944971742657594,
0.011920199501246884,0.011118588197820495,
0.011970074812967581,-0.013924287517362608,
0.012019950124688279,-0.014842280186536876,
0.012069825436408978,-0.010131684945503453,
0.012119700748129675,-0.027949947438095403,
0.012169576059850374,-0.01700990538086919,
0.012219451371571072,0.003685944749773776,
0.012269326683291771,0.005592067342402033,
0.012319201995012468,0.015016473877640407,
0.012369077306733168,0.008645524975886429,
0.012418952618453865,-0.0007155179364915776,
0.012468827930174564,-0.033609313450319464,
0.012518703241895262,-0.02502679593229721,
0.01256857855361596,-0.02082927678073019,
0.012618453865336658,-0.00964046063072533,
0.012668329177057357,-0.000304378718939121,
0.012718204488778055,0.008705219218561672,
0.012768079800498754,-0.03567683176881241,
0.012817955112219451,-0.026902975931034037,
0.012867830423940149,0.0008017252614796189,
0.012917705735660848,0.0086156678606571,
0.012967581047381545,-0.0067103765819107345,
0.013017456359102245,-0.0012438689816501765,
0.013067331670822942,-0.0021974402562424285,
0.013117206982543641,-0.019559631783151635,
0.013167082294264339,-0.011828413200957823,
0.013216957605985038,-0.00635489330986313,
0.013266832917705735,-0.017196094285012252,
0.013316708229426434,-0.03681632969479531,
0.013366583541147132,0.006964770036152592,
0.013416458852867831,-0.03799150401748634,
0.013466334164588529,-0.05040764258758999,
0.013516209476309228,-0.029050981083396078,
0.013566084788029925,-0.01650151418710779,
0.013615960099750624,-0.01844398474045649,
0.013665835411471322,-0.01674786646855802,
0.01371571072319202,-0.02039547310698655,
0.013765586034912718,-0.024105759551573763,
0.013815461346633416,-0.026273830911081215,
0.013865336658354115,-0.012734247987066682,
0.013915211970074812,-0.0015896955784638171,
0.013965087281795512,-0.021133405603828072,
0.014014962593516209,-0.02272183864602051,
0.014064837905236908,0.002057374321661226,
0.014114713216957606,-0.01895641094126268,
0.014164588528678305,-0.010732173122402835,
0.014214463840399002,-0.014520709519028323,
0.014264339152119701,-0.019612764335657087,
0.014314214463840399,0.010904190733057414,
0.014364089775561098,-0.013376218526976411,
0.014413965087281795,-0.03185756863174179,
0.014463840399002495,-0.013601416356340624,
0.014513715710723192,-0.009676836550390288,
0.01456359102244389,-0.030515425368229678,
0.014613466334164589,0.01343508769991094,
0.014663341645885286,-0.021439953649090494,
0.014713216957605985,0.02131178486985199,
0.014763092269326683,-0.013937558053643901,
0.014812967581047382,-0.028515616963297134,
0.01486284289276808,-0.04087629378906113,
0.014912718204488778,-0.0029270863297488816,
0.014962593516209476,-0.029648831694048347,
0.015012468827930175,-0.009886163106036759,
0.015062344139650873,-0.02301543235124493,
0.015112219451371572,-0.026584126941772576,
0.01516209476309227,-0.01013294064241687,
0.015211970074812968,-0.003249200332254322,
0.015261845386533666,-0.037705731988777795,
0.015311720698254365,-0.03591682264601337,
0.015361596009975062,-0.012892074838040453,
0.01541147132169576,-0.03240069152999074,
0.015461346633416459,0.003453902694180583,
0.015511221945137156,-0.043266443810403614,
0.015561097256857856,-0.026725694515763634,
0.015610972568578553,-0.020957527729233823,
0.015660847880299252,-0.005022284903946572,
0.01571072319201995,-0.022682244881260694,
0.015760598503740647,0.004125105628163154,
0.015810473815461346,-0.024296949313105845,
0.015860349127182045,-0.014981811086829385,
0.015910224438902745,-0.018384696262090834,
0.01596009975062344,-0.02738671946703184,
0.01600997506234414,0.002258104485769463,
0.01605985037406484,-0.02917748478441725,
0.016109725685785538,-0.02986106290265119,
0.016159600997506234,0.004709030262615786,
0.016209476309226933,0.007342901964945785,
0.016259351620947632,-0.017246708149869158,
0.016309226932668328,-0.01572466768208338,
0.016359102244389027,-0.042227062540968974,
0.016408977556109726,-0.007970047471481256,
0.016458852867830425,-0.0288574838546544,
0.01650872817955112,-0.0058257914078044,
0.01655860349127182,-0.031272588578164985,
0.01660847880299252,0.0018436668018727252,
0.01665835411471322,-0.021451841641300887,
0.016708229426433914,-0.05592591310232986,
0.016758104738154613,-0.04317176325805212,
0.016807980049875312,-0.029426633226181012,
0.01685785536159601,-0.003815663556533542,
0.016907730673316707,0.0060159168911869225,
0.016957605985037406,-0.009389317519023208,
0.017007481296758106,0.009205942552813776,
0.0170573566084788,-0.022125361336640854,
0.0171072319201995,-0.012052681664309613,
0.0171571072319202,-0.011882758228177541,
0.0172069825436409,-0.003509361245443078,
0.017256857855361595,0.0016092929374788671,
0.017306733167082294,-0.027939335898501224,
0.017356608478802993,-0.017654216760629313,
0.017406483790523692,0.003511807317567152,
0.017456359102244388,-0.04399403824463144,
0.017506234413965087,0.021479470986897543,
0.017556109725685786,-0.037666098190054564,
0.017605985037406485,-0.012585507300740957,
0.01765586034912718,-0.017868538906771345,
0.01770573566084788,-0.009033797965825478,
0.01775561097256858,0.018478536838988112,
0.01780548628428928,-0.04354339000959426,
0.017855361596009974,-0.02086878413563827,
0.017905236907730673,0.004867222662529477,
0.017955112219451373,-0.022561925830025947,
0.018004987531172068,-0.005354323143064037,
0.018054862842892767,-0.02175604466139033,
0.018104738154613467,-0.03591643796869427,
0.018154613466334166,-0.03748734393197374,
0.01820448877805486,-0.05888430384378196,
0.01825436408977556,-0.0050796735388268805,
0.01830423940149626,-0.009206366723560643,
0.01835411471321696,-0.028524500881684636,
0.018403990024937655,-0.020793608158302435,
0.018453865336658354,-0.026478133626078773,
0.018503740648379053,-0.010278928251669676,
0.018553615960099752,-0.01907097674438263,
0.018603491271820448,-0.018090796118040247,
0.018653366583541147,-0.012502990976780997,
0.018703241895261846,-0.007230081208835957,
0.018753117206982542,-0.015609436473534553,
0.01880299251870324,-0.0056062032319244915,
0.01885286783042394,-0.029535484319506124,
0.01890274314214464,0.007531188750617923,
0.018952618453865335,-0.015891290239539058,
0.019002493765586034,0.005015307259870001,
0.019052369077306733,0.012599103761180968,
0.019102244389027433,0.0032601977241187305,
0.01915211970074813,-0.039901453019271595,
0.019201995012468828,-0.005246556271190967,
0.019251870324189527,0.004053085279626555,
0.019301745635910226,-0.002714811375000705,
0.01935162094763092,-0.010334124521196123,
0.01940149625935162,-0.02540180735427877,
0.01945137157107232,0.018856824994870087,
0.01950124688279302,-0.013220802205517539,
0.019551122194513715,0.007861150389025838,
0.019600997506234414,0.018241773284936594,
0.019650872817955113,1.0975704715704068e-05,
0.01970074812967581,-0.039260386411754895,
0.019750623441396508,0.0014085847880522659,
0.019800498753117207,-0.02005590849316321,
0.019850374064837906,0.006908744238867263,
0.019900249376558602,-0.02368579919372611,
0.0199501246882793,-0.034532825597482796,
0.02,0.0014044317487550743,
0.0200498753117207,0.020145196919917015,
0.020099750623441395,-0.006814413895231863,
0.020149625935162094,0.012989799795685332,
0.020199501246882794,-0.029399552712990214,
0.020249376558603493,0.003619715943085506,
0.02029925187032419,0.011973238298458406,
0.020349127182044888,-0.026421105761568312,
0.020399002493765587,-0.02510559565774568,
0.020448877805486283,0.004561706540740008,
0.02049875311720698,0.0002562713048221799,
0.02054862842892768,-0.002859483417964712,
0.02059850374064838,-0.007539537712541411,
0.020648379052369076,-0.0016135147574452772,
0.020698254364089775,0.0011721951047662129,
0.020748129675810474,-0.029104040001978287,
0.020798004987531173,0.0085685829368867,
0.02084788029925187,0.003977459172661667,
0.020897755610972568,-0.014804991931997852,
0.020947630922693267,0.021180327901392813,
0.020997506234413967,-0.00390358884802148,
0.021047381546134662,0.007517915665330943,
0.02109725685785536,-0.002954034517040626,
0.02114713216957606,-0.01015012561589515,
0.02119700748129676,-0.005835616990460695,
0.021246882793017455,0.00029285088610791175,
0.021296758104738155,0.0007353170218538894,
0.021346633416458854,0.004989120322737079,
0.02139650872817955,0.005216138635289951,
0.02144638403990025,0.017327220380218663,
0.021496259351620948,0.0025517087596020538,
0.021546134663341647,0.01799903438448834,
0.021596009975062343,0.03505229771827841,
0.021645885286783042,-0.0002665964442843706,
0.02169576059850374,0.011952039225205713,
0.02174563591022444,0.001425235337178656,
0.021795511221945136,0.01301226768246024,
0.021845386533665835,0.02350105506749614,
0.021895261845386534,0.0017493013061255945,
0.021945137157107233,0.0089136743847617,
0.02199501246882793,0.01826792727248615,
0.02204488778054863,0.025013421102319362,
0.022094763092269327,0.002465611476608693,
0.022144638403990027,0.02058638855228246,
0.022194513715710722,0.01254356320127796,
0.02224438902743142,0.036835108454872874,
0.02229426433915212,-0.012884608823014305,
0.022344139650872816,0.006481125162087897,
0.022394014962593516,-0.004915428106331754,
0.022443890274314215,0.010009165537636613,
0.022493765586034914,0.008143744383752734,
0.02254364089775561,0.012443695395323176,
0.02259351620947631,0.04015540421812976,
0.022643391521197008,0.011253380051701765,
0.022693266832917707,0.010401877112885087,
0.022743142144638403,0.007560388224589048,
0.022793017456359102,0.017173202252985423,
0.0228428927680798,0.015689939614673434,
0.0228927680798005,0.05575612772712994,
0.022942643391521196,0.020888029026342212,
0.022992518703241895,0.010050453944314487,
0.023042394014962594,0.010183084575178934,
0.02309226932668329,0.02769863171035824,
0.02314214463840399,0.009396512728165031,
0.02319201995012469,0.01943504453594185,
0.023241895261845388,0.023133985510157735,
0.023291770573566083,0.009488976906707086,
0.023341645885286783,-0.024094801032094947,
0.02339152119700748,0.011716616806820738,
0.02344139650872818,0.028146846118221207,
0.023491271820448877,-0.011233608340277701,
0.023541147132169576,0.029561915245628467,
0.023591022443890275,0.021552930809580612,
0.023640897755610974,0.02189302828154561,
0.02369077306733167,0.025282239154519215,
0.02374064837905237,0.006690726763770912,
0.023790523690773068,0.00913700780857059,
0.023840399002493767,0.023324636278628227,
0.023890274314214463,0.006352645855884112,
0.023940149625935162,0.05230798484564502,
0.02399002493765586,0.006519040860093342,
0.024039900249376557,0.02719356858690638,
0.024089775561097256,0.021221021397590686,
0.024139650872817955,0.0035611285954955593,
0.024189526184538655,0.01937511871129463,
0.02423940149625935,0.007333527116308332,
0.02428927680798005,0.0013838456207522637,
0.02433915211970075,0.0020651567120250035,
0.024389027431421448,-0.013126745260973186,
0.024438902743142144,0.015206413459470783,
0.024488778054862843,0.01417082050680139,
0.024538653366583542,-0.02007318034047602,
0.02458852867830424,0.02301656792451418,
0.024638403990024937,0.009339027142371259,
0.024688279301745636,0.014575040808391084,
0.024738154613466335,0.004472975101649408,
0.02478802992518703,0.019608617017149974,
0.02483790523690773,0.034040481859519925,
0.02488778054862843,0.03251591385383789,
0.02493765586034913,0.0253134183542914,
0.024987531172069824,-0.015279722151892682,
0.025037406483790523,0.02699748437182098,
0.025087281795511222,0.015756181315952036,
0.02513715710723192,0.04726925333635037,
0.025187032418952617,0.022307995748994048,
0.025236907730673316,-0.004827931356208369,
0.025286783042394016,0.0031137263827447255,
0.025336658354114715,0.031364188339599905,
0.02538653366583541,0.023459570027892944,
0.02543640897755611,0.034198486730395335,
0.02548628428927681,0.04846122050544921,
0.025536159600997508,0.030667153226986536,
0.025586034912718204,0.03545051004446399,
0.025635910224438903,0.04272318613804964,
0.025685785536159602,0.019875282003529397,
0.025735660847880298,0.022559255442194028,
0.025785536159600997,0.040159973211925035,
0.025835411471321696,0.018504437158698733,
0.025885286783042395,0.0015083178341725595,
0.02593516209476309,0.06197620399634472,
0.02598503740648379,0.024103019421089677,
0.02603491271820449,0.020691401401188494,
0.02608478802992519,0.02153186669067685,
0.026134663341645884,0.005450637236093382,
0.026184538653366583,0.01568970129752198,
0.026234413965087282,0.028960979117192552,
0.02628428927680798,0.011469731470612296,
0.026334164588528677,0.029231279591318132,
0.026384039900249377,0.006096558228539495,
0.026433915211970076,0.036570908813901015,
0.02648379052369077,0.01003594720689311,
0.02653366583541147,0.04709348414493525,
0.02658354114713217,0.011751282650042537,
0.02663341645885287,0.035947666206969674,
0.026683291770573565,0.017877410538567416,
0.026733167082294264,0.004539625994357328,
0.026783042394014963,0.04498184985601859,
0.026832917705735662,0.036511189684806995,
0.026882793017456358,0.045003748764207735,
0.026932668329177057,0.04061789526083019,
0.026982543640897756,0.007470438764779914,
0.027032418952618455,0.01870747296744529,
0.02708229426433915,0.038269182829210074,
0.02713216957605985,0.02438590510627706,
0.02718204488778055,0.013941117172014227,
0.02723192019950125,0.04378245325068714,
0.027281795511221944,0.025436584380423025,
0.027331670822942643,0.029843274508056426,
0.027381546134663343,0.029707663394725876,
0.02743142144638404,0.025769495288851377,
0.027481296758104738,0.025943837948122737,
0.027531172069825437,0.0345517851950343,
0.027581047381546136,0.027415937533548644,
0.02763092269326683,0.02452543778045404,
0.02768079800498753,0.010396448681066737,
0.02773067331670823,0.05734110178921094,
0.02778054862842893,-0.0006782957939153178,
0.027830423940149625,0.0292478213503065,
0.027880299251870324,0.015229128953064847,
0.027930174563591023,0.008203382081671344,
0.027980049875311722,0.0331866969241959,
0.028029925187032418,0.023017070978741012,
0.028079800498753117,0.038030670431039,
0.028129675810473816,0.008995911251869597,
0.028179551122194512,0.05438846093255602,
0.02822942643391521,-0.010660193892953317,
0.02827930174563591,0.025504973618287196,
0.02832917705735661,-0.0015562417454320875,
0.028379052369077305,-0.009928632911676403,
0.028428927680798004,0.0075276982646687645,
0.028478802992518704,0.02329330584379647,
0.028528678304239403,0.00873333932151786,
0.0285785536159601,0.0011104153834615247,
0.028628428927680798,0.023336690224916773,
0.028678304239401497,0.0011323866800015195,
0.028728179551122196,0.03164082790512879,
0.02877805486284289,0.028848213966135794,
0.02882793017456359,0.003204955051717133,
0.02887780548628429,0.009818038777861983,
0.02892768079800499,0.03392244825622466,
0.028977556109725685,0.01154979961781656,
0.029027431421446384,0.007589907116284573,
0.029077306733167083,0.0008291576173125297,
0.02912718204488778,-0.0035644878194105774,
0.029177057356608478,0.03343950706164624,
0.029226932668329177,0.002026339422112902,
0.029276807980049877,0.019253181647566953,
0.029326683291770572,0.009493065921323905,
0.02937655860349127,0.034410444133975475,
0.02942643391521197,0.02127532801007578,
0.02947630922693267,0.01621095317673514,
0.029526184538653365,0.00583689812868631,
0.029576059850374065,0.016324822162131283,
0.029625935162094764,-0.0021651795831446607,
0.029675810473815463,-0.009976834248233047,
0.02972568578553616,0.018672610490628537,
0.029775561097256858,0.002346481474933745,
0.029825436408977557,-0.013836277140069964,
0.029875311720698253,-0.007195800719359626,
0.029925187032418952,0.03556277350443837,
0.02997506234413965,-0.010577330041358338,
0.03002493765586035,0.013564047774810347,
0.030074812967581046,-0.006968280096018388,
0.030124688279301745,-0.01142161756596227,
0.030174563591022444,-0.01117328665676548,
0.030224438902743143,0.01907628438426543,
0.03027431421446384,-0.010523230941066365,
0.03032418952618454,-0.001903037356517436,
0.030374064837905237,0.02109593531732123,
0.030423940149625937,-0.002202892726724846,
0.030473815461346632,0.0406848116441116,
0.03052369077306733,0.026509825126170998,
0.03057356608478803,0.006631249419362827,
0.03062344139650873,-0.0014639956917007002,
0.030673316708229426,0.013242001660765853,
0.030723192019950125,0.02088980686467678,
0.030773067331670824,0.02700895050487993,
0.03082294264339152,-0.018409231702389357,
0.03087281795511222,-0.021960787967767785,
0.030922693266832918,0.04198957805804711,
0.030972568578553617,0.019599874203460224,
0.031022443890274313,0.03170375866661408,
0.031072319201995012,0.001649347694831892,
0.03112219451371571,-0.010008286301494158,
0.03117206982543641,-0.015790211155488877,
0.031221945137157106,0.018797509053044805,
0.03127182044887781,0.0002937058306862715,
0.031321695760598504,0.008962767938478769,
0.0313715710723192,-0.006033035062296808,
0.0314214463840399,0.0043391016272348246,
0.0314713216957606,-0.001982914411090889,
0.031521197007481294,0.011462856432322395,
0.031571072319202,-0.00981898562788492,
0.03162094763092269,-0.003289376578917118,
0.03167082294264339,0.0009764340259737743,
0.03172069825436409,-0.02531557989859483,
0.03177057356608479,-0.009386129631278087,
0.03182044887780549,-0.00832278787513926,
0.031870324189526185,0.006213046432971291,
0.03192019950124688,-0.017475792623246816,
0.03197007481296758,0.02151968561176533,
0.03201995012468828,-0.012715749336031845,
0.032069825436408975,0.014707481957785368,
0.03211970074812968,-0.0009683003400908618,
0.03216957605985037,0.0012440700633407093,
0.032219451371571076,0.003877346657268286,
0.03226932668329177,-0.003466372092771533,
0.03231920199501247,-0.015629418396527192,
0.03236907730673317,-0.025044210798158342,
0.032418952618453865,-0.0006020185752757925,
0.03246882793017456,-0.03605917469113413,
0.032518703241895264,-0.002658043136715957,
0.03256857855361596,0.006781141936425731,
0.032618453865336655,-0.01825704597395089,
0.03266832917705736,-0.005450532628165185,
0.032718204488778053,-0.013322987397942118,
0.032768079800498756,-0.016981096545243983,
0.03281795511221945,-0.008797605759463945,
0.03286783042394015,-0.005612589991888866,
0.03291770573566085,-0.014415561264512676,
0.032967581047381546,-0.01448584116594768,
0.03301745635910224,-0.02886601751133211,
0.033067331670822944,-0.013013743166578263,
0.03311720698254364,-0.023487259873098014,
0.03316708229426434,-0.024014110690514706,
0.03321695760598504,0.010585556091391637,
0.033266832917705734,0.005442437488926116,
0.03331670822942644,-0.008397898906403778,
0.03336658354114713,0.004664685341252056,
0.03341645885286783,-0.03396645679075417,
0.03346633416458853,-0.013302446854890999,
0.033516209476309226,-0.0006130335856589231,
0.03356608478802992,0.005598868486936807,
0.033615960099750625,-0.0324120453535468,
0.03366583541147132,-0.02338351849545983,
0.03371571072319202,-0.019432288352361746,
0.03376558603491272,-0.02297263093715054,
0.033815461346633414,-0.007988840595004813,
0.03386533665835412,-0.01182875979327455,
0.03391521197007481,-0.004969946488246535,
0.03396508728179551,-0.02052382206372424,
0.03401496259351621,-0.001446989579467822,
0.03406483790523691,-0.017767822815899382,
0.0341147132169576,-0.017487277586814624,
0.034164588528678305,-0.00010264013022426993,
0.034214463840399,-0.009522274600556824,
0.034264339152119704,0.005820542506902398,
0.0343142144638404,-0.015500220833677358,
0.034364089775561095,-0.008167150179386663,
0.0344139650872818,0.007839871998461187,
0.03446384039900249,-0.026343947278078116,
0.03451371571072319,-0.019404363481984557,
0.03456359102244389,-0.024896381037802597,
0.03461346633416459,0.007390093799744014,
0.03466334164588529,0.007557960439161543,
0.034713216957605986,-0.025007838591758588,
0.03476309226932668,-0.03416400338294731,
0.034812967581047384,-0.039593678599182267,
0.03486284289276808,-0.008787877886080384,
0.034912718204488775,-0.03453480169100798,
0.03496259351620948,-0.02190306781279014,
0.035012468827930174,-0.03486873107956621,
0.03506234413965087,-0.010958017606457942,
0.03511221945137157,-0.027762711006682615,
0.03516209476309227,-0.014756759753709874,
0.03521197007481297,-0.024476094026395064,
0.035261845386533666,0.026579457159474726,
0.03531172069825436,-0.009911112903977191,
0.035361596009975065,-0.0206770732951889,
0.03541147132169576,-0.0067212223527069286,
0.035461346633416456,-0.01275568247260561,
0.03551122194513716,-0.01166137422495523,
0.035561097256857854,-0.012799167366611318,
0.03561097256857856,-0.017897731644581825,
0.03566084788029925,-0.01980402788078926,
0.03571072319201995,0.010430792661294961,
0.03576059850374065,-0.010617824973624942,
0.03581047381546135,-0.02047114705825164,
0.03586034912718204,-0.01746222749372523,
0.035910224438902745,-0.0032896804434472474,
0.03596009975062344,-0.014003076628248257,
0.036009975062344136,-0.02458616279870005,
0.03605985037406484,-0.016288885901121847,
0.036109725685785535,-0.019740214089916934,
0.03615960099750624,-0.02236747803920783,
0.03620947630922693,-0.016532248974760657,
0.03625935162094763,-0.027912900942061607,
0.03630922693266833,-0.0018631483266734437,
0.03635910224438903,-0.036327767229781725,
0.03640897755610972,-0.009545586336140955,
0.036458852867830426,-0.019320465213272756,
0.03650872817955112,0.0033122526061366737,
0.036558603491271824,-0.035325920816643736,
0.03660847880299252,0.01929519054918009,
0.036658354114713215,-0.008065034967821856,
0.03670822942643392,-0.023081727390640013,
0.036758104738154614,-0.0010061143007277888,
0.03680798004987531,-0.01024431404092013,
0.03685785536159601,-0.02597076988921449,
0.03690773067331671,-0.004199870516689694,
0.0369576059850374,-0.005578517725687402,
0.037007481296758106,-0.038554498862451485,
0.0370573566084788,-0.031216190500500417,
0.037107231920199504,-0.012919072268689474,
0.0371571072319202,-0.00026899794120015773,
0.037206982543640896,-0.022159454715881873,
0.0372568578553616,-0.01819205757579666,
0.037306733167082294,-0.003638848116326603,
0.03735660847880299,-0.015044994680122005,
0.03740648379052369,-0.025499181012806835,
0.03745635910224439,-0.009410792707120898,
0.037506234413965084,-0.006701801665567996,
0.037556109725685786,-0.00328360888082691,
0.03760598503740648,-0.021377754296415707,
0.037655860349127185,-0.01906708366613858,
0.03770573566084788,-0.031508547429042875,
0.037755610972568576,-0.0093234205618675,
0.03780548628428928,-0.03961453821509005,
0.037855361596009975,-0.003123257151422759,
0.03790523690773067,-0.037353275525532435,
0.03795511221945137,-0.017581983691054046,
0.03800498753117207,-0.020878292885930655,
0.03805486284289277,-0.011902765918521028,
0.03810473815461347,-0.020613278632344148,
0.03815461346633416,0.003858357702886641,
0.038204488778054865,0.005643553515066136,
0.03825436408977556,-0.01782410033569441,
0.03830423940149626,-0.01959288586615683,
0.03835411471321696,0.016968967866837024,
0.038403990024937655,-0.00962436202178826,
0.03845386533665835,-0.03046369608515325,
0.03850374064837905,0.000446252142815488,
0.03855361596009975,-0.00458583465392717,
0.03860349127182045,-0.010844263843397118,
0.03865336658354115,0.017643344536353755,
0.03870324189526184,0.010836350660912234,
0.038753117206982546,-0.02049029075994217,
0.03880299251870324,0.0017855045038675296,
0.03885286783042394,0.02533628439930993,
0.03890274314214464,-0.009081522638716692,
0.038952618453865336,-0.018330680579574835,
0.03900249376558604,-0.018606446450945523,
0.039052369077306734,-0.03737011577421269,
0.03910224438902743,-0.011410190782503745,
0.03915211970074813,-0.0384373032360331,
0.03920199501246883,-0.02292183227547258,
0.039251870324189524,0.009046856348097352,
0.039301745635910226,-3.8310909123380477e-05,
0.03935162094763092,-0.017064133755690672,
0.03940149625935162,-0.0033747693902661455,
0.03945137157107232,-0.012346914149155085,
0.039501246882793016,-0.0012853675761804982,
0.03955112219451372,-0.03186246362097454,
0.039600997506234414,0.004635240455892933,
0.03965087281795511,0.014624650670407347,
0.03970074812967581,-0.003957052447670339,
0.03975062344139651,-0.0071389310455977194,
0.039800498753117204,-0.025316217323263012,
0.03985037406483791,-0.0005844825255813841,
0.0399002493765586,0.006811554068066439,
0.039950124688279305,0.01741593239279815,
0.04,0.027726026688055797,
0.0400498753117207,-0.01601183026152144,
0.0400997506234414,0.026607375223179828,
0.040149625935162095,-0.016015922465698388,
0.04019950124688279,0.005048727314176653,
0.04024937655860349,0.0013290774381844728,
0.04029925187032419,-0.008468754342412255,
0.040349127182044885,0.0006664717965365961,
0.04039900249376559,0.019077484249551233,
0.04044887780548628,0.016853791018658602,
0.040498753117206986,-0.006764596203970578,
0.04054862842892768,0.024217121357664993,
0.04059850374064838,0.00979124368999151,
0.04064837905236908,-0.0034572868482001013,
0.040698254364089775,0.008038304754844256,
0.04074812967581047,0.0012583956468300741,
0.040798004987531174,-0.026275016608258893,
0.04084788029925187,0.014245411784943473,
0.040897755610972565,-0.010243243828183299,
0.04094763092269327,-0.022182049526288498,
0.04099750623441396,0.030072159332695,
0.041047381546134666,0.007769325128106049,
0.04109725685785536,0.007375245107347115,
0.04114713216957606,0.010874773881530422,
0.04119700748129676,-0.00010228861927333213,
0.041246882793017456,0.010572194845373258,
0.04129675810473815,0.0065657611224197755,
0.041346633416458854,0.0044901783392154076,
0.04139650872817955,0.015054116307576209,
0.04144638403990025,0.011038864906143126,
0.04149625935162095,0.017150085265879106,
0.041546134663341644,-0.0017112872684102737,
0.04159600997506235,0.002748775125159554,
0.04164588528678304,0.00470788199572477,
0.04169576059850374,0.017665665165048132,
0.04174563591022444,0.02885003313047501,
0.041795511221945136,-0.0036187195130290544,
0.04184538653366583,0.011471048673690776,
0.041895261845386535,0.021662844569999305,
0.04194513715710723,0.02040286071435722,
0.04199501246882793,0.032291297162332026,
0.04204488778054863,0.013250236339805517,
0.042094763092269324,0.02210215535352561,
0.04214463840399003,-0.002616458921749854,
0.04219451371571072,-0.012530192673803946,
0.04224438902743142,0.019431434634069777,
0.04229426433915212,-0.00153168654761476,
0.04234413965087282,0.031913034611179905,
0.04239401496259352,-0.030291689605659686,
0.042443890274314215,0.01157500185865748,
0.04249376558603491,0.03673825003031346,
0.042543640897755614,0.0029335317399081396,
0.04259351620947631,0.011081634888189624,
0.042643391521197005,0.017491662501988185,
0.04269326683291771,0.002035653945230491,
0.0427431421446384,0.009540062491411254,
0.0427930174563591,0.004389617695182549,
0.0428428927680798,0.005169441909009278,
0.0428927680798005,0.038715564910876694,
0.0429426433915212,0.009261924986833439,
0.042992518703241896,0.018087282408415607,
0.04304239401496259,0.028448130713140285,
0.043092269326683294,-0.016699295306462535,
0.04314214463840399,0.024367861486900216,
0.043192019950124685,0.012177435918754975,
0.04324189526184539,0.01875463578548912,
0.043291770573566084,0.019735673472196884,
0.043341645885286786,0.006543816629400692,
0.04339152119700748,0.03288724260296895,
0.04344139650872818,0.0120783306612057,
0.04349127182044888,0.006426825653888501,
0.043541147132169576,0.014295014280448846,
0.04359102244389027,0.01882686786657619,
0.043640897755610975,0.03747760763730054,
0.04369077306733167,0.02628651469300232,
0.043740648379052366,0.01933831029821338,
0.04379052369077307,0.02360706363379774,
0.043840399002493764,0.01685810601858059,
0.04389027431421447,0.007251123454465934,
0.04394014962593516,0.027303823980473076,
0.04399002493765586,0.03133724147664922,
0.04403990024937656,0.026231198490457477,
0.04408977556109726,0.02768525168424339,
0.04413965087281795,0.032382739640565546,
0.044189526184538655,0.016056602056313686,
0.04423940149625935,0.007217160932437841,
0.04428927680798005,0.02484261397749737,
0.04433915211970075,0.006261584558204074,
0.044389027431421445,0.019087133678228313,
0.04443890274314215,0.02931499534850235,
0.04448877805486284,0.020574051559455946,
0.04453865336658354,0.022982190157715413,
0.04458852867830424,0.023061649295605998,
0.04463840399002494,0.017185315104633534,
0.04468827930174563,0.02203784057690531,
0.044738154613466335,0.0071725006071701215,
0.04478802992518703,0.02370253077339932,
0.044837905236907734,0.0023480686955988234,
0.04488778054862843,0.060060896713951525,
0.044937655860349125,0.03514619868616142,
0.04498753117206983,0.0014034908502842704,
0.045037406483790524,0.03143956158920834,
0.04508728179551122,0.028112919072233396,
0.04513715710723192,0.05422275130522,
0.04518703241895262,0.030445289357936892,
0.04523690773067331,0.012229681114979109,
0.045286783042394016,0.04596253399877904,
0.04533665835411471,0.03565924833777918,
0.045386533665835414,0.010863471350957301,
0.04543640897755611,0.05516029373531031,
0.045486284289276806,0.028522531712733404,
0.04553615960099751,0.009466665502805338,
0.045586034912718204,0.03553727113901253,
0.0456359102244389,0.049962634986071716,
0.0456857855361596,0.02519775516193933,
0.0457356608478803,0.0378214112022921,
0.045785536159601,-0.010219450613435183,
0.045835411471321696,0.052797059161759516,
0.04588528678304239,0.023265114247653346,
0.045935162094763095,0.03592913704094976,
0.04598503740648379,0.024846445452947452,
0.046034912718204486,-0.0041122513484381056,
0.04608478802992519,0.02095414526798339,
0.046134663341645885,0.01629729447880044,
0.04618453865336658,0.033277948797460766,
0.04623441396508728,0.01729599290673075,
0.04628428927680798,0.04533973759370699,
0.04633416458852868,0.0014817769962974792,
0.04638403990024938,0.0154758782834096,
0.04643391521197007,0.021078323629230566,
0.046483790523690775,0.05053526345164837,
0.04653366583541147,0.016487996055796993,
0.04658354114713217,-0.005495371254828543,
0.04663341645885287,0.01392857048333452,
0.046683291770573565,0.038226256630861655,
0.04673316708229427,0.01466343202034347,
0.04678304239401496,0.028472265054749146,
0.04683291770573566,0.00336516167078859,
0.04688279301745636,0.03753769203183571,
0.04693266832917706,0.01708114962603628,
0.04698254364089775,0.027208179904018047,
0.047032418952618456,0.023737290903704505,
0.04708229426433915,0.02007072721911677,
0.04713216957605985,0.03252133783825932,
0.04718204488778055,0.03223877211865439,
0.047231920199501246,0.039328921554297666,
0.04728179551122195,0.008498278166157263,
0.047331670822942644,0.01603345777167451,
0.04738154613466334,0.0029261613391762427,
0.04743142144638404,0.008797048259081727,
0.04748129675810474,0.015891457932615743,
0.047531172069825434,0.02613089294504929,
0.047581047381546136,0.03127370668640303,
0.04763092269326683,0.02358555688298282,
0.047680798004987535,-0.008170904022843227,
0.04773067331670823,0.02341243136269494,
0.047780548628428926,0.0751597563752464,
0.04783042394014963,0.026679305466790912,
0.047880299251870324,0.03631615832020373,
0.04793017456359102,0.04072064547427842,
0.04798004987531172,0.016099074049638572,
0.04802992518703242,0.019101917162334895,
0.048079800498753114,0.04476039770546591,
0.04812967581047382,0.021026309553406074,
0.04817955112219451,0.028212548586775178,
0.048229426433915215,5.813909770827075e-05,
0.04827930174563591,0.020401449374300707,
0.048329177057356607,0.0286157207777783,
0.04837905236907731,0.022338782230319165,
0.048428927680798005,0.018027730199814837,
0.0484788029925187,0.004041731109858096,
0.0485286783042394,0.016404534036056,
0.0485785536159601,0.0174793848713094,
0.048628428927680795,0.019905258397428974,
0.0486783042394015,0.02627291616860776,
0.04872817955112219,0.020455644537215226,
0.048778054862842896,0.020100354992503868,
0.04882793017456359,0.01859753116766378,
0.04887780548628429,0.010755898506380295,
0.04892768079800499,0.008220366734807553,
0.048977556109725685,0.030052887304112638,
0.04902743142144638,0.004500735482548155,
0.049077306733167084,0.03321294397522559,
0.04912718204488778,0.021584052486191115,
0.04917705735660848,0.0106829873253656,
0.04922693266832918,0.0021388628181254546,
0.04927680798004987,-0.004262539675111214,
0.049326683291770576,0.015542069005550217,
0.04937655860349127,0.005753256191604781,
0.04942643391521197,0.02040777373507279,
0.04947630922693267,0.003973870373058071,
0.049526184538653366,-0.00016728954397445504,
0.04957605985037406,-0.008705862063456101,
0.049625935162094764,0.004725815730363191,
0.04967581047381546,0.03010599687559983,
0.04972568578553616,0.012167245891779765,
0.04977556109725686,0.010931095658699687,
0.049825436408977554,0.01472253555053743,
0.04987531172069826,-0.00041365997240404816,
0.04992518703241895,-0.01490706972714601,
0.04997506234413965,-0.0060657853616099405,
0.05002493765586035,0.0036538439779305993,
0.050074812967581046,-0.027598651667840545,
0.05012468827930175,0.03601284082151893,
0.050174563591022445,0.016482940861561685,
0.05022443890274314,0.014196174707814641,
0.05027431421446384,0.012730565064399464,
0.05032418952618454,0.00022048563924577814,
0.050374064837905234,0.010394011741669162,
0.05042394014962594,0.03643972599907984,
0.05047381546134663,-0.008752510792919329,
0.05052369077306733,-0.01128308260926688,
0.05057356608478803,0.01021370918976523,
0.05062344139650873,-0.009634742181912362,
0.05067331670822943,0.007923667572350522,
0.050723192019950125,0.01179911125573654,
0.05077306733167082,-0.003405128079781001,
0.050822942643391524,0.01805180441180865,
0.05087281795511222,-0.021776912978799887,
0.050922693266832915,-0.031140929798508472,
0.05097256857855362,-0.0013892984492596063,
0.05102244389027431,0.0003421741281378376,
0.051072319201995016,0.01258210120646203,
0.05112219451371571,-0.03221234525290007,
0.05117206982543641,0.0027183757907103595,
0.05122194513715711,-0.021682715200316588,
0.051271820448877806,0.008834433350562963,
0.0513216957605985,0.008157087223568449,
0.051371571072319204,-0.008205861651472787,
0.0514214463840399,0.0006832421027012868,
0.051471321695760595,0.0029275855803792216,
0.0515211970074813,0.014623423065720327,
0.051571072319201994,0.011599365618929526,
0.051620947630922696,-0.0015552575014959648,
0.05167082294264339,0.002694333634529645,
0.05172069825436409,-0.014368789650892501,
0.05177057356608479,0.001419933648230301,
0.051820448877805486,-0.006813910687897455,
0.05187032418952618,0.014456361974636484,
0.051920199501246884,0.01402891593416736,
0.05197007481296758,-0.03732569722965226,
0.052019950124688276,-0.01448659067988748,
0.05206982543640898,0.007880631144247915,
0.052119700748129674,-0.0016264425272647237,
0.05216957605985038,-0.004424179453761104,
0.05221945137157107,-0.027918092428804567,
0.05226932668329177,-0.01642771140130969,
0.05231920199501247,-0.014377588191343656,
0.05236907730673317,0.015138417957759755,
0.05241895261845386,-0.015182342097460173,
0.052468827930174565,0.017544217930425307,
0.05251870324189526,-0.02204987156545634,
0.05256857855361596,-0.01723222851659372,
0.05261845386533666,-0.02975847695433606,
0.052668329177057355,0.003292676645723358,
0.05271820448877806,-0.03432021739689549,
0.05276807980049875,-0.0067094253558318915,
0.05281795511221945,0.007225251990690795,
0.05286783042394015,-0.0027084921724714276,
0.05291770573566085,-0.003385511465473336,
0.05296758104738154,-0.01662134145592108,
0.053017456359102245,0.00567537936091814,
0.05306733167082294,-0.0022467903947437605,
0.053117206982543644,-0.009324404220793399,
0.05316708229426434,-0.0273154855208245,
0.053216957605985035,0.0054882720290906975,
0.05326683291770574,-0.011669216434335295,
0.053316708229426434,-0.016942383350542323,
0.05336658354114713,-0.027741553331343927,
0.05341645885286783,-0.003818937138996009,
0.05346633416458853,-0.011958099665017435,
0.05351620947630923,-0.005505082024718686,
0.053566084788029926,-0.012082362186809725,
0.05361596009975062,-0.02159398047410674,
0.053665835411471324,-0.020618955552657182,
0.05371571072319202,0.0031290759069573532,
0.053765586034912716,-0.002741041153753631,
0.05381546134663342,0.01579144132617577,
0.053865336658354114,0.005442582615321394,
0.05391521197007481,0.013154063680374958,
0.05396508728179551,-0.004596797718681026,
0.05401496259351621,-0.016130548265874088,
0.05406483790523691,-0.02489784948105641,
0.054114713216957606,-0.0008185863458458481,
0.0541645885286783,-0.03215875756697811,
0.054214463840399005,-0.017394227276254337,
0.0542643391521197,-0.03321128680679254,
0.054314214463840396,-0.026133476413795993,
0.0543640897755611,-0.004790781588789881,
0.054413965087281795,-0.002008777518673222,
0.0544638403990025,-0.03504144346030949,
0.05451371571072319,-0.006977799357892264,
0.05456359102244389,0.001748124051826578,
0.05461346633416459,-0.013846005816218813,
0.05466334164588529,-0.027614967829469157,
0.05471321695760598,-0.019616806918232452,
0.054763092269326685,-0.0033141020076963863,
0.05481296758104738,-0.015009147614712027,
0.05486284289276808,-0.03332773259988066,
0.05491271820448878,-0.013245207709844425,
0.054962593516209475,-0.0027338017779003753,
0.05501246882793018,-0.03708166570977127,
0.05506234413965087,0.009328372727457032,
0.05511221945137157,-0.0323994114631297,
0.05516209476309227,-0.006254688185601936,
0.05521197007481297,-0.0011244733388812555,
0.05526184538653366,-0.031529158329051885,
0.055311720698254366,-0.037935429801003034,
0.05536159600997506,-0.025002088635737815,
0.05541147132169576,0.00760080572875315,
0.05546134663341646,-0.032520056474232256,
0.055511221945137156,0.0014605182176665628,
0.05556109725685786,-0.03066579389820323,
0.055610972568578554,-0.03724317040772028,
0.05566084788029925,-0.01824178749811381,
0.05571072319201995,0.015094629212165471,
0.05576059850374065,-0.02007477495403438,
0.055810473815461344,-0.048742055638383075,
0.055860349127182046,-0.005167845777001077,
0.05591022443890274,-0.03461586691331643,
0.055960099750623445,-0.03942992368634626,
0.05600997506234414,-0.0077071350707444124,
0.056059850374064836,-0.04311982964007557,
0.05610972568578554,-0.023448548487210112,
0.056159600997506234,-0.0162664453367883,
0.05620947630922693,-0.03163696193730536,
0.05625935162094763,-0.02761697458398759,
0.05630922693266833,0.01431505799536794,
0.056359102244389024,-0.017127930503952588,
0.05640897755610973,-0.03816288691802287,
0.05645885286783042,-0.015140954869178519,
0.056508728179551125,-0.0219313804941537,
0.05655860349127182,-0.005238711263004816,
0.056608478802992516,0.015848851625129376,
0.05665835411471322,-0.033689276391945064,
0.056708229426433915,0.005641327325507069,
0.05675810473815461,0.007578109015875101,
0.05680798004987531,-0.01857201778762671,
0.05685785536159601,-0.018651040317004198,
0.05690773067331671,-0.003004252626072656,
0.05695760598503741,0.005153074377463377,
0.0570074812967581,-0.007640663047539125,
0.057057356608478806,-0.013394653408985158,
0.0571072319201995,0.0014106852103315075,
0.0571571072319202,0.0038418869734412053,
0.0572069825436409,-0.0010555153518811266,
0.057256857855361595,-0.03146463468444892,
0.05730673316708229,0.02081091081820396,
0.057356608478802994,-0.030793016638573235,
0.05740648379052369,-0.006486636161399468,
0.05745635910224439,0.013970361457213965,
0.05750623441396509,-0.007565782662033755,
0.05755610972568578,-0.00506188603622691,
0.057605985037406486,-0.006451345529454577,
0.05765586034912718,-0.013192680314497125,
0.05770573566084788,-0.0014910707884546806,
0.05775561097256858,-0.01344325641893625,
0.057805486284289276,-0.03475895926809881,
0.05785536159600998,-0.024848233206832507,
0.057905236907730674,-0.0023216694184312534,
0.05795511221945137,0.0009440084862681435,
0.05800498753117207,0.0033878454580711006,
0.05805486284289277,-0.028724482619073746,
0.058104738154613464,-0.01817358815593534,
0.05815461346633417,0.001667867154824778,
0.05820448877805486,-0.009686350033908536,
0.05825436408977556,-0.024075906745366738,
0.05830423940149626,0.021017883908276136,
0.058354114713216956,-0.0024315078036204465,
0.05840399002493766,-0.01839917669187169,
0.058453865336658355,-0.00617564194618178,
0.05850374064837905,-0.0022127948294642886,
0.05855361596009975,-0.0579150033553664,
0.05860349127182045,-0.004835230256178689,
0.058653366583541144,-0.007300038256514556,
0.05870324189526185,-0.012888973890532666,
0.05875311720698254,0.012636157286304659,
0.05880299251870324,-0.010500418943598766,
0.05885286783042394,-0.0015246369738197369,
0.05890274314214464,0.012795094457217635,
0.05895261845386534,0.013046271442090638,
0.059002493765586035,0.025810745636107274,
0.05905236907730673,0.013434154895047061,
0.059102244389027433,0.010493946685282182,
0.05915211970074813,-0.007554831555409551,
0.059201995012468825,0.03515539080917487,
0.05925187032418953,0.024449702872535773,
0.05930174563591022,0.028843451288192826,
0.059351620947630926,0.011477310379423813,
0.05940149625935162,0.0014433799830214184,
0.05945137157107232,0.03243397764963358,
0.05950124688279302,-0.01284048535914387,
0.059551122194513716,0.019883545448260802,
0.05960099750623441,0.00996395749465066,
0.059650872817955114,-0.0038911819025320466,
0.05970074812967581,-0.004326923177355882,
0.059750623441396505,0.012162457948080437,
0.05980049875311721,0.01747499623076779,
0.059850374064837904,-0.01049786205340629,
0.059900249376558606,-0.009572235637869077,
0.0599501246882793,0.025196066282707333,
0.06,-0.0025899664883977675,
0.0600498753117207,0.014026488296529017,
0.060099750623441396,0.010186827314819479,
0.06014962593516209,-0.047358171256469864,
0.060199501246882794,-0.018927364134292496,
0.06024937655860349,-0.04150507265133273,
0.06029925187032419,0.026581414830651916,
0.06034912718204489,0.025250046761296635,
0.060399002493765584,-0.007081309695211788,
0.06044887780548629,-0.010361190326718953,
0.06049875311720698,0.019323261357917537,
0.06054862842892768,0.00043841671813106596,
0.06059850374064838,0.010142000713410284,
0.06064837905236908,0.0020938360576315753,
0.06069825436408977,0.024654977106471337,
0.060748129675810475,0.025218288269277352,
0.06079800498753117,-0.03526765406426427,
0.06084788029925187,-0.011190071775224204,
0.06089775561097257,0.0021435646443788156,
0.060947630922693265,0.006156930679299679,
0.06099750623441397,-0.001953866162208541,
0.06104738154613466,0.009713389221436249,
0.06109725685785536,-0.011514791795770734,
0.06114713216957606,0.018048451078242714,
0.06119700748129676,0.04233381039068337,
0.06124688279301746,0.01134748780381072,
0.061296758104738155,0.0018411431827067438,
0.06134663341645885,0.008265761988175507,
0.061396508728179554,0.020779908357205445,
0.06144638403990025,0.006068673181345505,
0.061496259351620945,0.015594145638822875,
0.06154613466334165,0.009389033464159225,
0.061596009975062344,-0.0055156091446397736,
0.06164588528678304,0.002213521041580834,
0.06169576059850374,-0.023192708253524666,
0.06174563591022444,-0.00897847245191807,
0.06179551122194514,0.00015972981896629837,
0.061845386533665836,0.04213396164517556,
0.06189526184538653,0.01408904604226456,
0.061945137157107234,0.005229438056480762,
0.06199501246882793,0.035490557174795934,
0.062044887780548626,0.0037870374355505384,
0.06209476309226933,0.0003483750600212984,
0.062144638403990024,-0.012678627921341837,
0.06219451371571072,0.024341082116877584,
0.06224438902743142,0.0013113935960353887,
0.06229426433915212,0.0006313500764059381,
0.06234413965087282,0.019204673727036874,
0.062394014962593516,0.027355174411981414,
0.06244389027431421,0.0195099225303958,
0.062493765586034915,0.015893466593386692,
0.06254364089775562,0.03395772277493106,
0.06259351620947631,0.023759312897844744,
0.06264339152119701,0.009969022551123558,
0.0626932668329177,0.040370275700924434,
0.0627431421446384,0.042233206708389245,
0.0627930174563591,0.0033083779702731426,
0.0628428927680798,0.010797752928832314,
0.0628927680798005,-0.023380569807586748,
0.0629426433915212,0.007458756453106384,
0.06299251870324189,0.024258779986458194,
0.06304239401496259,0.032597983221447316,
0.0630922693266833,0.02374837932821463,
0.063142144638404,0.030529997652733423,
0.06319201995012469,0.002714575575274474,
0.06324189526184539,0.036349795047614146,
0.06329177057356608,0.01418120575837394,
0.06334164588528678,0.023511666044976634,
0.06339152119700749,0.02814987098660946,
0.06344139650872818,0.011790483880733406,
0.06349127182044888,0.04394094061771065,
0.06354114713216957,0.030322654871033864,
0.06359102244389027,0.008428078513136877,
0.06364089775561098,0.014272255980332165,
0.06369077306733167,0.030070684170199126,
0.06374064837905237,0.01712492004279455,
0.06379052369077307,0.04009440585423396,
0.06384039900249376,0.030628424523121464,
0.06389027431421446,-0.0027960747010837526,
0.06394014962593517,0.025359701783349318,
0.06399002493765586,0.033650693989231005,
0.06403990024937656,0.029827423638552373,
0.06408977556109725,0.01831409592883405,
0.06413965087281795,0.01770705518584826,
0.06418952618453866,0.02628471854322427,
0.06423940149625935,0.009986293583417676,
0.06428927680798005,0.04751886876201884,
0.06433915211970075,-0.0028868551586831506,
0.06438902743142144,0.016131107162952834,
0.06443890274314215,0.0026257795115761755,
0.06448877805486285,0.014443248607522538,
0.06453865336658354,0.03144093708345792,
0.06458852867830424,0.020545563084700146,
0.06463840399002493,-0.002575221998300209,
0.06468827930174563,0.028615604814095603,
0.06473815461346634,0.020216314795502392,
0.06478802992518704,0.05236869226184657,
0.06483790523690773,0.01087228624151592,
0.06488778054862843,0.028392087876271888,
0.06493765586034912,0.017873110992530188,
0.06498753117206983,0.03673115552088772,
0.06503740648379053,0.032776913094875,
0.06508728179551122,0.02151425465467967,
0.06513715710723192,0.023705604757507905,
0.06518703241895261,0.01606717461398719,
0.06523690773067331,0.010610167389504741,
0.06528678304239402,-0.000818324426278879,
0.06533665835411472,0.03352215657999623,
0.06538653366583541,0.022930225017479235,
0.06543640897755611,0.022343185236870382,
0.0654862842892768,0.033086209879222006,
0.06553615960099751,0.022289004736052394,
0.06558603491271821,0.014470929484968625,
0.0656359102244389,0.041181492581480204,
0.0656857855361596,0.04484740277214974,
0.0657356608478803,0.03042430262657261,
0.06578553615960099,0.020721060999257523,
0.0658354114713217,0.011181801042654557,
0.0658852867830424,0.03513861725417241,
0.06593516209476309,0.03563251937168827,
0.06598503740648379,0.0292916427286887,
0.06603491271820448,0.023289359093815167,
0.06608478802992519,0.05777376733734299,
0.06613466334164589,0.0032351582094752966,
0.06618453865336658,0.02569348598074384,
0.06623441396508728,0.02099981468491091,
0.06628428927680798,0.039444106892121765,
0.06633416458852869,0.041065008740563166,
0.06638403990024938,0.02986326326339499,
0.06643391521197008,0.022902544681493983,
0.06648379052369077,0.014474995894024715,
0.06653366583541147,0.0402391564001678,
0.06658354114713216,0.018710564872413286,
0.06663341645885287,0.007119452602155109,
0.06668329177057357,-0.0009476604255923213,
0.06673316708229426,0.027943178346727614,
0.06678304239401496,0.02645012728320511,
0.06683291770573566,0.008019338014688617,
0.06688279301745637,0.034841317117107744,
0.06693266832917706,0.04159228809128673,
0.06698254364089776,0.03667613782819749,
0.06703241895261845,0.015336031723845962,
0.06708229426433915,0.026081962603596874,
0.06713216957605984,0.022658598559963515,
0.06718204488778055,0.017687090824776198,
0.06723192019950125,0.027139060914494258,
0.06728179551122195,0.03796086479613187,
0.06733167082294264,0.02905156627719103,
0.06738154613466334,0.03490496841287688,
0.06743142144638405,0.05875909510941402,
0.06748129675810474,0.042022317069154325,
0.06753117206982544,0.020937335825560843,
0.06758104738154613,0.008086025749527728,
0.06763092269326683,-0.005574313088718103,
0.06768079800498752,0.011578756523384926,
0.06773067331670823,0.010492479707737343,
0.06778054862842893,-0.007928766898768366,
0.06783042394014963,0.014949501469050778,
0.06788029925187032,-0.0002230924336892419,
0.06793017456359102,0.015336421874161683,
0.06798004987531173,0.03791194086304465,
0.06802992518703242,0.03839100465437126,
0.06807980049875312,0.028848823851530023,
0.06812967581047381,0.033225993866870196,
0.06817955112219451,-0.009261488771285815,
0.0682294264339152,0.02832085533529604,
0.06827930174563591,0.00016474765559418986,
0.06832917705735661,0.006349139090576881,
0.0683790523690773,0.023780105655894702,
0.068428927680798,-0.0006420128146204344,
0.0684788029925187,0.020019627320371474,
0.06852867830423941,0.022628863649932794,
0.0685785536159601,0.02383206621831197,
0.0686284289276808,0.03838849536047147,
0.0686783042394015,0.012456224641771992,
0.06872817955112219,-0.008176721224095265,
0.0687780548628429,0.02941754819157832,
0.0688279301745636,0.022443558327310202,
0.06887780548628429,-0.006986181570580223,
0.06892768079800499,0.008409811797144381,
0.06897755610972568,0.029157736728217726,
0.06902743142144638,0.00896445204315359,
0.06907730673316709,0.0075014869593252875,
0.06912718204488778,-0.0006488454201767652,
0.06917705735660848,0.009660270949863853,
0.06922693266832917,0.002855385285432043,
0.06927680798004987,0.0330323070543255,
0.06932668329177058,0.0011308709289287525,
0.06937655860349128,0.001136230978747061,
0.06942643391521197,0.013700976920557667,
0.06947630922693267,0.024994575295401958,
0.06952618453865336,-0.02049231135296525,
0.06957605985037406,-0.007589839744671735,
0.06962593516209477,0.012851429858012166,
0.06967581047381546,0.020695590376166716,
0.06972568578553616,0.0069820617133979634,
0.06977556109725686,-0.012925393533338825,
0.06982543640897755,0.005639853688021273,
0.06987531172069826,-0.011335278971362737,
0.06992518703241896,0.012859381276540629,
0.06997506234413965,0.002373657197263332,
0.07002493765586035,-0.01527818251532461,
0.07007481296758104,-0.011654491393366027,
0.07012468827930174,0.02069510456950306,
0.07017456359102245,0.02152237923632848,
0.07022443890274314,-0.0062484930417025415,
0.07027431421446384,0.007049948238623588,
0.07032418952618454,0.016244108771878492,
0.07037406483790523,0.0333359187256776,
0.07042394014962594,-0.005884509447536358,
0.07047381546134664,0.008405172446633101,
0.07052369077306733,0.02267753046543956,
0.07057356608478803,0.01811096985151507,
0.07062344139650872,0.00893689175403082,
0.07067331670822943,-0.006108110474376793,
0.07072319201995013,0.013445533510408864,
0.07077306733167082,0.002448490761434937,
0.07082294264339152,-0.018078200801180413,
0.07087281795511222,0.019595447833548833,
0.07092269326683291,0.004549711300484633,
0.07097256857855362,0.03438228931694582,
0.07102244389027432,0.00029777887035841496,
0.07107231920199501,-0.004319028684310718,
0.07112219451371571,-0.002095251727556312,
0.0711720698254364,-0.0033270042994847544,
0.07122194513715711,0.01147662109839899,
0.07127182044887781,-0.002797642835339245,
0.0713216957605985,-0.02171513872919586,
0.0713715710723192,0.006017581389865805,
0.0714214463840399,0.006170454720397966,
0.07147132169576059,-0.02228177259315413,
0.0715211970074813,0.010715477797133116,
0.071571072319202,0.01007947742317792,
0.0716209476309227,0.01298923216005133,
0.07167082294264339,-0.015924954281379654,
0.07172069825436408,0.011193108416333218,
0.0717705735660848,0.007968071796538783,
0.07182044887780549,-0.018501935154585154,
0.07187032418952619,0.0028597612297369427,
0.07192019950124688,-0.017395138672827107,
0.07197007481296758,0.007061740660187593,
0.07201995012468827,0.02354894523814109,
0.07206982543640898,0.012821819270570177,
0.07211970074812968,-0.010321747188724594,
0.07216957605985037,-0.005556816527306558,
0.07221945137157107,0.011436651359491734,
0.07226932668329177,-0.015313831165615209,
0.07231920199501247,0.005043792005829481,
0.07236907730673317,-0.0211718427432114,
0.07241895261845387,0.011360722796728551,
0.07246882793017456,0.013004884474578704,
0.07251870324189526,-0.02553628074083284,
0.07256857855361595,-0.026163365736246287,
0.07261845386533666,0.0290790035971842,
0.07266832917705736,0.004651772739736007,
0.07271820448877805,-0.0132202779563153,
0.07276807980049875,-0.027420039714674094,
0.07281795511221945,-0.013829608051615459,
0.07286783042394016,-0.004933931192985172,
0.07291770573566085,0.006914391490771515,
0.07296758104738155,-0.022060889041953753,
0.07301745635910224,0.014800709141219236,
0.07306733167082294,0.011477386176599737,
0.07311720698254365,0.006342428718417404,
0.07316708229426434,-0.013907018214143842,
0.07321695760598504,0.006098896565039416,
0.07326683291770573,-0.04375277311980137,
0.07331670822942643,0.00035134385988645246,
0.07336658354114713,-0.03186449146059873,
0.07341645885286784,-0.021688844757078378,
0.07346633416458853,-0.022230114653031298,
0.07351620947630923,-0.0029182962849886107,
0.07356608478802992,-0.003999321435628505,
0.07361596009975062,-0.012603131180230936,
0.07366583541147133,-0.02032735073247976,
0.07371571072319202,0.0131965757012703,
0.07376558603491272,-0.020527718694334847,
0.07381546134663342,0.00726845457627048,
0.07386533665835411,-0.03095331786330981,
0.0739152119700748,-0.008323430865124935,
0.07396508728179552,-0.026913545666462688,
0.07401496259351621,-0.0342706618087364,
0.07406483790523691,-0.00473424759231748,
0.0741147132169576,-0.041044341553436337,
0.0741645885286783,-0.021676560540800173,
0.07421446384039901,-0.0055025071298488845,
0.0742643391521197,-0.01581760398999194,
0.0743142144638404,-0.011143054197543141,
0.0743640897755611,-0.0005227391298851577,
0.07441396508728179,-0.025233746347597775,
0.07446384039900249,-0.008748981161863784,
0.0745137157107232,-0.02813367460718415,
0.07456359102244389,-0.016077228996788276,
0.07461346633416459,0.011497407191665936,
0.07466334164588528,-0.02116570745161794,
0.07471321695760598,-0.010231316381431125,
0.07476309226932669,-0.022921813219307224,
0.07481296758104738,0.0004822865339749391,
0.07486284289276808,0.016249032108767984,
0.07491271820448878,-0.036549898977474744,
0.07496259351620947,-0.012939722857397706,
0.07501246882793017,0.0035216865890596583,
0.07506234413965088,-0.022792330585196204,
0.07511221945137157,-0.019477172803943905,
0.07516209476309227,-0.012091094865092205,
0.07521197007481296,-0.012243123926541172,
0.07526184538653366,-0.0064025202974283,
0.07531172069825437,-0.02175114233334799,
0.07536159600997507,-0.0016701236588262322,
0.07541147132169576,-0.040016122464583415,
0.07546134663341646,-0.009363480429701405,
0.07551122194513715,-0.012140886576013796,
0.07556109725685786,-0.0022217639028247697,
0.07561097256857856,-0.010954296296826035,
0.07566084788029925,-0.004337497201656411,
0.07571072319201995,-0.048414005512902425,
0.07576059850374064,-0.018239076865671944,
0.07581047381546134,-0.01732974708725723,
0.07586034912718205,-0.029209565053226746,
0.07591022443890275,-0.01787964677889746,
0.07596009975062344,-0.035927684150559795,
0.07600997506234414,-0.009770355768464934,
0.07605985037406483,-0.01821732240227673,
0.07610972568578554,-0.03146529663014207,
0.07615960099750624,-0.0216865303440355,
0.07620947630922693,-0.012185683178235011,
0.07625935162094763,-0.009268792322314487,
0.07630922693266833,-0.01277997118523683,
0.07635910224438902,-0.0014165429538070332,
0.07640897755610973,0.0016761719875244638,
0.07645885286783043,0.009650004012685138,
0.07650872817955112,0.022322108927119715,
0.07655860349127182,0.0022624221942050132,
0.07660847880299251,-0.0354492622305739,
0.07665835411471322,-0.002369530070779658,
0.07670822942643392,-0.013027870838852016,
0.07675810473815461,-0.011696531417096305,
0.07680798004987531,-0.03265580097761468,
0.076857855361596,-0.013181660811465708,
0.0769077306733167,-0.010115998523745468,
0.07695760598503741,-0.028874257171738554,
0.0770074812967581,-0.008606050384642804,
0.0770573566084788,-0.005619244483971839,
0.0771072319201995,-0.01744296818702396,
0.0771571072319202,-0.01869455192359001,
0.0772069825436409,0.0019956330376962976,
0.0772568578553616,0.00755956212282656,
0.0773067331670823,0.006374730726994137,
0.07735660847880299,-0.003068774559586755,
0.07740648379052369,-0.016244652077360477,
0.0774563591022444,-0.01370299885398264,
0.07750623441396509,-0.01735535992555937,
0.07755610972568579,-0.036255353861780616,
0.07760598503740648,-0.03662596759517388,
0.07765586034912718,0.006166299298521995,
0.07770573566084787,-0.04878798207114035,
0.07775561097256858,0.018671946083079927,
0.07780548628428928,-0.005729622079953149,
0.07785536159600998,-0.004965586321263715,
0.07790523690773067,-0.007744841313946699,
0.07795511221945137,0.012137347417467631,
0.07800498753117208,-0.006551242915791358,
0.07805486284289277,-0.01880749536068988,
0.07810473815461347,0.009755286613760263,
0.07815461346633416,-0.007017756939434848,
0.07820448877805486,-0.00439876911869045,
0.07825436408977555,0.010283857147856523,
0.07830423940149626,-0.005685139343236121,
0.07835411471321696,-0.0063344095872194285,
0.07840399002493766,0.012574644149457224,
0.07845386533665835,-0.011210590440296469,
0.07850374064837905,-0.0422136510122102,
0.07855361596009976,-0.008291705043386347,
0.07860349127182045,0.00454399726046872,
0.07865336658354115,-0.011187241045285526,
0.07870324189526184,-0.0002829208725045173,
0.07875311720698254,-0.002594344756640552,
0.07880299251870324,-0.023016521111808762,
0.07885286783042394,-0.002190790067001513,
0.07890274314214464,0.011660906181160374,
0.07895261845386534,-0.0006943320288765632,
0.07900249376558603,-0.022869588724897576,
0.07905236907730673,-0.015319010266969366,
0.07910224438902744,-0.017155358104537267,
0.07915211970074813,0.021044089610494823,
0.07920199501246883,-0.011677563505715999,
0.07925187032418952,0.02206867020801214,
0.07930174563591022,-0.035099701562390694,
0.07935162094763092,0.028142725253065937,
0.07940149625935163,0.0008769128819108066,
0.07945137157107232,0.013629823505517696,
0.07950124688279302,0.0006619130276245026,
0.07955112219451371,0.013250354426109792,
0.07960099750623441,-0.016083072295444114,
0.07965087281795512,0.013588572847257936,
0.07970074812967581,-0.010490358963019787,
0.07975062344139651,0.006553817285689934,
0.0798004987531172,-0.01733820022409988,
0.0798503740648379,0.02913314096895029,
0.07990024937655861,0.0012786388840546482,
0.0799501246882793,-0.021354696215402477,
0.08,-0.0010784304385951498,
0.0800498753117207,0.0007105489587859129,
0.0800997506234414,0.012111353075893408,
0.08014962593516209,-0.01424055208199405,
0.0801995012468828,0.00674247747333989,
0.0802493765586035,-0.009049381818510166,
0.08029925187032419,0.012304792427445177,
0.08034912718204489,0.016919383733711373,
0.08039900249376558,-0.0017712202861967022,
0.08044887780548629,-0.019643934342425617,
0.08049875311720699,0.030500692713036303,
0.08054862842892768,0.004277977660104029,
0.08059850374064838,-0.02274355865517176,
0.08064837905236907,-0.011622504804994816,
0.08069825436408977,0.0029984445900729374,
0.08074812967581048,-0.0017034914494616013,
0.08079800498753117,-0.01046097335482879,
0.08084788029925187,-1.0822657733890531e-05,
0.08089775561097257,0.018355991991668215,
0.08094763092269326,-0.01839914642760802,
0.08099750623441397,0.043878601167299275,
0.08104738154613467,0.0068307477956260805,
0.08109725685785536,0.007819771536041381,
0.08114713216957606,-0.003809474593474787,
0.08119700748129675,0.005825041678648389,
0.08124688279301745,0.020781590254810786,
0.08129675810473816,0.02923370499683303,
0.08134663341645886,0.0025969184990993644,
0.08139650872817955,0.03997902121310019,
0.08144638403990025,0.008246177720680854,
0.08149625935162094,0.011157118339856022,
0.08154613466334165,0.011205347880363248,
0.08159600997506235,0.01781034837675664,
0.08164588528678304,0.0054183827457610695,
0.08169576059850374,0.024075690303609787,
0.08174563591022443,0.02007871731766826,
0.08179551122194513,0.033803696402265195,
0.08184538653366584,-0.0003872713275274737,
0.08189526184538654,0.019860743091573898,
0.08194513715710723,0.025054905105081987,
0.08199501246882793,0.016164600690877037,
0.08204488778054862,-0.002763899889314544,
0.08209476309226933,0.012293827815788892,
0.08214463840399003,0.0009892312673069597,
0.08219451371571072,0.03025973525041646,
0.08224438902743142,0.03022733035794009,
0.08229426433915212,0.0324000451793795,
0.08234413965087282,0.02733918589001919,
0.08239401496259352,0.01982878232813803,
0.08244389027431422,0.020194236480661498,
0.08249376558603491,0.038175061471979306,
0.08254364089775561,0.014213658271392763,
0.0825935162094763,0.011495216253354135,
0.08264339152119701,0.013794341186489966,
0.08269326683291771,0.03972137585932943,
0.0827431421446384,0.01033942297126851,
0.0827930174563591,0.021076336591102956,
0.0828428927680798,0.026233523740814425,
0.0828927680798005,0.03412056997280976,
0.0829426433915212,0.022925945004331025,
0.0829925187032419,0.009816946081288778,
0.08304239401496259,0.031387858322002485,
0.08309226932668329,0.037161406610871334,
0.08314214463840398,0.008524003620499182,
0.0831920199501247,0.04385019950003573,
0.08324189526184539,0.003929806800410347,
0.08329177057356608,0.01639905228011823,
0.08334164588528678,0.042119064705491586,
0.08339152119700748,0.04372758716365141,
0.08344139650872819,0.04032194191118102,
0.08349127182044888,0.018506929999936174,
0.08354114713216958,-0.0005231839298072138,
0.08359102244389027,0.04205190092295023,
0.08364089775561097,0.010324151750526433,
0.08369077306733166,0.0381844549084588,
0.08374064837905237,0.02504994621621369,
0.08379052369077307,0.011132998774337642,
0.08384039900249377,0.02230273946608347,
0.08389027431421446,0.03991514969669317,
0.08394014962593516,0.004416500424006282,
0.08399002493765587,0.022806061895474652,
0.08403990024937656,0.03960197641660939,
0.08408977556109726,0.027575108693933606,
0.08413965087281795,0.03660201634590571,
0.08418952618453865,0.01392952769061725,
0.08423940149625936,0.006159686017037962,
0.08428927680798005,0.03105476960932867,
0.08433915211970075,-0.005458171706725714,
0.08438902743142145,0.010062135191947172,
0.08443890274314214,-0.013966711360575975,
0.08448877805486284,0.028851301278112026,
0.08453865336658355,0.019777184740056585,
0.08458852867830424,0.0035770610042339425,
0.08463840399002494,0.02946753783241394,
0.08468827930174563,0.028432917991475914,
0.08473815461346633,-0.00030027282877750916,
0.08478802992518704,0.03697585709275876,
0.08483790523690773,0.018089822348911704,
0.08488778054862843,0.06083004242746901,
0.08493765586034913,0.02104111221493353,
0.08498753117206982,0.025280010487373876,
0.08503740648379052,0.0553127242174741,
0.08508728179551123,0.018109482764741947,
0.08513715710723192,0.03798277327871055,
0.08518703241895262,0.015458456375972512,
0.08523690773067331,0.034968115381550854,
0.08528678304239401,0.014420157606191626,
0.08533665835411472,0.017778403495271523,
0.08538653366583542,0.0038573173302708028,
0.08543640897755611,0.010795466967067568,
0.0854862842892768,0.021031480062770634,
0.0855361596009975,0.013173406989550577,
0.0855860349127182,0.02487847215946,
0.08563591022443891,0.0289994696680635,
0.0856857855361596,0.0028713765687581293,
0.0857356608478803,0.061079606755962385,
0.085785536159601,0.04884179054648695,
0.08583541147132169,0.023398806053882445,
0.0858852867830424,0.032105351444819755,
0.0859351620947631,0.06484178173995789,
0.08598503740648379,0.02844654598353404,
0.08603491271820449,0.028948621113552786,
0.08608478802992518,0.0322117330248904,
0.08613466334164588,0.035910464717465576,
0.08618453865336659,0.016187186408060196,
0.08623441396508728,0.034077713323847986,
0.08628428927680798,0.01168132403705117,
0.08633416458852868,0.03245167400460581,
0.08638403990024937,0.014892679144412694,
0.08643391521197008,0.031850546053849065,
0.08648379052369078,0.0427628969233369,
0.08653366583541147,0.024567313410875227,
0.08658354114713217,0.015509333217257207,
0.08663341645885286,0.013012150596009641,
0.08668329177057357,0.019311024914106217,
0.08673316708229427,0.04975405999074857,
0.08678304239401496,0.042923841578409255,
0.08683291770573566,0.03372140254072772,
0.08688279301745636,0.025068476026702452,
0.08693266832917705,0.021319584069618234,
0.08698254364089776,0.013545697029366307,
0.08703241895261846,0.027802024303768894,
0.08708229426433915,0.01419068035842731,
0.08713216957605985,0.034233501639796986,
0.08718204488778054,0.03560027779945807,
0.08723192019950125,0.020505619779981443,
0.08728179551122195,0.021536081785648142,
0.08733167082294264,0.008752916489646916,
0.08738154613466334,0.04579075918679981,
0.08743142144638404,0.0056016360636205985,
0.08748129675810473,0.026625557394754154,
0.08753117206982544,0.038463246759161,
0.08758104738154614,0.023213818344520947,
0.08763092269326683,-0.006089248080275687,
0.08768079800498753,0.037745907380797486,
0.08773067331670822,0.045035724619626044,
0.08778054862842893,0.028589345775426656,
0.08783042394014963,0.040998649010550836,
0.08788029925187033,0.005599265478957543,
0.08793017456359102,0.024659555734862663,
0.08798004987531172,-0.010216914647989548,
0.08802992518703241,0.04000524807618665,
0.08807980049875312,0.006878248074281628,
0.08812967581047382,0.00809938718711255,
0.08817955112219451,0.027396731159564872,
0.08822942643391521,0.03116286088023277,
0.0882793017456359,0.012542513133821737,
0.08832917705735661,0.018722517762252314,
0.08837905236907731,0.03312074748134822,
0.088428927680798,0.02262158022961735,
0.0884788029925187,0.025183376134139943,
0.0885286783042394,0.006085090770147178,
0.0885785536159601,-0.01797878346186133,
0.0886284289276808,0.03873019282015332,
0.0886783042394015,-0.013224050165184874,
0.0887281795511222,0.053986501092518124,
0.08877805486284289,0.012995471046569182,
0.08882793017456359,0.015215857151193364,
0.0888778054862843,0.0028810502208114035,
0.08892768079800499,0.028199942072929873,
0.08897755610972569,0.020858481556992266,
0.08902743142144638,0.025482467262124747,
0.08907730673316708,0.004863503873207917,
0.08912718204488779,0.02076065554248349,
0.08917705735660848,0.0106269806280056,
0.08922693266832918,0.03144531092246242,
0.08927680798004987,0.014312638789063591,
0.08932668329177057,0.029422254275099917,
0.08937655860349127,0.01777126169796181,
0.08942643391521198,0.0225892768469843,
0.08947630922693267,0.010175246698234146,
0.08952618453865337,-0.0017727427303632411,
0.08957605985037406,0.023659597986663516,
0.08962593516209476,0.012188706374519905,
0.08967581047381547,0.02708138227663756,
0.08972568578553616,0.009991366364463763,
0.08977556109725686,-0.00208019743725797,
0.08982543640897755,0.006666602535125291,
0.08987531172069825,0.027361144402501324,
0.08992518703241895,0.0363888492683279,
0.08997506234413966,0.046283858315982716,
0.09002493765586035,0.006038290025122796,
0.09007481296758105,-0.008391696759127206,
0.09012468827930174,0.014103464950757077,
0.09017456359102244,-0.01698077479617781,
0.09022443890274315,0.042084691355621165,
0.09027431421446384,0.025371910655238198,
0.09032418952618454,0.008168150584585507,
0.09037406483790524,0.007623558504115684,
0.09042394014962593,0.008423957980793081,
0.09047381546134663,-0.003090185668935333,
0.09052369077306734,0.009334756039607414,
0.09057356608478803,0.005194325703581803,
0.09062344139650873,0.011446476433029016,
0.09067331670822942,-0.02004554685971885,
0.09072319201995012,0.029331807245643632,
0.09077306733167083,0.004537052368462479,
0.09082294264339152,-0.007086260893267677,
0.09087281795511222,0.01673198358148972,
0.09092269326683292,-0.009437657276209595,
0.09097256857855361,-0.020713326614706595,
0.09102244389027432,-0.012474446761001297,
0.09107231920199502,0.011720670019808949,
0.09112219451371571,-0.029313213632402732,
0.09117206982543641,-0.0028636107459028793,
0.0912219451371571,0.027556771475748747,
0.0912718204488778,0.012178441248476753,
0.09132169576059851,0.018054113323498953,
0.0913715710723192,-0.009327676205646675,
0.0914214463840399,0.026796318770308806,
0.0914713216957606,-0.009816977734539207,
0.09152119700748129,0.020389534853570264,
0.091571072319202,-0.006569183510502237,
0.0916209476309227,0.011795375536194194,
0.09167082294264339,-0.015225071131727119,
0.09172069825436409,0.007283201209416794,
0.09177057356608478,0.001784520651924834,
0.09182044887780548,-0.010908384286713205,
0.09187032418952619,-0.009683106141562401,
0.09192019950124689,0.02503535384922085,
0.09197007481296758,0.02801738266333217,
0.09201995012468828,0.021074576735799377,
0.09206982543640897,-0.011258575188561293,
0.09211970074812968,0.004190232665609268,
0.09216957605985038,0.008511645767438455,
0.09221945137157107,0.0050922807135696385,
0.09226932668329177,-0.0008039452674424167,
0.09231920199501246,0.0013644631787287573,
0.09236907730673316,-0.002180544956828174,
0.09241895261845387,0.01716238459714659,
0.09246882793017457,0.0046545330465484385,
0.09251870324189526,0.0005296767763486709,
0.09256857855361596,0.014663843193083144,
0.09261845386533665,0.003332853365834218,
0.09266832917705736,0.010128810195923155,
0.09271820448877806,0.015136110598541443,
0.09276807980049875,-0.00921000017476396,
0.09281795511221945,0.0004675222055591649,
0.09286783042394015,0.003419763356859392,
0.09291770573566084,-0.01020575674792907,
0.09296758104738155,-0.018103620158281045,
0.09301745635910225,-0.004128539398717957,
0.09306733167082294,-0.0008678653192155288,
0.09311720698254364,0.01989891630360789,
0.09316708229426433,-0.017369857642276554,
0.09321695760598504,-0.0017485686327628064,
0.09326683291770574,-0.027397730908395496,
0.09331670822942643,0.0023132965030454745,
0.09336658354114713,0.0021848169068245504,
0.09341645885286783,-0.00725265421100405,
0.09346633416458854,0.0020116319629377155,
0.09351620947630923,-0.0013521000870661782,
0.09356608478802993,-0.014165984493073496,
0.09361596009975062,-0.010579140838706634,
0.09366583541147132,-0.014022358731490511,
0.09371571072319201,-0.00534084106067212,
0.09376558603491272,-0.02513677136719735,
0.09381546134663342,-0.007262320982918076,
0.09386533665835411,-0.034208844674544533,
0.09391521197007481,0.0025338725483348874,
0.0939650872817955,-0.004200216092595181,
0.09401496259351622,-0.025663421799427925,
0.09406483790523691,-0.017126370567292066,
0.09411471321695761,-0.005817941802835403,
0.0941645885286783,-0.008277477074736316,
0.094214463840399,-0.0380223448657024,
0.0942643391521197,-0.028751298523695727,
0.0943142144638404,-0.02787309014698223,
0.0943640897755611,0.004433917730846705,
0.0944139650872818,-0.01977625777345322,
0.09446384039900249,-0.008676059553054952,
0.09451371571072319,-0.025355911827399,
0.0945635910224439,-0.019751006527912816,
0.09461346633416459,0.013010110842440201,
0.09466334164588529,-0.01734593673445645,
0.09471321695760598,-0.019822957765908925,
0.09476309226932668,0.014391669200781422,
0.09481296758104737,-0.014620543683408238,
0.09486284289276808,-0.004714900000138474,
0.09491271820448878,-0.036031548704873295,
0.09496259351620948,-0.006252491280842715,
0.09501246882793017,-0.021932227391761913,
0.09506234413965087,0.0031853031089490343,
0.09511221945137158,-0.025893483352679728,
0.09516209476309227,-0.009892122918153468,
0.09521197007481297,-0.005763226008753765,
0.09526184538653366,-0.030396885480556694,
0.09531172069825436,-0.00611707171917975,
0.09536159600997507,-0.038259678433286114,
0.09541147132169576,-0.017085502951669912,
0.09546134663341646,-0.005810025739007514,
0.09551122194513716,-0.004035494667976387,
0.09556109725685785,-0.002825384156781503,
0.09561097256857855,-0.03321406470431091,
0.09566084788029926,-0.02342018234297914,
0.09571072319201995,-0.004086117818062481,
0.09576059850374065,-0.017216077834154894,
0.09581047381546134,-0.01201868528136139,
0.09586034912718204,0.014239268480265601,
0.09591022443890275,-0.009831084379577314,
0.09596009975062345,-0.014266523216438383,
0.09600997506234414,-0.013795795956412237,
0.09605985037406484,-0.009236831386411947,
0.09610972568578553,-0.03500476330392366,
0.09615960099750623,-0.020917485424268467,
0.09620947630922694,-0.022439124884328268,
0.09625935162094763,-0.02760772195643113,
0.09630922693266833,0.014732960204464072,
0.09635910224438902,-0.009763417815185898,
0.09640897755610972,-0.008334297368069744,
0.09645885286783043,-0.008296460281185178,
0.09650872817955113,0.00857297569803053,
0.09655860349127182,-0.008927976961026504,
0.09660847880299252,-0.015585867232596627,
0.09665835411471321,-0.023600097406471315,
0.09670822942643391,-0.0031278190151392393,
0.09675810473815462,0.021496635247103674,
0.09680798004987531,0.019973967235198904,
0.09685785536159601,-0.004632573031503567,
0.0969077306733167,-0.004013352345932699,
0.0969576059850374,-0.0098257694746419,
0.09700748129675811,-0.01846519925168098,
0.0970573566084788,0.01229689534152795,
0.0971072319201995,-0.03352520995238009,
0.0971571072319202,-0.018761288869673803,
0.0972069825436409,-0.017654398069053084,
0.09725685785536159,-0.003085491182591011,
0.0973067331670823,-0.012194990066440146,
0.097356608478803,-0.022984857909834535,
0.09740648379052369,-0.0035985891950379226,
0.09745635910224439,-0.031221925483966736,
0.09750623441396508,0.013587291912196743,
0.09755610972568579,-0.02442363794386762,
0.09760598503740649,-0.012478447841367072,
0.09765586034912718,0.012633976023137684,
0.09770573566084788,-0.04157202057953273,
0.09775561097256857,0.008398235737241612,
0.09780548628428928,-0.014775739945650448,
0.09785536159600998,-0.02146523129180889,
0.09790523690773068,-0.011669575207565794,
0.09795511221945137,0.01646160818995814,
0.09800498753117207,-0.0006414473280087069,
0.09805486284289276,-0.008411627122361147,
0.09810473815461347,-0.014348694551705687,
0.09815461346633417,-0.024846366543226535,
0.09820448877805486,-0.012800278020795239,
0.09825436408977556,-0.011683832299068192,
0.09830423940149625,-0.011291232121876504,
0.09835411471321696,-0.021661529383884732,
0.09840399002493766,0.0067392282592380875,
0.09845386533665836,0.007233314238058776,
0.09850374064837905,0.01342151893881145,
0.09855361596009975,0.005037439387530528,
0.09860349127182044,-0.023190588087463156,
0.09865336658354115,0.01729329493938627,
0.09870324189526185,0.016426516486093307,
0.09875311720698254,-0.01805889058072399,
0.09880299251870324,-0.006805298058508156,
0.09885286783042393,0.00040321376091779354,
0.09890274314214464,-0.012667585845082109,
0.09895261845386534,-0.009917116469922695,
0.09900249376558604,0.005340787835529944,
0.09905236907730673,0.0006996070000296188,
0.09910224438902743,0.015455181903150716,
0.09915211970074812,-0.00044032745477092547,
0.09920199501246883,-0.024828491406289357,
0.09925187032418953,0.010484486204039956,
0.09930174563591022,0.014850300109616323,
0.09935162094763092,0.019477207141770227,
0.09940149625935162,0.0107960860042552,
0.09945137157107233,-0.013299154592566021,
0.09950124688279302,-0.012701725230197726,
0.09955112219451372,-0.01358953558591924,
0.09960099750623441,0.00037708114020630504,
0.09965087281795511,0.003826805460975115,
0.0997007481296758,-0.016003601044112255,
0.09975062344139651,0.004199411938080696,
0.09980049875311721,-0.015823236389622696,
0.0998503740648379,-0.019126776566687754,
0.0999002493765586,0.008108402571040806,
0.0999501246882793,-0.023089311789186953,
0.1,0.002005265712155879,
0.1000498753117207,0.002202918105979587,
0.1000997506234414,-0.022771225867953774,
0.10014962593516209,0.01809377063253126,
0.10019950124688279,0.009906948767056566,
0.1002493765586035,0.000407274781743649,
0.1002992518703242,-0.009050940526233774,
0.10034912718204489,0.017228263497860843,
0.10039900249376559,-0.0058430848562576335,
0.10044887780548628,0.010437395430595237,
0.10049875311720698,-0.004495932884125255,
0.10054862842892769,-0.003910382195026862,
0.10059850374064838,-0.017735224670672272,
0.10064837905236908,0.051912605749385665,
0.10069825436408977,0.035978595836715206,
0.10074812967581047,-0.004583985165803184,
0.10079800498753118,0.0022647003689822863,
0.10084788029925187,-0.021970983666751515,
0.10089775561097257,0.006125277849153206,
0.10094763092269327,-0.00859027665146819,
0.10099750623441396,0.009041733858566917,
0.10104738154613466,-0.020659763983612765,
0.10109725685785537,0.005479302462232707,
0.10114713216957606,0.012873856822268007,
0.10119700748129676,-0.008263033713246385,
0.10124688279301745,0.013853261391714281,
0.10129675810473815,-0.009240360747870154,
0.10134663341645886,0.039357345110644426,
0.10139650872817955,-0.012269692042614974,
0.10144638403990025,0.038182427571525374,
0.10149625935162095,-0.01586838926791472,
0.10154613466334164,0.0197341408638212,
0.10159600997506234,0.015129916040903258,
0.10164588528678305,-0.015614745918329734,
0.10169576059850374,0.019547347718782228,
0.10174563591022444,0.005685160892302163,
0.10179551122194513,-0.010402980790767078,
0.10184538653366583,0.02895985859230154,
0.10189526184538654,-0.0030969743859724664,
0.10194513715710724,0.017311492905809668,
0.10199501246882793,0.03235658829574553,
0.10204488778054863,-0.015850826270519557,
0.10209476309226932,0.010457582279555776,
0.10214463840399003,0.0018506718444688333,
0.10219451371571073,0.03609153330458541,
0.10224438902743142,0.026359529136933887,
0.10229426433915212,0.022947414432378542,
0.10234413965087281,0.0023776242498924436,
0.10239401496259351,0.025723012247002377,
0.10244389027431422,0.009692418836860667,
0.10249376558603492,0.010539948392002695,
0.10254364089775561,0.024511900364124647,
0.10259351620947631,0.00901625280616002,
0.102643391521197,0.0076250461615381005,
0.10269326683291771,0.015711598956231348,
0.10274314214463841,0.018945140880870726,
0.1027930174563591,0.017174045508985356,
0.1028428927680798,0.032006123736330286,
0.1028927680798005,0.025289869952304634,
0.10294264339152119,0.007129056187637213,
0.1029925187032419,0.04870451551411938,
0.1030423940149626,0.05462578103786564,
0.10309226932668329,0.016930705336572698,
0.10314214463840399,0.01400712531166069,
0.10319201995012468,0.05207631817266619,
0.10324189526184539,0.032968500471551324,
0.10329177057356609,-0.005211593043302584,
0.10334164588528678,0.027218290317862076,
0.10339152119700748,0.018641236437848555,
0.10344139650872818,0.005599640792821495,
0.10349127182044887,0.021653638539453707,
0.10354114713216958,0.02226786313837969,
0.10359102244389028,0.023637084037121198,
0.10364089775561097,0.03749508433262609,
0.10369077306733167,0.011506921180489812,
0.10374064837905236,0.01936799423951814,
0.10379052369077307,0.025254257820755882,
0.10384039900249377,0.024686243893320588,
0.10389027431421446,0.04112212178836545,
0.10394014962593516,0.02381661478406455,
0.10399002493765586,-0.00882781981851381,
0.10403990024937655,0.034643641227977785,
0.10408977556109726,0.030558608075664396,
0.10413965087281796,0.018746614148606195,
0.10418952618453865,0.02091954029756592,
0.10423940149625935,0.042346087075140794,
0.10428927680798004,0.018875781775610275,
0.10433915211970075,0.027969686059819098,
0.10438902743142145,0.0420950070167551,
0.10443890274314215,0.0445973458132011,
0.10448877805486284,0.046062644913990466,
0.10453865336658354,0.03136549704324795,
0.10458852867830425,0.03521960559802607,
0.10463840399002494,0.017646777770897203,
0.10468827930174564,0.010734063320264685,
0.10473815461346633,0.027615969424301834,
0.10478802992518703,0.0311216244531715,
0.10483790523690772,0.010517119175569089,
0.10488778054862843,0.03444458105870039,
0.10493765586034913,0.03123341933456692,
0.10498753117206983,0.03356205650436288,
0.10503740648379052,0.053840783453050337,
0.10508728179551122,0.05054694436119615,
0.10513715710723193,0.04860747866757101,
0.10518703241895262,0.033705923735959105,
0.10523690773067332,0.03226805616699768,
0.10528678304239401,0.037342785528374015,
0.10533665835411471,0.016557143810923124,
0.1053865336658354,0.04833368586263866,
0.10543640897755611,0.02380222026519365,
0.10548628428927681,0.0383726317181267,
0.1055361596009975,0.020758934752301554,
0.1055860349127182,0.03988039538821741,
0.1056359102244389,0.017580810219437096,
0.10568578553615961,0.032741007731938006,
0.1057356608478803,0.018169934975454945,
0.105785536159601,0.031825869775702696,
0.1058354114713217,0.027017238769721785,
0.10588528678304239,0.04411844052283247,
0.10593516209476309,0.03680828892868971,
0.1059850374064838,0.029914679771464864,
0.10603491271820449,0.00962023975934985,
0.10608478802992519,0.025421396469607924,
0.10613466334164588,0.01906787414399795,
0.10618453865336658,0.025491050144700537,
0.10623441396508729,0.020614694006513296,
0.10628428927680798,0.012759442111569886,
0.10633416458852868,0.013966550714941852,
0.10638403990024937,0.0009613192685850452,
0.10643391521197007,0.021830865791489004,
0.10648379052369077,0.002506441217972697,
0.10653366583541148,0.015897825819359352,
0.10658354114713217,0.010007739690078177,
0.10663341645885287,0.010540071888544451,
0.10668329177057356,0.010967945382591958,
0.10673316708229426,0.02223637057673547,
0.10678304239401497,0.029012526576153917,
0.10683291770573566,0.030780918172192705,
0.10688279301745636,0.019545758713093376,
0.10693266832917706,0.04084462201844009,
0.10698254364089775,0.03971778279958858,
0.10703241895261846,0.020265791749321072,
0.10708229426433916,0.030351343837190726,
0.10713216957605985,0.006392864590057966,
0.10718204488778055,0.01432781634854412,
0.10723192019950124,0.0497868526606791,
0.10728179551122194,0.014407120130787893,
0.10733167082294265,0.02275825829437704,
0.10738154613466334,0.04166152126386201,
0.10743142144638404,0.009864872445041417,
0.10748129675810474,0.018735480945973125,
0.10753117206982543,0.023444037276438043,
0.10758104738154614,-0.0009892465599071823,
0.10763092269326684,0.01336758587459819,
0.10768079800498753,0.01375460793712463,
0.10773067331670823,0.028679482564905403,
0.10778054862842892,0.01893502045395029,
0.10783042394014962,0.031823907961342046,
0.10788029925187033,-0.0029111009275652536,
0.10793017456359102,0.016026327545375467,
0.10798004987531172,0.04021316671399251,
0.10802992518703242,0.021759207286205846,
0.10807980049875311,0.033960704229096396,
0.10812967581047382,0.019162015827495833,
0.10817955112219452,0.037000559180740245,
0.10822942643391521,0.007428176466666122,
0.10827930174563591,0.01884063841197774,
0.1083291770573566,0.025469307143988856,
0.1083790523690773,0.012775032363129565,
0.10842892768079801,-0.0006448245130357584,
0.1084788029925187,0.03948082779605408,
0.1085286783042394,0.007995263854877177,
0.1085785536159601,0.025911055955209858,
0.10862842892768079,0.007996287864225545,
0.1086783042394015,0.024361694896810407,
0.1087281795511222,0.039747799171566,
0.1087780548628429,0.026041304513227583,
0.10882793017456359,0.01840224670292009,
0.10887780548628428,0.010886701121958123,
0.108927680798005,0.034491549174506884,
0.10897755610972569,0.03234653301948211,
0.10902743142144639,0.014066051493836718,
0.10907730673316708,0.01909132881676646,
0.10912718204488778,0.019764787319049824,
0.10917705735660847,0.017945904565509124,
0.10922693266832918,0.0072311556341333565,
0.10927680798004988,0.056186222276522965,
0.10932668329177057,0.029532582053569012,
0.10937655860349127,0.012360206960450038,
0.10942643391521197,0.025233208904112438,
0.10947630922693267,0.013786871435206642,
0.10952618453865337,0.03437940769346352,
0.10957605985037407,0.027252788838587852,
0.10962593516209476,0.015106889156844293,
0.10967581047381546,0.020945966346536726,
0.10972568578553615,0.0016065465388780936,
0.10977556109725686,0.010401923699431737,
0.10982543640897756,0.010831305218065114,
0.10987531172069825,-0.02932657890730406,
0.10992518703241895,-0.019719294988424733,
0.10997506234413965,0.0168093913600089,
0.11002493765586036,0.010764642770157911,
0.11007481296758105,0.021235070689680197,
0.11012468827930175,0.007666434046149368,
0.11017456359102244,0.03520492965096958,
0.11022443890274314,-0.029054256093282438,
0.11027431421446383,0.012394199374092838,
0.11032418952618454,0.01509477389056713,
0.11037406483790524,0.025321403261208564,
0.11042394014962593,-0.013033321998463087,
0.11047381546134663,0.03184707046165128,
0.11052369077306733,0.016903662781936217,
0.11057356608478804,0.022451703919627773,
0.11062344139650873,-0.00530519274876505,
0.11067331670822943,-0.005657250206980378,
0.11072319201995012,-0.018949469333945968,
0.11077306733167082,0.0008192545004901321,
0.11082294264339151,-0.002405889081074937,
0.11087281795511222,0.0003900329641680902,
0.11092269326683292,-0.009083410766439943,
0.11097256857855362,0.01999916220814449,
0.11102244389027431,-0.004161778283045433,
0.111072319201995,-0.012656871607414494,
0.11112219451371572,0.016000168182811865,
0.11117206982543641,-0.01654656767591079,
0.11122194513715711,0.014443873341240835,
0.1112718204488778,0.007173284521022869,
0.1113216957605985,0.023455462893860014,
0.11137157107231921,0.01939324532346735,
0.1114214463840399,-0.008187576172218547,
0.1114713216957606,-0.01629171352519665,
0.1115211970074813,-0.00427625032274489,
0.11157107231920199,8.966572422091333e-05,
0.11162094763092269,-0.007581339089790822,
0.1116708229426434,0.03047319831616596,
0.11172069825436409,-0.008655525941998195,
0.11177057356608479,0.0035914257737602617,
0.11182044887780548,0.012788213769911475,
0.11187032418952618,0.004629674411344034,
0.11192019950124689,0.0072021452201796515,
0.11197007481296758,-0.021380827172616104,
0.11201995012468828,-0.002223446429441635,
0.11206982543640898,-0.0016531926087540462,
0.11211970074812967,0.018943128516733333,
0.11216957605985037,-0.015880096460225583,
0.11221945137157108,-0.0032189427987610966,
0.11226932668329177,-0.009779805944650803,
0.11231920199501247,0.014774126770721875,
0.11236907730673316,0.009041504019071514,
0.11241895261845386,0.0009847368559225958,
0.11246882793017457,0.004269304961414472,
0.11251870324189527,0.03242384787659,
0.11256857855361596,0.015396389977551314,
0.11261845386533666,-0.021006056448388835,
0.11266832917705735,-0.011311178108294784,
0.11271820448877805,-0.004996610239018319,
0.11276807980049876,-0.029089827319826657,
0.11281795511221945,0.01765590709411381,
0.11286783042394015,-0.0032485099182263,
0.11291770573566084,-0.022592200273092167,
0.11296758104738154,-0.004139024000945134,
0.11301745635910225,0.022242321252211476,
0.11306733167082295,-0.006873756557815615,
0.11311720698254364,0.007618942345648534,
0.11316708229426434,0.008912199016599624,
0.11321695760598503,-0.00588102750257937,
0.11326683291770574,-0.0074563407132787396,
0.11331670822942644,0.005398164396395821,
0.11336658354114713,-0.02524133676918182,
0.11341645885286783,-0.02323994980154693,
0.11346633416458853,0.001231555008985188,
0.11351620947630922,-0.004713845324957864,
0.11356608478802993,-0.005234744224451037,
0.11361596009975063,-0.025039981145657725,
0.11366583541147132,-0.00543186864091832,
0.11371571072319202,-0.024006156377087758,
0.11376558603491271,-0.022210994780529254,
0.11381546134663342,-0.02613434099545526,
0.11386533665835412,-0.023534003107570416,
0.11391521197007481,0.015359341473109737,
0.11396508728179551,-0.0188617775594776,
0.1140149625935162,-0.021126010713574256,
0.1140648379052369,-0.01564159277315806,
0.11411471321695761,0.015681076525682527,
0.1141645885286783,0.010652667182378969,
0.114214463840399,-0.004684958133524006,
0.1142643391521197,-0.015157824574479648,
0.1143142144638404,-0.029962694203508635,
0.1143640897755611,-0.01721268540432848,
0.1144139650872818,0.00114632926528427,
0.1144638403990025,0.007023774028076156,
0.11451371571072319,-0.007141457748882054,
0.11456359102244389,0.009290386510582258,
0.11461346633416458,-0.020210466043851773,
0.11466334164588529,-0.013918694571855253,
0.11471321695760599,0.012483434740540202,
0.11476309226932668,-0.0016631796604792085,
0.11481296758104738,0.008651411936309045,
0.11486284289276807,-0.022942234766346336,
0.11491271820448878,-0.028763329702803635,
0.11496259351620948,-0.019571808006121322,
0.11501246882793018,0.004314815082726697,
0.11506234413965087,-0.008452432489851605,
0.11511221945137157,-0.020902608417951725,
0.11516209476309226,-0.015867829964078355,
0.11521197007481297,0.006828396641943554,
0.11526184538653367,0.00019617476788351927,
0.11531172069825436,0.004707897314061378,
0.11536159600997506,-0.003056754845034511,
0.11541147132169575,-0.00164902205276099,
0.11546134663341646,-0.020221876079244794,
0.11551122194513716,-0.008423624637669361,
0.11556109725685786,-0.012069059386322613,
0.11561097256857855,-0.007677750210526276,
0.11566084788029925,-0.012034991013460781,
0.11571072319201996,-0.0017932469935342168,
0.11576059850374065,-0.030521440624867315,
0.11581047381546135,-0.03741975137766866,
0.11586034912718204,-0.04323853056959155,
0.11591022443890274,-0.013842780875121943,
0.11596009975062344,-0.029446576106689937,
0.11600997506234415,0.0278068618143075,
0.11605985037406484,-0.008449659868086701,
0.11610972568578554,-0.02476960479530657,
0.11615960099750623,0.020521733756332074,
0.11620947630922693,-0.003073751348764699,
0.11625935162094764,-0.013957263301406182,
0.11630922693266833,-0.01710578604121939,
0.11635910224438903,-0.009315406774544269,
0.11640897755610972,-0.01925820758984722,
0.11645885286783042,-0.01702568005746738,
0.11650872817955112,0.01452673667120527,
0.11655860349127183,-0.01766467840682992,
0.11660847880299252,-0.030208323034295735,
0.11665835411471322,0.00816459112366357,
0.11670822942643391,0.00024614779530266265,
0.11675810473815461,-0.018060466635833994,
0.11680798004987532,-0.0051395050585686585,
0.11685785536159601,-0.013234821739974206,
0.11690773067331671,-0.041980204084765896,
0.1169576059850374,-0.0001325856783281898,
0.1170074812967581,0.025506417235728093,
0.1170573566084788,-0.018084163515550554,
0.1171072319201995,4.542315590857875e-05,
0.1171571072319202,0.00038667137929494257,
0.1172069825436409,2.311844620932202e-05,
0.1172568578553616,-0.013796576648149074,
0.11730673316708229,-0.030670896119248565,
0.117356608478803,-0.0067365787325626555,
0.1174064837905237,-0.014375937852959028,
0.11745635910224439,-0.013559337513656653,
0.11750623441396509,-0.0019248601872424677,
0.11755610972568578,-0.009194406436062123,
0.11760598503740648,0.0047250514971346885,
0.11765586034912719,-0.013796574248296063,
0.11770573566084788,-0.013707271219944212,
0.11775561097256858,0.0019064762879056566,
0.11780548628428927,-0.002409153021879421,
0.11785536159600997,-0.01877051913928405,
0.11790523690773068,-0.020345560129419044,
0.11795511221945137,0.02706241790690253,
0.11800498753117207,0.005561721580299031,
0.11805486284289277,-0.017489193993679097,
0.11810473815461346,0.013187051643661088,
0.11815461346633417,-0.021090024356699946,
0.11820448877805487,0.0018579204470833477,
0.11825436408977556,-0.005340167797573978,
0.11830423940149626,-0.022603806883073597,
0.11835411471321695,-0.005397356413854297,
0.11840399002493765,0.000844791392840858,
0.11845386533665836,0.00800852173550298,
0.11850374064837906,-0.019895851296093146,
0.11855361596009975,0.0016350893105144303,
0.11860349127182045,0.015354341350100812,
0.11865336658354114,0.004572676592798657,
0.11870324189526185,-0.034305482262240984,
0.11875311720698255,0.004104781731546477,
0.11880299251870324,-0.009767743068864123,
0.11885286783042394,0.012233210786393308,
0.11890274314214463,0.0031749810434550715,
0.11895261845386533,-0.03938160109357462,
0.11900249376558604,0.00582672490522495,
0.11905236907730674,0.017678136396152937,
0.11910224438902743,0.01076004247117656,
0.11915211970074813,-0.006139958305112288,
0.11920199501246882,-0.00745600202127424,
0.11925187032418953,0.004227748621489761,
0.11930174563591023,0.03232428855257366,
0.11935162094763092,-0.012038030684842844,
0.11940149625935162,-0.010049215380194534,
0.11945137157107232,-0.00016751664353637668,
0.11950124688279301,0.014218633587630827,
0.11955112219451372,0.018868030305124482,
0.11960099750623442,-0.00462241424043626,
0.11965087281795511,0.007863910085284673,
0.11970074812967581,0.005607446095758274,
0.1197506234413965,-0.025549728030623362,
0.11980049875311721,-0.004128699532606043,
0.11985037406483791,-0.0016021820934067179,
0.1199002493765586,-0.002498292340754947,
0.1199501246882793,0.00837872056136854,
0.12,0.029907754316902367,
0.1200498753117207,-0.00914255595814178,
0.1200997506234414,0.015230231240369355,
0.1201496259351621,0.011426015409471288,
0.12019950124688279,0.03226940335468135,
0.12024937655860349,0.0025504151069543103,
0.12029925187032418,-0.0009748980098413709,
0.1203491271820449,0.01130476563074086,
0.12039900249376559,0.012170861754611375,
0.12044887780548628,0.005105159715481477,
0.12049875311720698,-0.008163034326880291,
0.12054862842892768,0.020352481713313247,
0.12059850374064839,0.012263740320254195,
0.12064837905236908,0.005274341878324067,
0.12069825436408978,-0.0015210222778107747,
0.12074812967581047,0.011878764169595678,
0.12079800498753117,-0.0080588627914352,
0.12084788029925186,0.02458698336471179,
0.12089775561097257,0.021972578726777582,
0.12094763092269327,-0.009540894579479226,
0.12099750623441397,0.007716723387065043,
0.12104738154613466,0.011337091672259917,
0.12109725685785536,0.026507950563147607,
0.12114713216957607,0.013703255415324217,
0.12119700748129676,-0.00833660638025352,
0.12124688279301746,0.025605142509067168,
0.12129675810473815,0.01421556212997846,
0.12134663341645885,0.03710381635383107,
0.12139650872817954,0.04431175048471453,
0.12144638403990025,0.014385167591779663,
0.12149625935162095,0.017182018121453174,
0.12154613466334165,0.028283078664189977,
0.12159600997506234,0.013765463105693772,
0.12164588528678304,0.03099507096153753,
0.12169576059850375,0.020177129567135833,
0.12174563591022444,0.0231132550650812,
0.12179551122194514,0.011001327138108283,
0.12184538653366583,0.03249691848360192,
0.12189526184538653,0.018863403586091083,
0.12194513715710723,0.04004497441672486,
0.12199501246882793,0.053420287647319785,
0.12204488778054863,-0.017889248286390488,
0.12209476309226933,0.002052963852178475,
0.12214463840399002,0.0363700030206538,
0.12219451371571072,0.03255713800251524,
0.12224438902743143,0.0029532151364313995,
0.12229426433915212,0.015442954445712899,
0.12234413965087282,-0.0020831549059672147,
0.12239401496259351,0.03725025525014572,
0.12244389027431421,0.0022403456329341646,
0.12249376558603492,0.017294728366070555,
0.12254364089775562,-0.004768603202255455,
0.12259351620947631,0.017223213078778082,
0.122643391521197,0.04166118465109196,
0.1226932668329177,0.01943129526238906,
0.1227431421446384,0.01599046964850738,
0.12279301745635911,0.04967668188295059,
0.1228428927680798,0.004600600632969503,
0.1228927680798005,0.029781279726857214,
0.1229426433915212,0.05482878785696496,
0.12299251870324189,0.015255820977010965,
0.1230423940149626,0.0032613128766843143,
0.1230922693266833,-0.011875525615226014,
0.12314214463840399,-0.01333344524708896,
0.12319201995012469,0.029349209904646185,
0.12324189526184538,0.014420140055352077,
0.12329177057356608,0.019524397335441503,
0.12334164588528679,0.009197955385858384,
0.12339152119700748,0.04060507225736607,
0.12344139650872818,0.020261226168986977,
0.12349127182044888,0.013487610913919345,
0.12354114713216957,0.007894362054626645,
0.12359102244389028,0.027759251409561543,
0.12364089775561098,0.025539088376744325,
0.12369077306733167,0.021074666242224562,
0.12374064837905237,0.0313647590938471,
0.12379052369077306,0.04763281255972742,
0.12384039900249376,0.0013331084108630306,
0.12389027431421447,0.02078294297207283,
0.12394014962593516,0.028478171714444143,
0.12399002493765586,0.026024621886283593,
0.12403990024937656,0.027490901460358,
0.12408977556109725,0.01114649166696749,
0.12413965087281796,0.03646643410625383,
0.12418952618453866,0.03698530635798408,
0.12423940149625935,0.018805380846278072,
0.12428927680798005,0.050728938557041386,
0.12433915211970074,0.009000086762718188,
0.12438902743142144,0.03558821788467555,
0.12443890274314215,0.024992212951878687,
0.12448877805486284,0.024241918958977225,
0.12453865336658354,0.03023153107676524,
0.12458852867830424,0.034023852560412765,
0.12463840399002493,0.03873948378599499,
0.12468827930174564,0.02346933645576965,
0.12473815461346634,0.023427201145628046,
0.12478802992518703,0.016071826688983937,
0.12483790523690773,-0.0012113884264075316,
0.12488778054862842,0.02452759570432601,
0.12493765586034913,0.002049799396600379,
0.12498753117206983,0.013882407826523965,
0.12503740648379053,0.02014595009546688,
0.12508728179551123,0.01451702468553658,
0.12513715710723192,0.005055755750386071,
0.12518703241895263,0.021984316963291006,
0.1252369077306733,0.051407144080262715,
0.12528678304239402,0.03583767166175273,
0.1253366583541147,0.00815798356598152,
0.1253865336658354,0.021063050267853795,
0.12543640897755612,0.02472703124966601,
0.1254862842892768,0.051143930260823964,
0.1255361596009975,0.02122948148725437,
0.1255860349127182,0.02239100484764968,
0.1256359102244389,0.04165388991365965,
0.1256857855361596,0.02964443072556201,
0.1257356608478803,0.03375785900988461,
0.125785536159601,0.023275504791546532,
0.12583541147132168,0.02890293417855615,
0.1258852867830424,0.0150413093276832,
0.1259351620947631,0.03650346358328724,
0.12598503740648379,0.022117640340999466,
0.1260349127182045,0.03293436528632948,
0.12608478802992518,0.022808546805291978,
0.1261346633416459,0.022065306983453926,
0.1261845386533666,0.03554070331727039,
0.12623441396508728,0.027191566945679726,
0.126284289276808,0.04679157990324373,
0.12633416458852867,0.0332181593865405,
0.12638403990024938,0.022448219199718088,
0.1264339152119701,0.002814243053779024,
0.12648379052369077,0.05065387223936675,
0.12653366583541148,0.019626892367302372,
0.12658354114713216,0.03446961150578814,
0.12663341645885287,0.023031550859002707,
0.12668329177057355,0.019928809455425828,
0.12673316708229426,0.053733732120991654,
0.12678304239401497,0.07312672974949459,
0.12683291770573565,0.018088765144275522,
0.12688279301745636,0.055245222687813504,
0.12693266832917705,0.032560302050264535,
0.12698254364089775,0.01723239066764099,
0.12703241895261846,0.023649697449199703,
0.12708229426433915,0.04306989302370857,
0.12713216957605986,0.013719745799856565,
0.12718204488778054,-0.00964848025070886,
0.12723192019950125,0.018653087218078443,
0.12728179551122196,0.03251350832559216,
0.12733167082294264,0.035783031635489855,
0.12738154613466335,0.019421461957717448,
0.12743142144638403,0.03069158308900046,
0.12748129675810474,0.0061103214372449435,
0.12753117206982545,0.011998936764683403,
0.12758104738154613,0.03506071084349317,
0.12763092269326684,0.044625011668932235,
0.12768079800498752,0.03643758846585153,
0.12773067331670823,0.043777098029206374,
0.1277805486284289,0.06875275871017646,
0.12783042394014962,0.033132812868166994,
0.12788029925187033,0.020538210772751305,
0.12793017456359101,0.016659508633693233,
0.12798004987531172,0.010757450198503828,
0.1280299251870324,0.025495411262764858,
0.12807980049875312,0.026546263189816628,
0.12812967581047383,0.056055788196083624,
0.1281795511221945,0.015575446828041852,
0.12822942643391522,-0.018484563207168677,
0.1282793017456359,0.029365165159433368,
0.1283291770573566,0.045372440701851376,
0.12837905236907732,0.04198004212597772,
0.128428927680798,0.0400900962720522,
0.1284788029925187,0.018597819112588666,
0.1285286783042394,0.038274009938177714,
0.1285785536159601,0.008166256824238504,
0.1286284289276808,0.017430303227038913,
0.1286783042394015,0.037426465537026984,
0.1287281795511222,0.03498199293184153,
0.12877805486284288,0.03250805706688139,
0.1288279301745636,0.011754164796293867,
0.1288778054862843,0.04147739191871072,
0.12892768079800498,0.026001757563627693,
0.1289775561097257,0.005981498256032346,
0.12902743142144638,0.019267941597031633,
0.12907730673316709,0.03350535419567571,
0.12912718204488777,-0.0016628610916370364,
0.12917705735660848,0.00818717941008707,
0.1292269326683292,0.035941762968369886,
0.12927680798004987,0.0016916295441069575,
0.12932668329177058,0.011587673373558625,
0.12937655860349126,0.020255019925136918,
0.12942643391521197,0.014148207877537733,
0.12947630922693268,0.0377960951702383,
0.12952618453865336,0.02377543524429032,
0.12957605985037407,0.009134870402095074,
0.12962593516209475,0.03930045607474198,
0.12967581047381546,0.003407590064737896,
0.12972568578553617,0.004068054472962365,
0.12977556109725685,0.0017954954009813465,
0.12982543640897756,0.003067487592568535,
0.12987531172069824,0.025722598510170953,
0.12992518703241895,0.010916229700285031,
0.12997506234413966,0.027510419609006354,
0.13002493765586035,0.04293412316042022,
0.13007481296758105,-0.0013925032104814775,
0.13012468827930174,0.0239237220357766,
0.13017456359102245,0.0001320726134622311,
0.13022443890274316,0.024205181824065017,
0.13027431421446384,0.016890803876738133,
0.13032418952618455,0.006405317605348732,
0.13037406483790523,0.024505472912319658,
0.13042394014962594,0.020467145947108602,
0.13047381546134662,0.01866756886563223,
0.13052369077306733,0.0010384769256787333,
0.13057356608478804,0.01298744805068042,
0.13062344139650872,-0.04831772376729446,
0.13067331670822943,0.012954033997746675,
0.1307231920199501,-0.007131191981395047,
0.13077306733167082,-0.009404386002678972,
0.13082294264339153,0.00268844438119594,
0.13087281795511221,0.010972657295554326,
0.13092269326683292,-0.029061690498643582,
0.1309725685785536,0.020925594995302856,
0.13102244389027431,-0.0023091063480530673,
0.13107231920199502,-0.00459004483855819,
0.1311221945137157,0.010012500529401148,
0.13117206982543642,0.002070624358247399,
0.1312219451371571,0.005546318548544114,
0.1312718204488778,0.010049463641794102,
0.13132169576059852,0.003879569673456763,
0.1313715710723192,0.027604468268288676,
0.1314214463840399,-0.0015644727527023613,
0.1314713216957606,0.007165513405990935,
0.1315211970074813,0.003616761943925059,
0.13157107231920198,0.013202675643517481,
0.1316209476309227,0.013093963502615293,
0.1316708229426434,0.0026863007678132184,
0.13172069825436408,-0.024574730684565713,
0.1317705735660848,0.018205779251189668,
0.13182044887780547,-0.028620040428504856,
0.13187032418952618,0.005330605820272545,
0.1319201995012469,-0.012193643123999858,
0.13197007481296757,-0.000487642643414611,
0.13201995012468828,0.015288559640043513,
0.13206982543640897,-0.019535978949027963,
0.13211970074812968,0.012224862790370036,
0.13216957605985039,0.02247049328748028,
0.13221945137157107,0.003614917350656881,
0.13226932668329178,-0.01345167080448017,
0.13231920199501246,-0.024699042797557514,
0.13236907730673317,-0.007797609811577652,
0.13241895261845388,-0.005084869232453301,
0.13246882793017456,-0.03160253205733112,
0.13251870324189527,0.005844166423032896,
0.13256857855361595,-0.018059128808226993,
0.13261845386533666,-0.016168201303501432,
0.13266832917705737,-0.002546084219813645,
0.13271820448877805,-0.02026412823162302,
0.13276807980049876,-0.00952648847460388,
0.13281795511221944,-0.004431782585666742,
0.13286783042394015,-0.02395587203937814,
0.13291770573566083,0.027025718483611957,
0.13296758104738154,-0.011645727443076808,
0.13301745635910225,-0.02565274347810951,
0.13306733167082294,0.012970674235129355,
0.13311720698254365,0.022650911084783967,
0.13316708229426433,0.0077095836670782875,
0.13321695760598504,-0.015368345085846629,
0.13326683291770575,-0.0035499153357002634,
0.13331670822942643,0.011451445216617333,
0.13336658354114714,0.003768682608687476,
0.13341645885286782,-0.007147792751406464,
0.13346633416458853,-0.003964639248768366,
0.13351620947630924,0.01850227557362616,
0.13356608478802992,-0.0031045418608876144,
0.13361596009975063,0.01090797652124416,
0.1336658354114713,-0.01829805813499806,
0.13371571072319202,0.0098842099765794,
0.13376558603491273,-0.00269626490934212,
0.1338154613466334,-0.010908870872958835,
0.13386533665835412,-0.016047381346496727,
0.1339152119700748,0.011925048311003899,
0.13396508728179551,-0.000325746413398836,
0.1340149625935162,0.0018602620154016813,
0.1340648379052369,-0.0076806884415583304,
0.13411471321695762,-0.037449070929332993,
0.1341645885286783,-0.006906530455603328,
0.134214463840399,-0.00016356625300135118,
0.1342643391521197,-0.04738105467176622,
0.1343142144638404,-0.0016434446342374568,
0.1343640897755611,-0.01996956039648368,
0.1344139650872818,-0.0002163241000021649,
0.1344638403990025,-0.012445935555950735,
0.13451371571072318,-0.024279799360074253,
0.1345635910224439,-0.02253827055069493,
0.1346134663341646,-0.01146271525815834,
0.13466334164588528,-0.012825302161863549,
0.134713216957606,-0.02203192140081807,
0.13476309226932667,-0.002180504604662772,
0.13481296758104738,-0.006415657744566687,
0.1348628428927681,0.028421762826251112,
0.13491271820448877,-0.036913654275696664,
0.13496259351620948,0.010067439369232664,
0.13501246882793017,-0.003504163453996476,
0.13506234413965088,-0.011860407172752968,
0.13511221945137158,0.01961976454106317,
0.13516209476309227,-0.0034908815178358987,
0.13521197007481298,-0.010717473531850725,
0.13526184538653366,-0.02286984331874027,
0.13531172069825437,0.012230295322962697,
0.13536159600997505,-0.021190577462954923,
0.13541147132169576,-0.010594612543886323,
0.13546134663341647,-0.01126712252034486,
0.13551122194513715,-0.04988730591638445,
0.13556109725685786,-0.015479278904266505,
0.13561097256857854,-0.0036875216024806505,
0.13566084788029925,0.0006489985781522201,
0.13571072319201996,-0.014912349617151774,
0.13576059850374064,-0.0048250476029395774,
0.13581047381546135,-0.03951087943517822,
0.13586034912718203,-0.011059775282338553,
0.13591022443890274,0.006872756395511197,
0.13596009975062345,-0.0060544476181787895,
0.13600997506234414,-0.019760736198783324,
0.13605985037406484,-0.006786417924915813,
0.13610972568578553,-0.008208051225592927,
0.13615960099750624,-0.005637876118414967,
0.13620947630922695,0.0036716471351594566,
0.13625935162094763,-0.01464847838157875,
0.13630922693266834,0.010690300655916226,
0.13635910224438902,0.0018667420708612884,
0.13640897755610973,-0.037340717681486946,
0.1364588528678304,0.014207909276998014,
0.13650872817955112,-0.013172468689711891,
0.13655860349127183,0.007719912459234568,
0.1366084788029925,-0.015700770099747043,
0.13665835411471322,-0.033121179751879046,
0.1367082294264339,-0.026930486279148652,
0.1367581047381546,0.02622646081615887,
0.13680798004987532,-0.017864152362470395,
0.136857855361596,-0.0320068924298731,
0.1369077306733167,0.009998164421472604,
0.1369576059850374,-0.0019419324801928217,
0.1370074812967581,0.00038447259985767077,
0.13705735660847881,-0.003761827849855596,
0.1371072319201995,-0.0109318467080274,
0.1371571072319202,-0.010979131562474995,
0.1372069825436409,0.0075776928752495695,
0.1372568578553616,-0.00391625043153451,
0.1373067331670823,-0.028840936050023573,
0.137356608478803,-0.021058328111805375,
0.1374064837905237,-0.012579986656343623,
0.13745635910224438,0.0012451682969259461,
0.1375062344139651,-0.012801417959090698,
0.1375561097256858,0.02562602090591952,
0.13760598503740648,-0.018393903578513095,
0.1376558603491272,0.010563709458120265,
0.13770573566084787,-0.005997056001415993,
0.13775561097256858,0.004784754543715384,
0.13780548628428926,-0.025470568189189767,
0.13785536159600997,0.010195298408457053,
0.13790523690773068,-0.012453429241329798,
0.13795511221945136,-0.022109256591896345,
0.13800498753117207,-0.02389948521613575,
0.13805486284289276,-0.014562219782059712,
0.13810473815461347,-0.012606578567588376,
0.13815461346633418,-0.018783858420958276,
0.13820448877805486,0.002050138874395542,
0.13825436408977557,0.0047574126685070005,
0.13830423940149625,-0.025028125936587445,
0.13835411471321696,-0.002943074931112699,
0.13840399002493767,-0.012024278059617593,
0.13845386533665835,0.006870802622981178,
0.13850374064837906,-0.009490665502517249,
0.13855361596009974,0.016070560369535268,
0.13860349127182045,0.004646829666454313,
0.13865336658354116,-0.0027474962502549386,
0.13870324189526184,-0.0017954177467383917,
0.13875311720698255,-0.0050041682117805825,
0.13880299251870323,0.0017606999552293493,
0.13885286783042394,0.003988182972477655,
0.13890274314214462,0.010557962469426327,
0.13895261845386533,-0.008358813983776869,
0.13900249376558604,0.003800819301791533,
0.13905236907730673,0.0018231158810095632,
0.13910224438902744,0.001315446782690377,
0.13915211970074812,-0.0012104695451362478,
0.13920199501246883,-0.01605691291383119,
0.13925187032418954,0.004838646105438235,
0.13930174563591022,-0.0014198944218423853,
0.13935162094763093,0.00967430767735508,
0.1394014962593516,0.026131448237025828,
0.13945137157107232,0.0004096519212441574,
0.13950124688279303,0.0019156370855539476,
0.1395511221945137,-0.020141351221383046,
0.13960099750623442,0.007730183112498573,
0.1396508728179551,-0.006844911021993775,
0.1397007481296758,-0.013354930450543371,
0.13975062344139652,0.001276616119813443,
0.1398004987531172,0.0173689776420912,
0.1398503740648379,-0.014374931749060915,
0.1399002493765586,-0.01639221866355673,
0.1399501246882793,0.009645285038472602,
0.14,-0.02473042573766902,
0.1400498753117207,0.020721824149003178,
0.1400997506234414,0.002340536868328225,
0.1401496259351621,0.0026194623601543884,
0.1401995012468828,0.0005424641468405903,
0.14024937655860348,-0.02729769978516853,
0.1402992518703242,-0.013960089207895368,
0.1403491271820449,-0.0029986962616262887,
0.14039900249376558,0.019307533955085436,
0.1404488778054863,-0.021349459028610872,
0.14049875311720697,0.004132506302783635,
0.14054862842892768,0.011483003280254185,
0.1405985037406484,0.02627450759153477,
0.14064837905236907,0.008077654526210369,
0.14069825436408978,-0.005567494436450653,
0.14074812967581046,-0.012710098556328625,
0.14079800498753117,-0.0011481477772511128,
0.14084788029925188,0.01859741441110812,
0.14089775561097256,0.021057345350202185,
0.14094763092269327,0.015728419960907514,
0.14099750623441396,0.0009562597000866077,
0.14104738154613466,0.014007608817272121,
0.14109725685785537,0.0314358763951757,
0.14114713216957606,0.00160657102543239,
0.14119700748129677,0.008580829114060017,
0.14124688279301745,0.012805939299034525,
0.14129675810473816,0.013081356892476049,
0.14134663341645887,-0.0011960139354151057,
0.14139650872817955,-0.00017348283613547767,
