time,amplitude,label
0.0,-0.006986619491590016,
4.987531172069826e-05,-0.028075015012656857,
9.975062344139652e-05,-0.010706582305469867,
0.00014962593516209475,-0.0401718886803918,
0.00019950124688279303,-7.079217459488377e-05,
0.00024937655860349125,-0.01996566766874129,
0.0002992518703241895,-0.04534224344370337,
0.00034912718204488776,-0.021948628146251817,
0.00039900249376558606,-0.022862696484598957,
0.0004488778054862843,-0.02291576443547827,
0.0004987531172069825,-0.01304731251708106,
0.0005486284289276808,-0.021501738254771925,
0.000598503740648379,-0.003961531868465174,
0.0006483790523690773,-0.012832400121288534,
0.0006982543640897755,-0.018246228105108897,
0.0007481296758104738,-0.003992741624342556,
0.0007980049875311721,0.005379910970104016,
0.0008478802992518703,-0.003115746348530509,
0.0008977556109725686,-0.0007425109730980917,
0.0009476309226932668,-0.0275679797696761,
0.000997506234413965,-0.024072602238993872,
0.0010473815461346633,0.005217286662404163,
0.0010972568578553616,0.015599810360355643,
0.00114713216957606,-0.01994153104839739,
0.001197007481296758,-0.022582947573640252,
0.0012468827930174563,-0.005252251766330305,
0.0012967581047381546,-0.023689315888120583,
0.001346633416458853,-0.006652134104977367,
0.001396508728179551,-0.01155742269531924,
0.0014463840399002493,-0.02338488912413466,
0.0014962593516209476,-0.009336063508799359,
0.001546134663341646,-0.01182777392776119,
0.0015960099750623442,0.018047345478453478,
0.0016458852867830423,0.001965798870048668,
0.0016957605985037406,-0.008364507030201532,
0.001745635910224439,-0.025268670813636117,
0.0017955112219451373,-0.036618101669040594,
0.0018453865336658353,-0.01593964870708953,
0.0018952618453865336,-0.010865828875275195,
0.001945137157107232,-0.00560212389346244,
0.00199501246882793,-0.008448272497356088,
0.0020448877805486283,-0.0517578021401625,
0.0020947630922693266,-0.0184286580778575,
0.002144638403990025,-0.021847050752386785,
0.0021945137157107233,-0.012476538460502225,
0.0022443890274314216,-0.01295659127832564,
0.00229426433915212,0.01499195759122314,
0.0023441396508728177,-0.017354491566173323,
0.002394014962593516,-0.004246996187205976,
0.0024438902743142144,-0.0033937289860256786,
0.0024937655860349127,-0.012922487218664661,
0.002543640897755611,-0.010877746000538757,
0.0025935162094763093,-0.018645964651232673,
0.0026433915211970076,0.0025106852382623494,
0.002693266832917706,0.009524838963573033,
0.002743142144638404,0.012192632886165698,
0.002793017456359102,-0.008984579892612135,
0.0028428927680798004,-0.00504289198245211,
0.0028927680798004987,-0.02899868032898617,
0.002942643391521197,-0.01047256012579189,
0.0029925187032418953,0.020423926869915444,
0.0030423940149625936,-0.019384743536939076,
0.003092269326683292,0.005608066418200649,
0.00314214463840399,-0.005467184575241809,
0.0031920199501246885,-0.004618097123579374,
0.0032418952618453864,-0.013771923465776314,
0.0032917705735660847,-0.0015307955685575458,
0.003341645885286783,-0.006317919332369926,
0.0033915211970074813,-0.013617500490678149,
0.0034413965087281796,-0.006166703169929061,
0.003491271820448878,0.011706016024651062,
0.003541147132169576,-0.005064320864862902,
0.0035910224438902745,-0.010364808882760031,
0.0036408977556109724,0.008859942285548178,
0.0036907730673316707,-0.0034251446464177854,
0.003740648379052369,-0.003700877474552305,
0.0037905236907730673,-0.015482054224631427,
0.0038403990024937656,0.01655153627950212,
0.003890274314214464,0.02016403812530442,
0.003940149625935162,-0.01666957805784606,
0.00399002493765586,0.008941754089354437,
0.004039900249376558,0.004681924202101768,
0.004089775561097257,-0.00169009435300086,
0.004139650872817955,0.009339357318946789,
0.004189526184538653,0.015152259567563907,
0.004239401496259352,0.0072065935354909474,
0.00428927680798005,0.011762297216839038,
0.004339152119700748,-0.01894456910848179,
0.0043890274314214465,0.012753284104594826,
0.004438902743142145,0.016543978884868516,
0.004488778054862843,0.009876707139519355,
0.004538653366583541,0.02219153674558859,
0.00458852867830424,0.029674234429759153,
0.004638403990024938,-0.0010391546540801412,
0.0046882793017456355,0.023435979081397516,
0.004738154613466334,-0.0024477133559341092,
0.004788029925187032,-0.006751353536129543,
0.00483790523690773,-0.013906103655370735,
0.004887780548628429,0.00870478487758855,
0.004937655860349127,0.018887293874843565,
0.004987531172069825,0.001802419880983161,
0.005037406483790524,5.33827878401727e-06,
0.005087281795511222,0.021939042866659292,
0.00513715710723192,-0.001008007388451677,
0.0051870324189526185,0.028334386357668738,
0.005236907730673317,0.004049969588303977,
0.005286783042394015,0.0216486989052089,
0.0053366583541147134,0.009205803350728674,
0.005386533665835412,0.02703455181385385,
0.00543640897755611,0.019166896718887834,
0.005486284289276808,0.017204467644450997,
0.005536159600997507,0.005166035184710567,
0.005586034912718204,0.011106761696599491,
0.005635910224438902,-0.00045793059891770065,
0.005685785536159601,0.011570753286087632,
0.005735660847880299,0.002174729357966459,
0.005785536159600997,0.02522399607377782,
0.005835411471321696,0.040001551971261706,
0.005885286783042394,0.023992586859750788,
0.005935162094763092,0.014242704405046698,
0.0059850374064837905,-0.02243510952405805,
0.006034912718204489,0.0020774192971827823,
0.006084788029925187,0.05557478337843702,
0.0061346633416458855,0.02451989941117538,
0.006184538653366584,0.020125811562290236,
0.006234413965087282,0.01203251146562239,
0.00628428927680798,0.03197819800875286,
0.006334164588528679,0.03042128637360715,
0.006384039900249377,0.05596701268579199,
0.006433915211970074,-0.005275710781861207,
0.006483790523690773,0.021571886658730888,
0.006533665835411471,0.011596603295255418,
0.006583541147132169,0.04738157659498092,
0.006633416458852868,0.04821550902466862,
0.006683291770573566,0.017492623390846392,
0.006733167082294264,0.013356636959036553,
0.0067830423940149626,0.011955743757579535,
0.006832917705735661,0.019303239938363585,
0.006882793017456359,0.0206321085283823,
0.0069326683291770575,0.02378866320760238,
0.006982543640897756,0.0009733514540803366,
0.007032418952618454,0.003750590010065927,
0.007082294264339152,0.02334699148035749,
0.007132169576059851,0.02736623266443272,
0.007182044887780549,0.03521687060208545,
0.007231920199501247,0.027647746230663045,
0.007281795511221945,0.0029613659051730724,
0.007331670822942643,0.04775622479414392,
0.007381546134663341,0.024398455200611444,
0.00743142144638404,0.006724293646264187,
0.007481296758104738,0.034260482271404887,
0.007531172069825436,0.010586025654734264,
0.007581047381546135,0.01708495043302459,
0.007630922693266833,0.038273568980349434,
0.007680798004987531,0.02993117203716734,
0.0077306733167082295,0.0179898405018744,
0.007780548628428928,0.025834456368983547,
0.007830423940149626,0.028523902158570088,
0.007880299251870324,0.0007312926259696942,
0.007930174563591023,0.029893690111816154,
0.00798004987531172,0.021127741923335604,
0.00802992518703242,0.00527325783462981,
0.008079800498753117,0.024581396093212606,
0.008129675810473816,0.03913884795413751,
0.008179551122194513,0.016502837977312043,
0.008229426433915213,0.034352885020422996,
0.00827930174563591,0.009749643824734793,
0.00832917705735661,0.017642243108670852,
0.008379052369077307,-0.004541304652398527,
0.008428927680798006,0.007075495022002399,
0.008478802992518703,0.02386657590761599,
0.0085286783042394,0.016776368884785394,
0.0085785536159601,0.05358629747477634,
0.008628428927680797,0.017167263575835468,
0.008678304239401496,0.034132915216931826,
0.008728179551122194,0.03287930018822155,
0.008778054862842893,0.05426398599581657,
0.00882793017456359,0.01277341321997885,
0.00887780548628429,0.0481584691715196,
0.008927680798004987,0.0005012448080975139,
0.008977556109725686,0.04633239323252805,
0.009027431421446384,0.03269349385609723,
0.009077306733167083,0.023894036212847115,
0.00912718204488778,-0.002804744376569631,
0.00917705735660848,0.0092808995503279,
0.009226932668329177,0.036914429910481966,
0.009276807980049876,0.006022491711738959,
0.009326683291770574,0.02177867429728199,
0.009376558603491271,0.02868585252353026,
0.00942643391521197,0.007560789554244994,
0.009476309226932668,0.03668484650347355,
0.009526184538653367,0.022983194526156082,
0.009576059850374064,-0.009927794885517961,
0.009625935162094763,0.03391017450488264,
0.00967581047381546,0.011281106748658398,
0.00972568578553616,-0.00928249635553205,
0.009775561097256857,0.018581143151142128,
0.009825436408977557,0.027848943914167416,
0.009875311720698254,-0.013597141904016716,
0.009925187032418953,0.003227830791025137,
0.00997506234413965,0.00790700174203982,
0.01002493765586035,0.002894508428318893,
0.010074812967581047,-0.016691943662017296,
0.010124688279301746,0.000401736923770029,
0.010174563591022444,0.026717776607440687,
0.010224438902743141,0.008494277354318597,
0.01027431421446384,0.0004723164473989863,
0.010324189526184538,0.04359906889409676,
0.010374064837905237,-0.006604096689358151,
0.010423940149625935,0.0036248391137692036,
0.010473815461346634,0.019672321416448278,
0.010523690773067331,0.0017853059022290632,
0.01057356608478803,0.019724259051408916,
0.010623441396508728,-0.0016114063204141008,
0.010673316708229427,0.03685401183953235,
0.010723192019950124,0.019244198477464444,
0.010773067331670824,0.004790503327401411,
0.010822942643391521,-0.004012336713810998,
0.01087281795511222,0.008245229171116019,
0.010922693266832918,0.004607250079896191,
0.010972568578553617,-0.013397628715673633,
0.011022443890274314,0.015347939126370407,
0.011072319201995013,0.012974982428375099,
0.01112219451371571,-0.012273355105153993,
0.011172069825436408,0.004470990158746512,
0.011221945137157107,0.0034113017816432313,
0.011271820448877805,0.02939052211853878,
0.011321695760598504,0.0065362373992929575,
0.011371571072319201,0.015344434408580089,
0.0114214463840399,0.024767660703442274,
0.011471321695760598,0.00485228816737888,
0.011521197007481297,0.010464125446276087,
0.011571072319201995,0.009047415071745448,
0.011620947630922694,0.005544522821843421,
0.011670822942643391,-0.0033912037922304485,
0.01172069825436409,-0.0320260855281496,
0.011770573566084788,0.0385676185474542,
0.011820448877805487,-0.01119443037932683,
0.011870324189526184,0.008247623818232554,
0.011920199501246884,0.031598834433111594,
0.011970074812967581,-0.00519218698945904,
0.012019950124688279,0.013006650692230944,
0.012069825436408978,-0.00030430066941647405,
0.012119700748129675,0.012600931608217947,
0.012169576059850374,-0.01230265264926875,
0.012219451371571072,0.003570248774573486,
0.012269326683291771,-0.001978035115501259,
0.012319201995012468,-0.01055450751537566,
0.012369077306733168,0.030059056608168534,
0.012418952618453865,-0.006703961946562859,
0.012468827930174564,0.007352882156679922,
0.012518703241895262,0.00651715038527974,
0.01256857855361596,0.012852625225159894,
0.012618453865336658,0.0028269686099432587,
0.012668329177057357,-0.005155954756656148,
0.012718204488778055,-0.0033568239748119682,
0.012768079800498754,-0.010388638760036147,
0.012817955112219451,0.0038236387437582996,
0.012867830423940149,0.041646680014920626,
0.012917705735660848,-0.030742149644456658,
0.012967581047381545,-0.012108511466546762,
0.013017456359102245,0.009863974834897168,
0.013067331670822942,0.01716817770280904,
0.013117206982543641,0.004363066385761047,
0.013167082294264339,0.014369214910691798,
0.013216957605985038,0.030574284438271863,
0.013266832917705735,0.012520223986225475,
0.013316708229426434,-0.009501107248014402,
0.013366583541147132,-0.001907642699384661,
0.013416458852867831,-0.007755139477452234,
0.013466334164588529,0.020431417778002347,
0.013516209476309228,0.012703533778946762,
0.013566084788029925,0.01145679018504596,
0.013615960099750624,0.0072024323206914456,
0.013665835411471322,0.013884355949787857,
0.01371571072319202,0.0004819327737751449,
0.013765586034912718,0.00029348228378832776,
0.013815461346633416,0.01209988391883775,
0.013865336658354115,-0.002877320675866961,
0.013915211970074812,-0.002786874998144652,
0.013965087281795512,0.006534799675267031,
0.014014962593516209,8.472199776743319e-05,
0.014064837905236908,0.0026605718499442196,
0.014114713216957606,-0.02132828317833511,
0.014164588528678305,-0.009548492473225208,
0.014214463840399002,-0.008935862381608078,
0.014264339152119701,0.009326009892637635,
0.014314214463840399,-0.013525232812722868,
0.014364089775561098,-0.008704196910684005,
0.014413965087281795,-0.024948079904201823,
0.014463840399002495,0.008276214207846426,
0.014513715710723192,0.007736128184988086,
0.01456359102244389,0.012067450435208783,
0.014613466334164589,-0.013281530224205664,
0.014663341645885286,0.0017581815530348932,
0.014713216957605985,-0.008566906962961076,
0.014763092269326683,-0.023612579923893227,
0.014812967581047382,0.011239024580524443,
0.01486284289276808,-0.022531971951836108,
0.014912718204488778,-0.01350041612708941,
0.014962593516209476,0.0002155674120372618,
0.015012468827930175,-0.02097291016194399,
0.015062344139650873,-0.006367941621362269,
0.015112219451371572,0.0021168425578426495,
0.01516209476309227,-0.03962332359138006,
0.015211970074812968,-0.008512989865051841,
0.015261845386533666,0.002768781220593597,
0.015311720698254365,-0.012856361277975965,
0.015361596009975062,-0.007955404110490387,
0.01541147132169576,-0.0191169338247117,
0.015461346633416459,-0.02179816240605106,
0.015511221945137156,-0.005237959705698813,
0.015561097256857856,-0.021719034638663502,
0.015610972568578553,-0.026995742446230327,
0.015660847880299252,0.0020923509467442973,
0.01571072319201995,0.014903371380322326,
0.015760598503740647,-0.03597903865209169,
0.015810473815461346,-0.02336290575832351,
0.015860349127182045,0.010404184473489338,
0.015910224438902745,0.014110573709063956,
0.01596009975062344,-0.026058776387338195,
0.01600997506234414,0.00047440247724132335,
0.01605985037406484,-0.017292470100978223,
0.016109725685785538,-0.0037569208065113494,
0.016159600997506234,0.020073059172579438,
0.016209476309226933,-0.038912574337808675,
0.016259351620947632,-0.00987405224184204,
0.016309226932668328,-0.009544469834924976,
0.016359102244389027,-0.00928357503386723,
0.016408977556109726,-0.02318581534404711,
0.016458852867830425,-0.004927624610728074,
0.01650872817955112,-0.011784374149514004,
0.01655860349127182,-0.05049099051534384,
0.01660847880299252,-0.015802872090808936,
0.01665835411471322,0.012521952938187992,
0.016708229426433914,-0.02139769737149248,
0.016758104738154613,-0.012513784892008526,
0.016807980049875312,-0.03400809203200306,
0.01685785536159601,-0.017767923621490142,
0.016907730673316707,-0.007738279833090635,
0.016957605985037406,-0.04601980903366113,
0.017007481296758106,-0.020622227276147268,
0.0170573566084788,-0.009346690471402217,
0.0171072319201995,-0.029967616678851366,
0.0171571072319202,0.0074638302554279855,
0.0172069825436409,0.004203645618500722,
0.017256857855361595,-0.028422576914385236,
0.017306733167082294,-0.015677811098557492,
0.017356608478802993,0.0021869520057077665,
0.017406483790523692,-0.018972080110433262,
0.017456359102244388,-0.025940851711406993,
0.017506234413965087,-0.022922903762463784,
0.017556109725685786,-0.0160128612344541,
0.017605985037406485,-0.024234767217701157,
0.01765586034912718,-0.02594347747766041,
0.01770573566084788,-0.015365309865698513,
0.01775561097256858,-0.04738529225686894,
0.01780548628428928,-0.00974174651536473,
0.017855361596009974,-0.016096525869058208,
0.017905236907730673,-0.0006181414301027026,
0.017955112219451373,-0.019082370381831037,
0.018004987531172068,-0.00548738383710724,
0.018054862842892767,-0.039388196279951326,
0.018104738154613467,-0.02540491675947852,
0.018154613466334166,-0.03706759567709052,
0.01820448877805486,-0.011549616864720613,
0.01825436408977556,-0.028919119868381506,
0.01830423940149626,-0.03798933675099969,
0.01835411471321696,-0.025642734358110108,
0.018403990024937655,-0.014094409073233845,
0.018453865336658354,-0.018916696481637848,
0.018503740648379053,0.00772177752173844,
0.018553615960099752,-0.04143669240677739,
0.018603491271820448,-0.014356167330813342,
0.018653366583541147,-0.011748455594271557,
0.018703241895261846,-0.01822272625986024,
0.018753117206982542,-0.006039681990485398,
0.01880299251870324,-0.025880757353839916,
0.01885286783042394,-0.06777630035607637,
0.01890274314214464,-0.03276857060414322,
0.018952618453865335,-0.02850748298749814,
0.019002493765586034,-0.005381954459905526,
0.019052369077306733,-0.015571714068504201,
0.019102244389027433,-0.008920963153696792,
0.01915211970074813,-0.039099878025207285,
0.019201995012468828,-0.0014007001955497651,
0.019251870324189527,-0.030751148522305274,
0.019301745635910226,0.006339855691203173,
0.01935162094763092,-0.02139097614406547,
0.01940149625935162,-0.028502300197938292,
0.01945137157107232,0.010396492916091033,
0.01950124688279302,0.008308111547817479,
0.019551122194513715,-0.014521219537637874,
0.019600997506234414,-0.014880714551341725,
0.019650872817955113,0.012133801051819906,
0.01970074812967581,-0.030680249939042198,
0.019750623441396508,-0.030537705047462914,
0.019800498753117207,-0.014900901255517516,
0.019850374064837906,-0.01270751170126604,
0.019900249376558602,-0.018781844264046575,
0.0199501246882793,-0.023732895436664105,
0.02,-0.0006096634705538805,
0.0200498753117207,-0.01493349028511327,
0.020099750623441395,0.0017662325923442287,
0.020149625935162094,-0.019321589229722852,
0.020199501246882794,-0.008300369119248738,
0.020249376558603493,-0.00777556733872799,
0.02029925187032419,-0.0028065136385415565,
0.020349127182044888,-0.018798360958117506,
0.020399002493765587,-0.0037692079068942057,
0.020448877805486283,0.016339060262095063,
0.02049875311720698,0.004921692765488794,
0.02054862842892768,-0.024506621344485422,
0.02059850374064838,-0.014608383396370517,
0.020648379052369076,-0.025495353636805315,
0.020698254364089775,0.004424273354502602,
0.020748129675810474,-0.010732217750663617,
0.020798004987531173,-0.00740500672649214,
0.02084788029925187,0.007150458861222482,
0.020897755610972568,-0.005425156518510125,
0.020947630922693267,-0.004320025847239973,
0.020997506234413967,-0.016427916852818882,
0.021047381546134662,-0.0054342827854139426,
0.02109725685785536,0.031590536892055966,
0.02114713216957606,-0.017901097218741006,
0.02119700748129676,-0.010051839730519409,
0.021246882793017455,-0.03263509591005656,
0.021296758104738155,-0.00360827058184969,
0.021346633416458854,0.0027783457890711884,
0.02139650872817955,0.0130313949036285,
0.02144638403990025,-0.03178446112768041,
0.021496259351620948,0.018661056373679805,
0.021546134663341647,-0.03462383666365895,
0.021596009975062343,0.005346351831224427,
0.021645885286783042,-0.009667316582322253,
0.02169576059850374,0.013609695937940994,
0.02174563591022444,-0.013032572732041846,
0.021795511221945136,-0.0048518681058623316,
0.021845386533665835,0.029400372432816905,
0.021895261845386534,-0.026209473872267658,
0.021945137157107233,0.011111690031611065,
0.02199501246882793,0.01345118667580572,
0.02204488778054863,0.007518771124382588,
0.022094763092269327,-0.008409855239681173,
0.022144638403990027,0.0021338079860796924,
0.022194513715710722,0.012852489709688008,
0.02224438902743142,-0.03821129590431777,
0.02229426433915212,-0.03246430600768219,
0.022344139650872816,-0.019091537156121784,
0.022394014962593516,-0.0024352143341590674,
0.022443890274314215,0.022012460763774798,
0.022493765586034914,0.004346062701528334,
0.02254364089775561,-0.02177744696331404,
0.02259351620947631,0.008568342845519352,
0.022643391521197008,-0.0027145196252788668,
0.022693266832917707,-0.020761913202952387,
0.022743142144638403,0.004242539426551336,
0.022793017456359102,-0.0055742079030770345,
0.0228428927680798,-0.008398972459678944,
0.0228927680798005,0.012778814994630771,
0.022942643391521196,-0.015411498290122538,
0.022992518703241895,-0.0031161266353954644,
0.023042394014962594,-0.006835634153939735,
0.02309226932668329,-0.03281860555633368,
0.02314214463840399,0.025287250176990284,
0.02319201995012469,-0.002604355638449668,
0.023241895261845388,-0.0003864794256924482,
0.023291770573566083,0.0060751017902002805,
0.023341645885286783,-0.010829408422222372,
0.02339152119700748,0.011749930840853106,
0.02344139650872818,0.009710488163022262,
0.023491271820448877,-0.010140000364275929,
0.023541147132169576,-0.00676838610579175,
0.023591022443890275,-0.006928835113612258,
0.023640897755610974,0.01939800642028969,
0.02369077306733167,0.0011056804357283136,
0.02374064837905237,0.035836977832160895,
0.023790523690773068,-0.005226224151068375,
0.023840399002493767,0.026033669525946136,
0.023890274314214463,-0.02671251110591854,
0.023940149625935162,0.007644011143259877,
0.02399002493765586,0.012579003308338759,
0.024039900249376557,0.005231421489162035,
0.024089775561097256,-0.0017562059602405236,
0.024139650872817955,0.012725533675438121,
0.024189526184538655,0.01434386241734197,
0.02423940149625935,0.04196180574467749,
0.02428927680798005,0.01136556301177846,
0.02433915211970075,-0.03082649540850325,
0.024389027431421448,0.015494894055944433,
0.024438902743142144,-0.00023848656308262696,
0.024488778054862843,-0.011526432926041151,
0.024538653366583542,0.015149152192238804,
0.02458852867830424,0.02868060582684774,
0.024638403990024937,0.014187041226674725,
0.024688279301745636,-0.003480448374386925,
0.024738154613466335,0.0010541247522051107,
0.02478802992518703,0.034797134570247384,
0.02483790523690773,-0.010201813438582603,
0.02488778054862843,0.009090916213690674,
0.02493765586034913,0.023612089700168884,
0.024987531172069824,0.005569530311972949,
0.025037406483790523,0.014720337706005795,
0.025087281795511222,0.013309368324611286,
0.02513715710723192,0.020488815041492497,
0.025187032418952617,0.012592503087198543,
0.025236907730673316,0.0274748904363996,
0.025286783042394016,0.031768949219312406,
0.025336658354114715,0.01036943073546591,
0.02538653366583541,-0.012942312624333608,
0.02543640897755611,0.007507521981136813,
0.02548628428927681,0.018222881960752037,
0.025536159600997508,0.006294952079525988,
0.025586034912718204,0.042813454539282286,
0.025635910224438903,0.025549762836619777,
0.025685785536159602,0.025255320361442443,
0.025735660847880298,0.0036785235053457058,
0.025785536159600997,0.023351980913513495,
0.025835411471321696,0.04111568697659629,
0.025885286783042395,-0.003335218460492166,
0.02593516209476309,-0.006743064822550868,
0.02598503740648379,0.02824997547667679,
0.02603491271820449,0.02673479110148476,
0.02608478802992519,0.02549118405408428,
0.026134663341645884,0.03916892490729461,
0.026184538653366583,0.022370621277220233,
0.026234413965087282,0.019837491576843398,
0.02628428927680798,-0.004141590236830476,
0.026334164588528677,0.029775891014137582,
0.026384039900249377,0.0007750916800043813,
0.026433915211970076,0.05269329517168323,
0.02648379052369077,0.012942310881822967,
0.02653366583541147,0.024407089333881075,
0.02658354114713217,-0.0031277221620194876,
0.02663341645885287,0.030468199740254075,
0.026683291770573565,0.0014552895549101268,
0.026733167082294264,0.019493022832243575,
0.026783042394014963,0.032815260521635206,
0.026832917705735662,0.02387809342608971,
0.026882793017456358,-0.0002714906194973554,
0.026932668329177057,0.03649324342438001,
0.026982543640897756,-0.006403078782538485,
0.027032418952618455,0.032643862674697585,
0.02708229426433915,0.018042770515451417,
0.02713216957605985,0.008999003609597002,
0.02718204488778055,0.02603538535260191,
0.02723192019950125,0.01699646606564364,
0.027281795511221944,-0.019044975732469757,
0.027331670822942643,0.002576180324715901,
0.027381546134663343,0.04771708257898736,
0.02743142144638404,0.028391041443774623,
0.027481296758104738,0.023729838754269164,
0.027531172069825437,0.011607293128523764,
0.027581047381546136,0.01849559987933827,
0.02763092269326683,0.012289665202397246,
0.02768079800498753,0.03607296474560072,
0.02773067331670823,0.028464105314356454,
0.02778054862842893,0.01908937731772045,
0.027830423940149625,0.03078885995537708,
0.027880299251870324,0.03187718073289808,
0.027930174563591023,0.018910948287508337,
0.027980049875311722,0.025720858226397955,
0.028029925187032418,0.032382111646310795,
0.028079800498753117,0.03690041186406263,
0.028129675810473816,0.029301215616578093,
0.028179551122194512,0.03134124055009285,
0.02822942643391521,0.029413416209929783,
0.02827930174563591,0.04262075403878164,
0.02832917705735661,0.046416571687403776,
0.028379052369077305,0.0004392932512970252,
0.028428927680798004,0.01151468950355014,
0.028478802992518704,0.03165840543496981,
0.028528678304239403,0.030989185095422693,
0.0285785536159601,0.016362763818058103,
0.028628428927680798,-0.001151924881956791,
0.028678304239401497,0.026769853954709398,
0.028728179551122196,0.01760940193084523,
0.02877805486284289,0.02522416453351205,
0.02882793017456359,0.015888958265658205,
0.02887780548628429,-0.005533785405963193,
0.02892768079800499,0.020755123540573395,
0.028977556109725685,0.021902532363995437,
0.029027431421446384,0.06645524284732487,
0.029077306733167083,-0.010782272322086513,
0.02912718204488778,0.01784367632168589,
0.029177057356608478,0.03123132946615747,
0.029226932668329177,0.02657528413535346,
0.029276807980049877,0.04426528303466469,
0.029326683291770572,0.017064589155622565,
0.02937655860349127,0.007993808301670955,
0.02942643391521197,0.03773336408911912,
0.02947630922693267,0.017894390150082276,
0.029526184538653365,0.020253589731173145,
0.029576059850374065,0.014833339250233248,
0.029625935162094764,0.016551040949863975,
0.029675810473815463,0.01615768018871229,
0.02972568578553616,0.016401657553143628,
0.029775561097256858,0.0016727301601712936,
0.029825436408977557,0.008227060902293451,
0.029875311720698253,0.025330121202048247,
0.029925187032418952,0.030328793098278038,
0.02997506234413965,0.0225220906010071,
0.03002493765586035,0.0151594609880817,
0.030074812967581046,0.04511998901277561,
0.030124688279301745,0.028388647789481865,
0.030174563591022444,0.002566810020549235,
0.030224438902743143,0.027834219252272273,
0.03027431421446384,0.028351372078353646,
0.03032418952618454,0.02051360121052259,
0.030374064837905237,-0.010045562592647484,
0.030423940149625937,0.010644383562629308,
0.030473815461346632,0.018830918664449404,
0.03052369077306733,0.015618888061087782,
0.03057356608478803,0.0060765426387225634,
0.03062344139650873,0.009476711363157388,
0.030673316708229426,0.019694598109442036,
0.030723192019950125,0.002067239704898822,
0.030773067331670824,0.006700082782959842,
0.03082294264339152,0.0018125916643487762,
0.03087281795511222,0.015340752513056725,
0.030922693266832918,0.02339127035922475,
0.030972568578553617,0.023197245880538318,
0.031022443890274313,0.028055803884704772,
0.031072319201995012,0.03234881015904326,
0.03112219451371571,-0.008021156484259124,
0.03117206982543641,0.007129438479143951,
0.031221945137157106,-0.00677819183338502,
0.03127182044887781,0.027099324425484256,
0.031321695760598504,0.008283065452398864,
0.0313715710723192,0.012090652649129742,
0.0314214463840399,0.018685315353685044,
0.0314713216957606,0.026139368396138344,
0.031521197007481294,0.027019870958400638,
0.031571072319202,0.020653776762709127,
0.03162094763092269,0.005420028621406541,
0.03167082294264339,0.018411904262181585,
0.03172069825436409,0.02107931272515976,
0.03177057356608479,0.001759129722413124,
0.03182044887780549,0.03423366055917483,
0.031870324189526185,0.01892927719271917,
0.03192019950124688,0.011217330368597215,
0.03197007481296758,0.011374384113099233,
0.03201995012468828,0.013309135235827791,
0.032069825436408975,0.02537329559242764,
0.03211970074812968,0.018170566295555267,
0.03216957605985037,0.0050798320256990395,
0.032219451371571076,-0.010750266559185024,
0.03226932668329177,0.008599525356145053,
0.03231920199501247,0.042161738571049254,
0.03236907730673317,-0.007057620039357778,
0.032418952618453865,-0.0027128923790146788,
0.03246882793017456,-0.0028601135624422517,
0.032518703241895264,0.0016639303259718113,
0.03256857855361596,0.007545742167631701,
0.032618453865336655,-0.015587809424090979,
0.03266832917705736,-0.01506838557340755,
0.032718204488778053,0.004283945270691648,
0.032768079800498756,0.02187161292123728,
0.03281795511221945,-0.017776464839412094,
0.03286783042394015,0.03653095819348588,
0.03291770573566085,-0.005143336423058487,
0.032967581047381546,-0.02498821344852743,
0.03301745635910224,0.007045222138392297,
0.033067331670822944,0.001512839010089662,
0.03311720698254364,0.013139871783318642,
0.03316708229426434,0.006187587146862811,
0.03321695760598504,-0.012843361335437972,
0.033266832917705734,0.005902094613586496,
0.03331670822942644,0.0304556917576614,
0.03336658354114713,0.012413191008712505,
0.03341645885286783,0.011495680905061666,
0.03346633416458853,0.010512589347821958,
0.033516209476309226,0.012885148819537031,
0.03356608478802992,-0.017018332173547233,
0.033615960099750625,0.012859412568544108,
0.03366583541147132,-0.010613984014159597,
0.03371571072319202,-0.017091854921545017,
0.03376558603491272,-0.008782020618974765,
0.033815461346633414,0.0068378934962658195,
0.03386533665835412,0.018980387935693614,
0.03391521197007481,0.019346553311827455,
0.03396508728179551,0.003439804417949064,
0.03401496259351621,-0.0157268147969861,
0.03406483790523691,-0.010117215278267956,
0.0341147132169576,0.010559544963701489,
0.034164588528678305,0.002658479178320766,
0.034214463840399,-0.017842698022111532,
0.034264339152119704,0.0024801565403062757,
0.0343142144638404,-0.023560671389411123,
0.034364089775561095,-0.001199318596937819,
0.0344139650872818,0.02149335141301497,
0.03446384039900249,-0.031352689047666624,
0.03451371571072319,-0.005719631418398378,
0.03456359102244389,-0.021241792955298915,
0.03461346633416459,-0.017250885859071335,
0.03466334164588529,-0.00911284921900827,
0.034713216957605986,-0.006830280443855105,
0.03476309226932668,-0.01289178851620271,
0.034812967581047384,0.0023419917604229692,
0.03486284289276808,-0.015820242299016844,
0.034912718204488775,-0.010101096870517133,
0.03496259351620948,-0.010660150867737138,
0.035012468827930174,-0.034569569695583224,
0.03506234413965087,-0.008625754254877426,
0.03511221945137157,-0.02201807116183522,
0.03516209476309227,-0.030020953098832,
0.03521197007481297,-0.017141795207076697,
0.035261845386533666,0.015821679914613182,
0.03531172069825436,0.018737870538332396,
0.035361596009975065,0.005243766316939414,
0.03541147132169576,-0.024562657803849287,
0.035461346633416456,0.007720629516676845,
0.03551122194513716,-0.013881746556172157,
0.035561097256857854,-0.008085540995708032,
0.03561097256857856,-0.0010664947365603746,
0.03566084788029925,-0.015021785363224235,
0.03571072319201995,0.005885789279624305,
0.03576059850374065,-0.007020341096150539,
0.03581047381546135,-0.028430990371248598,
0.03586034912718204,-0.00973932206066151,
0.035910224438902745,0.00015769501722718952,
0.03596009975062344,-0.004911810842981696,
0.036009975062344136,-0.023224265924016593,
0.03605985037406484,-0.03807134929407456,
0.036109725685785535,-0.005852928145766764,
0.03615960099750624,0.002469876713047811,
0.03620947630922693,-0.0014469582996078176,
0.03625935162094763,-0.03759070225553235,
0.03630922693266833,0.00285555915684994,
0.03635910224438903,-0.01682469932683298,
0.03640897755610972,-0.03293898997261499,
0.036458852867830426,-0.02615481800992792,
0.03650872817955112,0.008225973837138929,
0.036558603491271824,-0.029703995226081237,
0.03660847880299252,0.011696500741224924,
0.036658354114713215,0.006229873476834886,
0.03670822942643392,-0.007807342219822586,
0.036758104738154614,-0.02798879024891019,
0.03680798004987531,-0.00881565461047516,
0.03685785536159601,-0.011880554349525124,
0.03690773067331671,-0.024489188562394737,
0.0369576059850374,-0.01908107195329005,
0.037007481296758106,-0.010939242375352869,
0.0370573566084788,-0.024612212668236096,
0.037107231920199504,-0.04260203437467848,
0.0371571072319202,0.0022289673614574665,
0.037206982543640896,-0.004226990151273849,
0.0372568578553616,0.0026134524106861123,
0.037306733167082294,-9.188521776368197e-05,
0.03735660847880299,-0.0075929276947872375,
0.03740648379052369,-0.04752579047648513,
0.03745635910224439,-0.023923560027272705,
0.037506234413965084,-0.0406832237876579,
0.037556109725685786,-0.03611325660571636,
0.03760598503740648,-0.01800200840531749,
0.037655860349127185,0.011976845208316995,
0.03770573566084788,-0.01755691844180884,
0.037755610972568576,-0.00048474001426860105,
0.03780548628428928,-0.0011942841388260898,
0.037855361596009975,-0.013556630724334334,
0.03790523690773067,-0.029404747033783936,
0.03795511221945137,-0.011490121779906416,
0.03800498753117207,-0.03022349374540517,
0.03805486284289277,-0.019450979346700096,
0.03810473815461347,0.004240463286045219,
0.03815461346633416,-0.01270792606725123,
0.038204488778054865,-0.012222880173946713,
0.03825436408977556,-0.01967818738138442,
0.03830423940149626,-0.010144879429786171,
0.03835411471321696,-0.04855938936537835,
0.038403990024937655,0.00683267943720349,
0.03845386533665835,-0.029379733727140454,
0.03850374064837905,0.0061408440966058235,
0.03855361596009975,-0.013485982020247539,
0.03860349127182045,0.0022882003813647703,
0.03865336658354115,-0.02031333618193686,
0.03870324189526184,0.01407324941654281,
0.038753117206982546,-0.0326316510616798,
0.03880299251870324,-0.022132462886520845,
0.03885286783042394,-0.04601357708386332,
0.03890274314214464,-0.03276129667056264,
0.038952618453865336,-0.003175173786974477,
0.03900249376558604,-0.011160359561695329,
0.039052369077306734,-0.02117237111926136,
0.03910224438902743,-0.018051098906078318,
0.03915211970074813,-0.024553134151237832,
0.03920199501246883,-0.019991035033491894,
0.039251870324189524,-0.01855326744892684,
0.039301745635910226,-0.0002120796162806103,
0.03935162094763092,-0.01520781533738041,
0.03940149625935162,-0.008262037741201083,
0.03945137157107232,0.0153947378387318,
0.039501246882793016,-0.030303759082896918,
0.03955112219451372,0.01355438604162278,
0.039600997506234414,-0.027868748626330576,
0.03965087281795511,-0.016643228565737456,
0.03970074812967581,-0.0252923537170765,
0.03975062344139651,0.008699011397788304,
0.039800498753117204,-0.06356075068471413,
0.03985037406483791,-0.020073153507416855,
0.0399002493765586,-0.007831789765952774,
0.039950124688279305,-0.04240555432885798,
0.04,-0.028133184909274127,
0.0400498753117207,-0.03181267399304849,
0.0400997506234414,-0.018509315432877912,
0.040149625935162095,-0.00879354830407015,
0.04019950124688279,-0.0009480593925921925,
0.04024937655860349,-0.021462094574204685,
0.04029925187032419,-0.0014058760444239198,
0.040349127182044885,-0.01579710810220569,
0.04039900249376559,-0.005096690865646838,
0.04044887780548628,-0.004756727230484392,
0.040498753117206986,-0.007685976571243338,
0.04054862842892768,-0.0036364433454979094,
0.04059850374064838,0.005636153449545111,
0.04064837905236908,0.004301189898004576,
0.040698254364089775,-0.011034701133066373,
0.04074812967581047,-0.006191351069452859,
0.040798004987531174,-0.009909418426648931,
0.04084788029925187,-0.0009610492780157444,
0.040897755610972565,-0.009768614444571994,
0.04094763092269327,-0.0193998869026909,
0.04099750623441396,-0.02599844104400021,
0.041047381546134666,-0.03596178261280372,
0.04109725685785536,-0.017565953085495578,
0.04114713216957606,0.008569349249390635,
0.04119700748129676,-0.023921588506762945,
0.041246882793017456,0.0026060935899462154,
0.04129675810473815,-0.010348305898941309,
0.041346633416458854,-0.00574779675816506,
0.04139650872817955,-0.004596703432474274,
0.04144638403990025,-0.026574670785365857,
0.04149625935162095,-0.010463370033230866,
0.041546134663341644,-0.01621743141830518,
0.04159600997506235,-0.023656554101621888,
0.04164588528678304,-0.022842604720006432,
0.04169576059850374,0.0009598473173249803,
0.04174563591022444,0.013639536981582276,
0.041795511221945136,0.0037405478338131005,
0.04184538653366583,-0.015977889455149365,
0.041895261845386535,-0.01619156828498689,
0.04194513715710723,-0.033207210737038896,
0.04199501246882793,-0.019222685921235532,
0.04204488778054863,-0.0006821784182704602,
0.042094763092269324,-0.006863939382130086,
0.04214463840399003,0.003929207340008374,
0.04219451371571072,-0.004307469176442507,
0.04224438902743142,-0.014037874983576077,
0.04229426433915212,0.01572413942050044,
0.04234413965087282,-0.0032193143480456782,
0.04239401496259352,0.008956598425275408,
0.042443890274314215,0.004947831369991123,
0.04249376558603491,0.012648164911240559,
0.042543640897755614,0.02078355701567979,
0.04259351620947631,0.01020584573504138,
0.042643391521197005,0.004565745619556173,
0.04269326683291771,-0.015819593567193063,
0.0427431421446384,0.01342720258732905,
0.0427930174563591,-0.03441808382663535,
0.0428428927680798,-0.004102735068782174,
0.0428927680798005,-0.015520791735556925,
0.0429426433915212,0.009258284037950676,
0.042992518703241896,-0.002114764773240984,
0.04304239401496259,0.02309884911027073,
0.043092269326683294,0.004365762523800754,
0.04314214463840399,0.0005642662574567993,
0.043192019950124685,0.01782723250781667,
0.04324189526184539,0.007262250107724515,
0.043291770573566084,-0.02014493643917759,
0.043341645885286786,-0.0005311248937513906,
0.04339152119700748,0.01615367954046435,
0.04344139650872818,0.013398505246249671,
0.04349127182044888,0.004544219559231438,
0.043541147132169576,-0.00285223918428976,
0.04359102244389027,0.023930995206876613,
0.043640897755610975,0.010835080955213433,
0.04369077306733167,-0.01769747162666621,
0.043740648379052366,0.0025080685483638097,
0.04379052369077307,-0.016773393289060638,
0.043840399002493764,0.011438993132756453,
0.04389027431421447,0.037779497908806546,
0.04394014962593516,0.007146459814870002,
0.04399002493765586,0.019047289103246805,
0.04403990024937656,0.021697206397335102,
0.04408977556109726,0.003025139479250403,
0.04413965087281795,-0.00028089803659488675,
0.044189526184538655,0.016869376309939187,
0.04423940149625935,0.022634287841895646,
0.04428927680798005,0.004943090106590591,
0.04433915211970075,0.02452079899657434,
0.044389027431421445,-0.01164288640001791,
0.04443890274314215,-0.012495825617538084,
0.04448877805486284,-0.013799316887612602,
0.04453865336658354,0.016765628321194152,
0.04458852867830424,0.0217385064127171,
0.04463840399002494,0.016531308690971178,
0.04468827930174563,0.022245557832738107,
0.044738154613466335,0.028047752759071502,
0.04478802992518703,0.01408519225740343,
0.044837905236907734,0.011188910637865609,
0.04488778054862843,0.003412997207515667,
0.044937655860349125,0.0035983547682720413,
0.04498753117206983,-0.0023697651646369076,
0.045037406483790524,0.01180471637652706,
0.04508728179551122,0.03397680006455692,
0.04513715710723192,0.01506230760935724,
0.04518703241895262,0.03792405465419904,
0.04523690773067331,0.016280143312188,
0.045286783042394016,0.013608955497353812,
0.04533665835411471,0.01867297158314087,
0.045386533665835414,-0.016851179675345596,
0.04543640897755611,0.01216321526556913,
0.045486284289276806,0.011717009408134567,
0.04553615960099751,0.03498659090213126,
0.045586034912718204,0.014126824631364906,
0.0456359102244389,0.010674992222556634,
0.0456857855361596,0.04105669328636305,
0.0457356608478803,0.004459389544178566,
0.045785536159601,0.022556494016572795,
0.045835411471321696,0.021185987204867203,
0.04588528678304239,0.00541413234418598,
0.045935162094763095,0.013638152576404921,
0.04598503740648379,0.022710545761687195,
0.046034912718204486,0.015277095842602022,
0.04608478802992519,0.03317722410912623,
0.046134663341645885,0.014247998353739865,
0.04618453865336658,0.018719041256765847,
0.04623441396508728,0.041353720773649835,
0.04628428927680798,0.02392093562627038,
0.04633416458852868,0.02325080614131933,
0.04638403990024938,0.02377623286448215,
0.04643391521197007,0.011839262724070383,
0.046483790523690775,-0.010436792741552094,
0.04653366583541147,0.008080609343687381,
0.04658354114713217,0.04090633688704172,
0.04663341645885287,0.04599341971378233,
0.046683291770573565,0.008083341140212733,
0.04673316708229427,0.011664699588076938,
0.04678304239401496,0.024441817567403143,
0.04683291770573566,-0.004012227217002291,
0.04688279301745636,0.0074163162655140075,
0.04693266832917706,0.015783166293711286,
0.04698254364089775,0.02273445589962486,
0.047032418952618456,0.050160466178676595,
0.04708229426433915,0.0398113816188435,
0.04713216957605985,0.029339451927589737,
0.04718204488778055,0.034367251755264706,
0.047231920199501246,0.022634371726801918,
0.04728179551122195,0.018080916696345137,
0.047331670822942644,0.032313991571897016,
0.04738154613466334,-0.016702275218475983,
0.04743142144638404,0.02155589585814908,
0.04748129675810474,0.029180372418749215,
0.047531172069825434,0.024563446747408887,
0.047581047381546136,0.0193724974713225,
0.04763092269326683,0.00766064261339538,
0.047680798004987535,0.022540576161682178,
0.04773067331670823,0.023519994908852773,
0.047780548628428926,0.032860541617520674,
0.04783042394014963,0.049408189912723555,
0.047880299251870324,0.020414084318132096,
0.04793017456359102,0.015242040648979067,
0.04798004987531172,0.01383061077378669,
0.04802992518703242,0.031054930823748814,
0.048079800498753114,0.01263651177508956,
0.04812967581047382,0.02734086708698067,
0.04817955112219451,0.04887524707935449,
0.048229426433915215,0.033623556816988996,
0.04827930174563591,-0.006321537025181453,
0.048329177057356607,0.014369551573979174,
0.04837905236907731,0.03215371709182892,
0.048428927680798005,0.018917066367752176,
0.0484788029925187,0.04094871758231432,
0.0485286783042394,0.027084395089642402,
0.0485785536159601,0.010246972045341422,
0.048628428927680795,0.022793646455458123,
0.0486783042394015,0.03874353978610193,
0.04872817955112219,0.04042467003852155,
0.048778054862842896,0.033199028004288506,
0.04882793017456359,0.03644758825555248,
0.04887780548628429,0.03159923180459277,
0.04892768079800499,0.02315035781355305,
0.048977556109725685,0.022120781018385986,
0.04902743142144638,0.000533922050125854,
0.049077306733167084,0.019679045487742523,
0.04912718204488778,0.004128560176817352,
0.04917705735660848,-0.004037703903914475,
0.04922693266832918,0.023204972428795916,
0.04927680798004987,0.03368102004503064,
0.049326683291770576,0.017541693519312517,
0.04937655860349127,0.0459308569316371,
0.04942643391521197,0.029144611785745844,
0.04947630922693267,0.01714590504696481,
0.049526184538653366,0.0029752763891094172,
0.04957605985037406,0.0024102078185900856,
0.049625935162094764,0.04686937405692318,
0.04967581047381546,-0.0009764207418603461,
0.04972568578553616,-0.02366933560967836,
0.04977556109725686,-0.01413882402770101,
0.049825436408977554,0.0027795086099725967,
0.04987531172069826,0.03229081508128498,
0.04992518703241895,0.03055893606132803,
0.04997506234413965,0.028684810457585534,
0.05002493765586035,0.031179281752196433,
0.050074812967581046,0.025445876113693266,
0.05012468827930175,0.034287654164187366,
0.050174563591022445,0.02868775546445139,
0.05022443890274314,-0.008555262757228031,
0.05027431421446384,0.02291480980442306,
0.05032418952618454,0.026801668543735318,
0.050374064837905234,0.004566256330943085,
0.05042394014962594,0.023331237524153413,
0.05047381546134663,0.016977467328781415,
0.05052369077306733,0.0373739179558789,
0.05057356608478803,0.006602685797249314,
0.05062344139650873,0.013716911089917745,
0.05067331670822943,0.037355719715518126,
0.050723192019950125,0.022908369607120123,
0.05077306733167082,0.022526551093407676,
0.050822942643391524,0.03050203635528464,
0.05087281795511222,0.0015298734522116997,
0.050922693266832915,0.02364923588947144,
0.05097256857855362,0.02913321657237085,
0.05102244389027431,-0.00386769674230443,
0.051072319201995016,9.410029571586126e-06,
0.05112219451371571,0.0015178486130489818,
0.05117206982543641,0.04483628989926544,
0.05122194513715711,0.0263542382564314,
0.051271820448877806,0.010817826583931048,
0.0513216957605985,0.008396813200299443,
0.051371571072319204,-0.0004351661188313795,
0.0514214463840399,0.010370051917040869,
0.051471321695760595,0.02205474440377122,
0.0515211970074813,0.02164137330301654,
0.051571072319201994,0.017396895779494857,
0.051620947630922696,0.02731331748477214,
0.05167082294264339,0.03607619839823854,
0.05172069825436409,0.016385432789026443,
0.05177057356608479,0.005650277095655297,
0.051820448877805486,0.006128263343516625,
0.05187032418952618,0.02324929188025672,
0.051920199501246884,0.008971857362929943,
0.05197007481296758,-0.0015470346210777874,
0.052019950124688276,0.023913730978152237,
0.05206982543640898,-0.018639865252054914,
0.052119700748129674,-0.004768719737328401,
0.05216957605985038,0.007412256045961906,
0.05221945137157107,0.006813662140887698,
0.05226932668329177,0.009590835063427833,
0.05231920199501247,0.014249837311252074,
0.05236907730673317,0.025449788856204306,
0.05241895261845386,0.01185737905403192,
0.052468827930174565,0.0010258272380453109,
0.05251870324189526,0.0029760263868811275,
0.05256857855361596,0.030200753900767666,
0.05261845386533666,0.005158116488436556,
0.052668329177057355,0.021257938384892573,
0.05271820448877806,0.02003870630141457,
0.05276807980049875,0.014801485615601075,
0.05281795511221945,-0.016786922590123796,
0.05286783042394015,0.01923924437593666,
0.05291770573566085,-0.015052633505337464,
0.05296758104738154,-0.018884427394107135,
0.053017456359102245,-0.013993118553297004,
0.05306733167082294,-0.04133748466590336,
0.053117206982543644,-0.012438012722071148,
0.05316708229426434,-0.0001068703837787512,
0.053216957605985035,-0.005855253619403639,
0.05326683291770574,-0.00576488413402693,
0.053316708229426434,0.002743457748008443,
0.05336658354114713,0.020016267305891355,
0.05341645885286783,0.015698004388709497,
0.05346633416458853,-0.020109248838302035,
0.05351620947630923,-0.039361604708850556,
0.053566084788029926,-0.005493792066586407,
0.05361596009975062,-0.0167572886627261,
0.053665835411471324,0.011195533020034546,
0.05371571072319202,0.011130423981962045,
0.053765586034912716,0.01698163204942654,
0.05381546134663342,0.0021708557510787935,
0.053865336658354114,-0.0040520719389976895,
0.05391521197007481,-0.017208708878530474,
0.05396508728179551,0.0006315695132178838,
0.05401496259351621,-0.019765900071264744,
0.05406483790523691,0.0011544106786747737,
0.054114713216957606,-0.005749694851240525,
0.0541645885286783,0.0012004326878609088,
0.054214463840399005,-0.021196164192308225,
0.0542643391521197,0.005135787668998157,
0.054314214463840396,0.018639670157495673,
0.0543640897755611,-0.012255993614871619,
0.054413965087281795,-0.020378372631421945,
0.0544638403990025,-0.008287353751808743,
0.05451371571072319,-0.02777792169407785,
0.05456359102244389,-0.018584981716629846,
0.05461346633416459,-0.024934329641611908,
0.05466334164588529,-0.02080362478197061,
0.05471321695760598,-0.014950746041089726,
0.054763092269326685,-0.027600503023681208,
0.05481296758104738,0.007199326512308899,
0.05486284289276808,0.009519788637717026,
0.05491271820448878,0.002652419321567335,
0.054962593516209475,-0.005674383901438489,
0.05501246882793018,0.01111470126597593,
0.05506234413965087,-0.009040474169883203,
0.05511221945137157,-0.0005520293594606851,
0.05516209476309227,-0.008071214075289023,
0.05521197007481297,-0.032753945615667565,
0.05526184538653366,0.009470208908210334,
0.055311720698254366,-0.010193443451983327,
0.05536159600997506,0.020220740522508693,
0.05541147132169576,-0.013917555820099223,
0.05546134663341646,0.024670768394299845,
0.055511221945137156,-0.0070196293927267004,
0.05556109725685786,-0.024464416913170396,
0.055610972568578554,-0.011976066956254132,
0.05566084788029925,-0.01205415525312052,
0.05571072319201995,-0.03156874099562962,
0.05576059850374065,0.013295755329280122,
0.055810473815461344,-0.00895391222194496,
0.055860349127182046,0.00821604148469431,
0.05591022443890274,0.013569102464789207,
0.055960099750623445,-0.020480191915796052,
0.05600997506234414,-0.013235785735408135,
0.056059850374064836,0.0023299500554565308,
0.05610972568578554,-0.012204784208853358,
0.056159600997506234,-0.015455940092959482,
0.05620947630922693,-0.00791149765752983,
0.05625935162094763,-0.011668312239120154,
0.05630922693266833,-0.049417752215031856,
0.056359102244389024,0.007584738433738544,
0.05640897755610973,0.0041747088467111275,
0.05645885286783042,-0.016758331290531572,
0.056508728179551125,-6.349528456780704e-05,
0.05655860349127182,-0.027215416088773647,
0.056608478802992516,-0.01078850353382694,
0.05665835411471322,-0.0077978038197123786,
0.056708229426433915,-0.02634632237437099,
0.05675810473815461,-0.02778576428191027,
0.05680798004987531,-0.00909597887248933,
0.05685785536159601,-0.009805694257644017,
0.05690773067331671,-0.02891488249717339,
0.05695760598503741,-0.0035245287301561533,
0.0570074812967581,-0.03644908877317726,
0.057057356608478806,-0.06108877548891753,
0.0571072319201995,-0.007109266551433874,
0.0571571072319202,-0.0068928492500359845,
0.0572069825436409,-0.04368585474902741,
0.057256857855361595,-0.007360861846508154,
0.05730673316708229,-0.028387129594256155,
0.057356608478802994,-0.03248047825870444,
0.05740648379052369,-0.028211348869559696,
0.05745635910224439,-0.03182421157844391,
0.05750623441396509,-0.015282423757877844,
0.05755610972568578,-0.025886810743967523,
0.057605985037406486,0.0023209127619381615,
0.05765586034912718,-0.006126553023347256,
0.05770573566084788,-0.013256768772284027,
0.05775561097256858,-0.016927404503446725,
0.057805486284289276,-0.01088052562912392,
0.05785536159600998,-0.013792375261403093,
0.057905236907730674,-0.009850169943319873,
0.05795511221945137,-0.0015818158394839618,
0.05800498753117207,-0.004651736372368572,
0.05805486284289277,-0.011569857484396606,
0.058104738154613464,-0.036783301843640044,
0.05815461346633417,-0.003487262430024004,
0.05820448877805486,-0.009672349385440617,
0.05825436408977556,-0.016281475103081457,
0.05830423940149626,-0.011499556532897014,
0.058354114713216956,-0.03674970656251658,
0.05840399002493766,-0.017751304553604928,
0.058453865336658355,-0.014172100139088262,
0.05850374064837905,0.010483659054558784,
0.05855361596009975,-0.03722825017310188,
0.05860349127182045,-0.028536801047671097,
0.058653366583541144,-0.02892590971452111,
0.05870324189526185,-0.018805935472327593,
0.05875311720698254,0.009625596991326216,
0.05880299251870324,-0.0014598017115715657,
0.05885286783042394,-0.017364885439258113,
0.05890274314214464,-0.013521862023256625,
0.05895261845386534,-0.03792565687533835,
0.059002493765586035,-0.018557971759991177,
0.05905236907730673,-0.022676843895117673,
0.059102244389027433,-0.0215956086838802,
0.05915211970074813,-0.02666364557043957,
0.059201995012468825,-0.01550845959498683,
0.05925187032418953,-0.023278987742523124,
0.05930174563591022,-0.003967549348977176,
0.059351620947630926,-0.014476518978175583,
0.05940149625935162,0.00034339330770456755,
0.05945137157107232,0.014747322900860685,
0.05950124688279302,-0.0071027761871539155,
0.059551122194513716,-0.019497212152211136,
0.05960099750623441,-0.0056816855780041225,
0.059650872817955114,-0.03433814819800547,
0.05970074812967581,-0.022729768513428478,
0.059750623441396505,-0.02447896926248183,
0.05980049875311721,-0.03609507280546287,
0.059850374064837904,-0.018951169687434315,
0.059900249376558606,-0.007267787946545457,
0.0599501246882793,0.0023746261748801983,
0.06,-0.017179526879005435,
0.0600498753117207,0.004097752151515874,
0.060099750623441396,-0.0023105474037933213,
0.06014962593516209,0.006387578638377772,
0.060199501246882794,-0.003065035365784955,
0.06024937655860349,-0.02462368519952954,
0.06029925187032419,-0.026228594111106368,
0.06034912718204489,-0.00861549634444675,
0.060399002493765584,-0.0002619451341122677,
0.06044887780548629,-0.021731638152975276,
0.06049875311720698,0.010782590825094593,
0.06054862842892768,0.0014110043979905923,
0.06059850374064838,-0.01374732922552294,
0.06064837905236908,-0.030388342802805095,
0.06069825436408977,-0.008335626544479629,
0.060748129675810475,0.005999393820055418,
0.06079800498753117,-0.014328742422016719,
0.06084788029925187,0.008145428427933908,
0.06089775561097257,-0.012430286396373797,
0.060947630922693265,-0.0023077270338551182,
0.06099750623441397,-0.019079629639756616,
0.06104738154613466,-0.018747401941408684,
0.06109725685785536,0.001319326138276046,
0.06114713216957606,0.01672914803010506,
0.06119700748129676,-0.007678992936447852,
0.06124688279301746,-0.01882094247048364,
0.061296758104738155,0.017580936985266672,
0.06134663341645885,0.009594630953952576,
0.061396508728179554,-0.008439936704668598,
0.06144638403990025,-0.011986465290265437,
0.061496259351620945,-0.013240710671412408,
0.06154613466334165,0.017281310955312018,
0.061596009975062344,-0.010918134193108647,
0.06164588528678304,0.001824062852130273,
0.06169576059850374,0.011746312873099659,
0.06174563591022444,-0.03374232319249628,
0.06179551122194514,-0.01637597413142877,
0.061845386533665836,-0.02239087972928129,
0.06189526184538653,0.00916118334198868,
0.061945137157107234,0.002033942283378838,
0.06199501246882793,0.015155699878222927,
0.062044887780548626,-0.009230124366085049,
0.06209476309226933,0.007061415308226382,
0.062144638403990024,-0.009859861634123055,
0.06219451371571072,-0.0065309365483463356,
0.06224438902743142,0.006836963795104724,
0.06229426433915212,-0.009809476078816208,
0.06234413965087282,-0.0020903567673634703,
0.062394014962593516,-0.016823532101363857,
0.06244389027431421,-0.006388776512090656,
0.062493765586034915,-0.0025754255493792523,
0.06254364089775562,-0.01172907457277176,
0.06259351620947631,0.007422637066476601,
0.06264339152119701,0.0185705974805582,
0.0626932668329177,0.013984870245946874,
0.0627431421446384,-0.01222599333005226,
0.0627930174563591,-0.021130137949011515,
0.0628428927680798,-0.01584206470582027,
0.0628927680798005,0.02256219423565059,
0.0629426433915212,0.008762404421778633,
0.06299251870324189,0.009315922690502049,
0.06304239401496259,0.03429499189058823,
0.0630922693266833,0.00350854544240362,
0.063142144638404,0.021919233899181555,
0.06319201995012469,0.016277479403375553,
0.06324189526184539,0.01226669589118163,
0.06329177057356608,0.012696760470191009,
0.06334164588528678,0.024307696972701142,
0.06339152119700749,0.019138297965572128,
0.06344139650872818,0.008974924034441577,
0.06349127182044888,0.010078373367327666,
0.06354114713216957,0.017027863294063698,
0.06359102244389027,0.029360620366904983,
0.06364089775561098,0.024379188711330702,
0.06369077306733167,0.029760845323460648,
0.06374064837905237,-0.005414202091469386,
0.06379052369077307,0.020374501827665988,
0.06384039900249376,0.03298794426821863,
0.06389027431421446,-0.02114894145036577,
0.06394014962593517,0.0142269050131423,
0.06399002493765586,0.004491815434590486,
0.06403990024937656,-0.02565399979526096,
0.06408977556109725,0.012961808674846835,
0.06413965087281795,0.006311979848758247,
0.06418952618453866,-0.018933041045559602,
0.06423940149625935,0.018588952987362947,
0.06428927680798005,0.044503997716418026,
0.06433915211970075,0.02416869413505112,
0.06438902743142144,0.005736652183610157,
0.06443890274314215,0.013707014589498408,
0.06448877805486285,0.019078654423302373,
0.06453865336658354,-0.0006083921890651066,
0.06458852867830424,0.03113969536493357,
0.06463840399002493,-0.009970885996735271,
0.06468827930174563,0.03535730546944431,
0.06473815461346634,0.007041759495165991,
0.06478802992518704,0.024802219970724328,
0.06483790523690773,0.01871798180810306,
0.06488778054862843,0.015949318711251013,
0.06493765586034912,0.03567524467767506,
0.06498753117206983,-0.031887661671592266,
0.06503740648379053,0.04300049485833901,
0.06508728179551122,0.01892527149427696,
0.06513715710723192,0.025590624765900058,
0.06518703241895261,0.009393229376800354,
0.06523690773067331,0.01031950354888499,
0.06528678304239402,0.026482800950615566,
0.06533665835411472,0.009962055300610157,
0.06538653366583541,0.025566864634837053,
0.06543640897755611,0.031322227548198314,
0.0654862842892768,0.03028286638232115,
0.06553615960099751,0.024310401784289407,
0.06558603491271821,0.0007662033143511285,
0.0656359102244389,0.029323509554593646,
0.0656857855361596,0.033859503518094816,
0.0657356608478803,-0.008688824056728425,
0.06578553615960099,0.04011638273958856,
0.0658354114713217,0.012580466295971648,
0.0658852867830424,0.012674424585256132,
0.06593516209476309,0.025526240778099108,
0.06598503740648379,0.015637210226205,
0.06603491271820448,0.01965629177622019,
0.06608478802992519,0.02701763842801072,
0.06613466334164589,0.020880792764249017,
0.06618453865336658,0.041006360138215216,
0.06623441396508728,0.029118078899159242,
0.06628428927680798,0.0025767236593342638,
0.06633416458852869,0.06409183024515205,
0.06638403990024938,0.031233718310822355,
0.06643391521197008,0.060688307104748374,
0.06648379052369077,0.020009540216948084,
0.06653366583541147,0.01684754439239482,
0.06658354114713216,0.024572925111593792,
0.06663341645885287,0.024557874508582562,
0.06668329177057357,0.025815429234130376,
0.06673316708229426,0.02757964728739916,
0.06678304239401496,0.008540624813472302,
0.06683291770573566,0.030154102200130786,
0.06688279301745637,0.011822980493663279,
0.06693266832917706,0.02555171408777525,
0.06698254364089776,-0.0072012949813664365,
0.06703241895261845,0.021586169687415214,
0.06708229426433915,0.04192728070468853,
0.06713216957605984,0.019331215801388735,
0.06718204488778055,0.05685007461145246,
0.06723192019950125,-0.024182962139444795,
0.06728179551122195,0.03201058776082058,
0.06733167082294264,0.018183569946288426,
0.06738154613466334,0.015884752378104314,
0.06743142144638405,0.022375449574499995,
0.06748129675810474,0.044113639526878,
0.06753117206982544,0.03762638999755004,
0.06758104738154613,0.009754341035355924,
0.06763092269326683,0.04189854788089499,
0.06768079800498752,0.03427594592479487,
0.06773067331670823,0.008003516369780674,
0.06778054862842893,0.012762437181994862,
0.06783042394014963,0.003467265889752283,
0.06788029925187032,0.012589725628964385,
0.06793017456359102,0.010324265224588066,
0.06798004987531173,0.0608806948122457,
0.06802992518703242,0.012925011987807187,
0.06807980049875312,0.015474999010186402,
0.06812967581047381,0.026889816839847893,
0.06817955112219451,-0.00010528833977940452,
0.0682294264339152,0.02856568265789534,
0.06827930174563591,0.03994627313907084,
0.06832917705735661,0.025086130596344642,
0.0683790523690773,0.017884737477995346,
0.068428927680798,0.0346393575202449,
0.0684788029925187,0.024723795722914506,
0.06852867830423941,0.014741150595808043,
0.0685785536159601,0.020158390262024383,
0.0686284289276808,0.04939700342814952,
0.0686783042394015,0.04067695662392819,
0.06872817955112219,0.04403882190641435,
0.0687780548628429,0.02668018091199591,
0.0688279301745636,0.025224269613980804,
0.06887780548628429,0.007550393792267497,
0.06892768079800499,0.021387387531123656,
0.06897755610972568,0.0016956014973818143,
0.06902743142144638,0.031602541142323706,
0.06907730673316709,0.016770548327479137,
0.06912718204488778,0.01667626160105232,
0.06917705735660848,0.026209207713884596,
0.06922693266832917,0.01498409734222794,
0.06927680798004987,0.017972563131103098,
0.06932668329177058,0.009772707315390384,
0.06937655860349128,0.04342498815378973,
0.06942643391521197,0.006062241271739644,
0.06947630922693267,0.015533809550196285,
0.06952618453865336,0.01424925229039952,
0.06957605985037406,0.0068956786417673915,
0.06962593516209477,0.009195557914562126,
0.06967581047381546,0.013641725991022709,
0.06972568578553616,0.006525291781169982,
0.06977556109725686,0.055201256152684765,
0.06982543640897755,0.006307221973175528,
0.06987531172069826,0.005733489089191916,
0.06992518703241896,0.053616504839653314,
0.06997506234413965,0.015437468584693876,
0.07002493765586035,0.023781444918555206,
0.07007481296758104,0.012879504893547566,
0.07012468827930174,0.0313414977577825,
0.07017456359102245,0.05464882004744792,
0.07022443890274314,-0.0038808870377316576,
0.07027431421446384,0.01776383342736092,
0.07032418952618454,0.01936279809714025,
0.07037406483790523,0.020728974480372947,
0.07042394014962594,0.015292279916004231,
0.07047381546134664,0.02333641882807403,
0.07052369077306733,0.044869846590178626,
0.07057356608478803,0.024889563680934087,
0.07062344139650872,0.018021435225444787,
0.07067331670822943,0.039813447520948037,
0.07072319201995013,0.04248746262667087,
0.07077306733167082,0.0031528420457773675,
0.07082294264339152,0.01716302394282227,
0.07087281795511222,0.03927299227530534,
0.07092269326683291,0.02291596951333297,
0.07097256857855362,0.0020954165493642686,
0.07102244389027432,0.004824530904691803,
0.07107231920199501,0.008613288154621944,
0.07112219451371571,0.017060104288681537,
0.0711720698254364,0.036261106448126454,
0.07122194513715711,-0.007224181241229699,
0.07127182044887781,0.008707863359441292,
0.0713216957605985,0.02801763721310343,
0.0713715710723192,0.029406384424254917,
0.0714214463840399,0.017393889632217788,
0.07147132169576059,0.029085746868902317,
0.0715211970074813,-0.012904483639351507,
0.071571072319202,0.020375712495330784,
0.0716209476309227,0.04296444371419796,
0.07167082294264339,-0.0023678761431026735,
0.07172069825436408,0.02086560190383161,
0.0717705735660848,0.01896228212450912,
0.07182044887780549,0.024970057982486915,
0.07187032418952619,0.010015283886837806,
0.07192019950124688,0.022750726112908657,
0.07197007481296758,0.009504199234546646,
0.07201995012468827,-0.0002936729971862468,
0.07206982543640898,0.0220806018783129,
0.07211970074812968,-0.0009077710082614418,
0.07216957605985037,0.02790108060338177,
0.07221945137157107,0.03493863694146526,
0.07226932668329177,0.012690727835810583,
0.07231920199501247,0.006546791993429248,
0.07236907730673317,0.008666200297477765,
0.07241895261845387,0.024330174718239832,
0.07246882793017456,0.03848653550524949,
0.07251870324189526,-0.0035498830080661,
0.07256857855361595,0.011026917464878253,
0.07261845386533666,0.035613897942695205,
0.07266832917705736,0.018523816757932722,
0.07271820448877805,0.01893519154820834,
0.07276807980049875,0.009292726271258699,
0.07281795511221945,0.024808179708196466,
0.07286783042394016,0.020392324860254364,
0.07291770573566085,0.03164462031957732,
0.07296758104738155,0.01351351451911122,
0.07301745635910224,0.003988715776878463,
0.07306733167082294,0.01180755129060764,
0.07311720698254365,-0.006232511154338908,
0.07316708229426434,0.0002033538487056421,
0.07321695760598504,0.00037820789120816475,
0.07326683291770573,0.030635583213695916,
0.07331670822942643,0.03271288418422302,
0.07336658354114713,0.006244621657110761,
0.07341645885286784,0.0032349956280811887,
0.07346633416458853,-0.0016801829488437116,
0.07351620947630923,0.028381027569157457,
0.07356608478802992,0.011091336877132686,
0.07361596009975062,-0.015733329187364798,
0.07366583541147133,0.012098032551725306,
0.07371571072319202,-0.012504877471518357,
0.07376558603491272,-0.008712710363326784,
0.07381546134663342,0.03127622384209507,
0.07386533665835411,0.007035419618756588,
0.0739152119700748,0.009843804669061958,
0.07396508728179552,0.025565845573537305,
0.07401496259351621,0.018145080516505607,
0.07406483790523691,0.01350775520406551,
0.0741147132169576,-0.009759648727653648,
0.0741645885286783,-0.0029688485596974425,
0.07421446384039901,0.02041167944381111,
0.0742643391521197,0.01353343291641873,
0.0743142144638404,-0.0004366246198949104,
0.0743640897755611,-0.0051950911736942315,
0.07441396508728179,0.04132928820860669,
0.07446384039900249,-0.025261333948487855,
0.0745137157107232,0.0019549244298981885,
0.07456359102244389,0.01798239409875374,
0.07461346633416459,0.02161981127040508,
0.07466334164588528,0.010177393244726727,
0.07471321695760598,0.028325069538423717,
0.07476309226932669,-0.005043606531035928,
0.07481296758104738,0.0036130312123213723,
0.07486284289276808,-0.0048104903257962595,
0.07491271820448878,0.0028285429109035625,
0.07496259351620947,-0.02348584545248703,
0.07501246882793017,-0.03049552842315792,
0.07506234413965088,-0.01991121708855305,
0.07511221945137157,-0.013186769358993301,
0.07516209476309227,-0.008494794665777195,
0.07521197007481296,0.023642149544047097,
0.07526184538653366,-0.0049477006945307204,
0.07531172069825437,0.005386553532979101,
0.07536159600997507,-0.008249801051939976,
0.07541147132169576,-0.014213128585254342,
0.07546134663341646,-0.013278782647164675,
0.07551122194513715,0.013820980581744326,
0.07556109725685786,-0.019623495961783817,
0.07561097256857856,0.026811149345405856,
0.07566084788029925,-0.005812460263035861,
0.07571072319201995,-0.005266926521726594,
0.07576059850374064,-0.003973100378108934,
0.07581047381546134,-0.02760333683346003,
0.07586034912718205,0.016371854401039745,
0.07591022443890275,-0.015237915012429274,
0.07596009975062344,0.019706077682119703,
0.07600997506234414,-0.02412585330677714,
0.07605985037406483,-0.010541134956163191,
0.07610972568578554,-0.0032350358134956942,
0.07615960099750624,-0.007044037846626621,
0.07620947630922693,-0.026061087673368795,
0.07625935162094763,-0.01784975505842044,
0.07630922693266833,-0.04071695676858958,
0.07635910224438902,-0.015662335207839394,
0.07640897755610973,-0.04165192364342008,
0.07645885286783043,0.007274886958919299,
0.07650872817955112,-0.0007313754848185926,
0.07655860349127182,0.0052655117287672935,
0.07660847880299251,-0.0009305277223475711,
0.07665835411471322,-0.0033961390520662917,
0.07670822942643392,-0.02397461855886852,
0.07675810473815461,-0.020733951915673336,
0.07680798004987531,-0.009637886555802033,
0.076857855361596,-0.0011733352624443746,
0.0769077306733167,0.00921101929938116,
0.07695760598503741,-0.00900813340970519,
0.0770074812967581,-0.014227851642830337,
0.0770573566084788,-0.026474496544314153,
0.0771072319201995,-0.018810052529492062,
0.0771571072319202,-0.029029465007996417,
0.0772069825436409,-0.020450170509510625,
0.0772568578553616,-0.009993158861781492,
0.0773067331670823,-0.007705508625636889,
0.07735660847880299,-0.0311506065253837,
0.07740648379052369,-0.01613968818072229,
0.0774563591022444,-0.04383879602066183,
0.07750623441396509,0.0093242798042606,
0.07755610972568579,0.021577274464819628,
0.07760598503740648,-0.012509623098029145,
0.07765586034912718,-0.0184589496632074,
0.07770573566084787,-0.01614659695802496,
0.07775561097256858,-0.003042130205105978,
0.07780548628428928,0.001492733549319239,
0.07785536159600998,-0.019352392816900432,
0.07790523690773067,-0.04614070854441177,
0.07795511221945137,-0.023128523082548605,
0.07800498753117208,-0.0038840169733868352,
0.07805486284289277,0.014815809708752046,
0.07810473815461347,-0.04534041418053586,
0.07815461346633416,-0.013388840819666922,
0.07820448877805486,-0.019579004000529327,
0.07825436408977555,0.01218263504623063,
0.07830423940149626,-0.019451292843249344,
0.07835411471321696,-0.006083655342176425,
0.07840399002493766,-0.02134078713427177,
0.07845386533665835,-0.024221399331211476,
0.07850374064837905,0.01851951126352839,
0.07855361596009976,-0.019132134929012,
0.07860349127182045,-0.02041347441543527,
0.07865336658354115,0.0019614309571512334,
0.07870324189526184,-0.013357899056256537,
0.07875311720698254,-0.015579709989454496,
0.07880299251870324,0.008239827927534487,
0.07885286783042394,-0.020500126335118187,
0.07890274314214464,-0.025144135426193613,
0.07895261845386534,-0.017014773762650988,
0.07900249376558603,0.0203132230594327,
0.07905236907730673,-0.021928074635076344,
0.07910224438902744,-0.02036192132283505,
0.07915211970074813,0.008374067464622903,
0.07920199501246883,-0.0029656367071908187,
0.07925187032418952,-0.027882566105142968,
0.07930174563591022,-0.0035453776800401446,
0.07935162094763092,0.003309706682247303,
0.07940149625935163,-0.01959796946036962,
0.07945137157107232,0.000928305550151302,
0.07950124688279302,-0.022046791073699175,
0.07955112219451371,-0.003351159755151531,
0.07960099750623441,-0.007658384577279406,
0.07965087281795512,-0.02853967500522981,
0.07970074812967581,-0.008722344497036589,
0.07975062344139651,-0.01146973984812477,
0.0798004987531172,-0.011812699168713258,
0.0798503740648379,-0.03283401408087211,
0.07990024937655861,-0.005723801320324338,
0.0799501246882793,-0.010126161009215609,
0.08,-0.006227119854986363,
0.0800498753117207,0.009057919403896511,
0.0800997506234414,-0.014632782892870996,
0.08014962593516209,-0.029123714662096588,
0.0801995012468828,0.0183102309050586,
0.0802493765586035,-0.031474853130977073,
0.08029925187032419,-0.039125328895028864,
0.08034912718204489,-0.006788557271368638,
0.08039900249376558,-0.0016236069739967544,
0.08044887780548629,6.43944248758712e-05,
0.08049875311720699,-0.004698098903881483,
0.08054862842892768,-0.022270955893597323,
0.08059850374064838,-0.014220634387641654,
0.08064837905236907,-0.014606801999478822,
0.08069825436408977,-0.024261162472815102,
0.08074812967581048,0.0036442566025493284,
0.08079800498753117,-0.002762085771104087,
0.08084788029925187,0.013085883206805147,
0.08089775561097257,0.013495734214515193,
0.08094763092269326,-0.01651660714356143,
0.08099750623441397,0.029666776055682943,
0.08104738154613467,-0.021467197038273322,
0.08109725685785536,-0.015436669136122662,
0.08114713216957606,-0.019724423844599232,
0.08119700748129675,0.017806442595011483,
0.08124688279301745,0.011055019263507979,
0.08129675810473816,-0.01700948481117633,
0.08134663341645886,0.006357995075918702,
0.08139650872817955,-0.019313904902542187,
0.08144638403990025,0.01695922491779174,
0.08149625935162094,-7.650482091553935e-05,
0.08154613466334165,0.02822134991166461,
0.08159600997506235,0.01593534798101477,
0.08164588528678304,-0.0006662241936483274,
0.08169576059850374,0.016224110760999902,
0.08174563591022443,-0.01723248201731686,
0.08179551122194513,-0.0010365012893339765,
0.08184538653366584,-0.005427417211014753,
0.08189526184538654,-0.0037518609993352683,
0.08194513715710723,-0.014522832664990468,
0.08199501246882793,-0.006211311529466752,
0.08204488778054862,-0.01630768049637934,
0.08209476309226933,0.010362283824969273,
0.08214463840399003,-0.015497638979356654,
0.08219451371571072,0.007729617918230643,
0.08224438902743142,-0.004797622289303044,
0.08229426433915212,0.005938949028058852,
0.08234413965087282,0.0066649570193213345,
0.08239401496259352,0.02691333354997779,
0.08244389027431422,-0.016083197046521693,
0.08249376558603491,-0.0365422945808769,
0.08254364089775561,-0.0048210106431803845,
0.0825935162094763,-0.011128839659695262,
0.08264339152119701,-0.029952006140560403,
0.08269326683291771,-0.0009364986127275636,
0.0827431421446384,0.0009658810910036764,
0.0827930174563591,0.011542344517363207,
0.0828428927680798,0.018153226804703368,
0.0828927680798005,-0.005561199427244343,
0.0829426433915212,0.03653794454168233,
0.0829925187032419,-0.020058715689920882,
0.08304239401496259,-0.014575139273722353,
0.08309226932668329,-0.017283130049189417,
0.08314214463840398,0.002939514271663969,
0.0831920199501247,-0.0022589211431383698,
0.08324189526184539,-0.01294148516691955,
0.08329177057356608,-0.0010976448507536455,
0.08334164588528678,0.00033057416908556167,
0.08339152119700748,-0.010947334110918888,
0.08344139650872819,0.026955886134287545,
0.08349127182044888,-0.0062645465751896045,
0.08354114713216958,0.013157029317315527,
0.08359102244389027,-0.005331543970590331,
0.08364089775561097,0.007226065528028687,
0.08369077306733166,0.018547536217537297,
0.08374064837905237,0.014527247602070352,
0.08379052369077307,0.014616807481834531,
0.08384039900249377,0.012030726877270402,
0.08389027431421446,0.008281769609770784,
0.08394014962593516,-0.011301943313388931,
0.08399002493765587,0.01497299162748518,
0.08403990024937656,0.017694750674497488,
0.08408977556109726,0.01582568486831913,
0.08413965087281795,0.009961293772476737,
0.08418952618453865,0.04292447099062893,
0.08423940149625936,0.005496818318876201,
0.08428927680798005,-0.0032525987774962885,
0.08433915211970075,0.02181324244282036,
0.08438902743142145,-0.003127808464465096,
0.08443890274314214,0.013363685831630185,
0.08448877805486284,-0.004389851296544572,
0.08453865336658355,0.018610475257854593,
0.08458852867830424,0.04461577041150501,
0.08463840399002494,0.02431407554401293,
0.08468827930174563,-0.01899502105379394,
0.08473815461346633,0.023427470629948433,
0.08478802992518704,0.003664534659510308,
0.08483790523690773,0.009256987190668833,
0.08488778054862843,-0.001927596307397833,
0.08493765586034913,0.019730024097526642,
0.08498753117206982,0.037746867768270825,
0.08503740648379052,0.018924624074262625,
0.08508728179551123,0.023331492595177406,
0.08513715710723192,0.01516257315927821,
0.08518703241895262,0.020430027649720024,
0.08523690773067331,0.035720099562302,
0.08528678304239401,0.028801922424615482,
0.08533665835411472,0.017609318398155327,
0.08538653366583542,0.025414921278755984,
0.08543640897755611,0.02027443985721286,
0.0854862842892768,0.04991033577871902,
0.0855361596009975,0.025764969598212,
0.0855860349127182,0.03171660993172408,
0.08563591022443891,0.010853447797809859,
0.0856857855361596,0.03166724176806332,
0.0857356608478803,0.0016050012271029805,
0.085785536159601,0.022630277002577328,
0.08583541147132169,0.026752012538392538,
0.0858852867830424,0.0303475861943179,
0.0859351620947631,0.017420901378205747,
0.08598503740648379,0.04227005674047914,
0.08603491271820449,0.031200049224111383,
0.08608478802992518,0.002008479995501272,
0.08613466334164588,0.023946139546288592,
0.08618453865336659,0.028547558246845822,
0.08623441396508728,0.024331324101060883,
0.08628428927680798,0.03844231002731473,
0.08633416458852868,0.002200838139439918,
0.08638403990024937,0.03657080034698016,
0.08643391521197008,0.013780752105685896,
0.08648379052369078,0.032678825367907005,
0.08653366583541147,0.010731610944418558,
0.08658354114713217,0.021905875616357668,
0.08663341645885286,0.009724013668710434,
0.08668329177057357,0.019222743551085848,
0.08673316708229427,-0.0020372137659405085,
0.08678304239401496,-0.007385740233575584,
0.08683291770573566,0.027215172497210224,
0.08688279301745636,0.03911149950186771,
0.08693266832917705,0.013305429857346542,
0.08698254364089776,0.03154070293162639,
0.08703241895261846,0.03312504394723914,
0.08708229426433915,0.034613712047542336,
0.08713216957605985,0.03907434451652485,
0.08718204488778054,0.05252920139788836,
0.08723192019950125,0.01422210382859697,
0.08728179551122195,0.021746156334824122,
0.08733167082294264,0.02022380511419878,
0.08738154613466334,0.05690179335539099,
0.08743142144638404,0.03358865884299673,
0.08748129675810473,0.0117118856032738,
0.08753117206982544,0.03878814102147307,
0.08758104738154614,0.025815909014497568,
0.08763092269326683,0.0414259008694132,
0.08768079800498753,0.038180635003725885,
0.08773067331670822,0.043698101061110856,
0.08778054862842893,0.05951316421451369,
0.08783042394014963,0.039378835161350906,
0.08788029925187033,0.046545879192834524,
0.08793017456359102,0.0228896747771384,
0.08798004987531172,0.021701241829174205,
0.08802992518703241,0.028612192973382404,
0.08807980049875312,0.03023231727931707,
0.08812967581047382,0.0539664123790511,
0.08817955112219451,0.03671651094026747,
0.08822942643391521,0.012028084676300165,
0.0882793017456359,0.0173362445965907,
0.08832917705735661,0.018293361816078033,
0.08837905236907731,0.027230321021042444,
0.088428927680798,0.03602601361954664,
0.0884788029925187,0.03568823342720829,
0.0885286783042394,0.017654067134593623,
0.0885785536159601,0.041849410308412896,
0.0886284289276808,0.018433920170366033,
0.0886783042394015,0.03163485753111537,
0.0887281795511222,0.03814721917914752,
0.08877805486284289,0.02187932567236807,
0.08882793017456359,0.023555705218258033,
0.0888778054862843,0.036956294110282985,
0.08892768079800499,0.019000476748591642,
0.08897755610972569,0.05355599343169287,
0.08902743142144638,0.005931826022498841,
0.08907730673316708,0.038553546506096395,
0.08912718204488779,0.010366488458577957,
0.08917705735660848,0.0465666733109701,
0.08922693266832918,-0.0020982398180155494,
0.08927680798004987,0.014045496643412423,
0.08932668329177057,0.05067513185038248,
0.08937655860349127,0.021099313425693694,
0.08942643391521198,0.022392241260650984,
0.08947630922693267,0.03147388979675499,
0.08952618453865337,0.04157393909238513,
0.08957605985037406,0.03502363161170292,
0.08962593516209476,0.01017611827535994,
0.08967581047381547,0.013630256943592458,
0.08972568578553616,0.027934260443733344,
0.08977556109725686,0.01704449297960367,
0.08982543640897755,0.030583110064472133,
0.08987531172069825,0.012648865412833929,
0.08992518703241895,0.02051367311754573,
0.08997506234413966,-0.00525949078660088,
0.09002493765586035,0.051679115756376626,
0.09007481296758105,0.036723161055723735,
0.09012468827930174,0.006214447742923963,
0.09017456359102244,0.011959839843854982,
0.09022443890274315,0.035633602293133546,
0.09027431421446384,0.020534756448084602,
0.09032418952618454,0.014018183166197311,
0.09037406483790524,0.027451951926024273,
0.09042394014962593,0.011219322875820559,
0.09047381546134663,0.001030896446414211,
0.09052369077306734,0.04632823215166254,
0.09057356608478803,0.026097048373354158,
0.09062344139650873,0.025315599239789252,
0.09067331670822942,0.00020776793330553808,
0.09072319201995012,0.036039321843227196,
0.09077306733167083,0.003411721276344485,
0.09082294264339152,0.014339213556064151,
0.09087281795511222,0.029642413123938324,
0.09092269326683292,-0.0047339806916604325,
0.09097256857855361,0.055255810037655145,
0.09102244389027432,0.027683803814075626,
0.09107231920199502,0.006394136912326076,
0.09112219451371571,0.017109427983779235,
0.09117206982543641,0.016432137164479475,
0.0912219451371571,0.014587869341928829,
0.0912718204488778,0.011342356031131977,
0.09132169576059851,0.013446000486725049,
0.0913715710723192,0.030478228260460892,
0.0914214463840399,0.020170150910933656,
0.0914713216957606,0.001968239615407161,
0.09152119700748129,0.033043408729736407,
0.091571072319202,0.04582268710867633,
0.0916209476309227,0.014966557515579364,
0.09167082294264339,0.025181044180499615,
0.09172069825436409,-0.00886128175606831,
0.09177057356608478,0.036243635886238953,
0.09182044887780548,0.014332182769289025,
0.09187032418952619,0.01613461801082295,
0.09192019950124689,0.0388301621349412,
0.09197007481296758,0.04537721357193693,
0.09201995012468828,-0.0014116674025334355,
0.09206982543640897,0.028290317660540923,
0.09211970074812968,-0.014613860112421675,
0.09216957605985038,0.019527199046032798,
0.09221945137157107,0.003740408197738439,
0.09226932668329177,0.02822283371258424,
0.09231920199501246,0.024671074239386925,
0.09236907730673316,0.020440964170044828,
0.09241895261845387,0.006485318194605407,
0.09246882793017457,0.027761675340694146,
0.09251870324189526,0.006955750811434475,
0.09256857855361596,0.0006289044184230805,
0.09261845386533665,-0.010195944548358385,
0.09266832917705736,-0.0053912779752731815,
0.09271820448877806,0.02014422510150659,
0.09276807980049875,5.05290205537693e-05,
0.09281795511221945,0.016482066695014813,
0.09286783042394015,-0.016590722607664466,
0.09291770573566084,-0.010554050077703634,
0.09296758104738155,-0.036449472444400284,
0.09301745635910225,0.014254586119093322,
0.09306733167082294,0.0032333473237529968,
0.09311720698254364,-0.012446899126455581,
0.09316708229426433,0.020778309702079313,
0.09321695760598504,-0.009710442410144137,
0.09326683291770574,0.02390229761156532,
0.09331670822942643,0.005737682838528487,
0.09336658354114713,0.013776461258159421,
0.09341645885286783,0.008550587945335482,
0.09346633416458854,0.0010382240462324683,
0.09351620947630923,0.022733573028671693,
0.09356608478802993,0.004123120560029255,
0.09361596009975062,-0.012129771008691044,
0.09366583541147132,0.0010297021483042222,
0.09371571072319201,-0.006458443629920457,
0.09376558603491272,0.030678814167054015,
0.09381546134663342,0.005231036027179934,
0.09386533665835411,0.01665483405141689,
0.09391521197007481,-0.014783488914907694,
0.0939650872817955,-0.0018374343319632128,
0.09401496259351622,-0.03072164331767752,
0.09406483790523691,-0.004214879922492311,
0.09411471321695761,-0.0026488559345413318,
0.0941645885286783,0.011212534583781523,
0.094214463840399,0.004424873079311277,
0.0942643391521197,-0.011392304711533387,
0.0943142144638404,-0.02323237811960823,
0.0943640897755611,0.019151141124889668,
0.0944139650872818,-0.005762066171589436,
0.09446384039900249,-0.019276562020237115,
0.09451371571072319,-0.0066375129684431355,
0.0945635910224439,0.010072422991009564,
0.09461346633416459,-0.007702671951633754,
0.09466334164588529,0.01858698737665228,
0.09471321695760598,0.025937300230955532,
0.09476309226932668,-0.038413406439256954,
0.09481296758104737,-0.012034450690887318,
0.09486284289276808,-0.0231959887029251,
0.09491271820448878,-0.009109514054425574,
0.09496259351620948,-0.009767642547732103,
0.09501246882793017,-0.004089790122678165,
0.09506234413965087,0.013017168713617725,
0.09511221945137158,0.0025389283948370556,
0.09516209476309227,0.02549706873113427,
0.09521197007481297,-0.0039018186056851774,
0.09526184538653366,-0.020140795995351558,
0.09531172069825436,-0.027137914819712568,
0.09536159600997507,-0.008169546804096834,
0.09541147132169576,-0.0014254327111356251,
0.09546134663341646,-0.02180674284135296,
0.09551122194513716,0.016128718112935196,
0.09556109725685785,0.007942029344199072,
0.09561097256857855,-0.013975207760736626,
0.09566084788029926,0.004497716042184206,
0.09571072319201995,0.007630988128497867,
0.09576059850374065,-0.027202076229255003,
0.09581047381546134,-0.019279378118645708,
0.09586034912718204,-0.008258115117810924,
0.09591022443890275,0.0032949863719761024,
0.09596009975062345,-0.02649880169812948,
0.09600997506234414,-0.01683198842624185,
0.09605985037406484,-0.016576320706321042,
0.09610972568578553,-0.026821481434626742,
0.09615960099750623,-0.034631687291087725,
0.09620947630922694,-0.030529481150890693,
0.09625935162094763,-0.002886221486064066,
0.09630922693266833,-0.014806085484817474,
0.09635910224438902,-0.011905062344634633,
0.09640897755610972,-0.016958437840653116,
0.09645885286783043,-0.014513046343426577,
0.09650872817955113,-0.002339611202048234,
0.09655860349127182,-0.006613495606802012,
0.09660847880299252,-0.03807311273998699,
0.09665835411471321,0.010227735879630617,
0.09670822942643391,0.02283563967055686,
0.09675810473815462,-0.008250413184211308,
0.09680798004987531,0.01292798036558706,
0.09685785536159601,-0.029606001247669017,
0.0969077306733167,0.0022773069600909492,
0.0969576059850374,-0.01035140076423981,
0.09700748129675811,-0.029636013499955368,
0.0970573566084788,0.002975349497505664,
0.0971072319201995,0.0027299371549153097,
0.0971571072319202,-0.008669823172464529,
0.0972069825436409,-0.024533582118907056,
0.09725685785536159,0.003937597804104059,
0.0973067331670823,-0.01713118903112661,
0.097356608478803,-0.03326457820980812,
0.09740648379052369,-0.030014804509893925,
0.09745635910224439,0.0015053481533537742,
0.09750623441396508,-0.0020453780238762053,
0.09755610972568579,0.015582833213055577,
0.09760598503740649,0.02837240160751817,
0.09765586034912718,0.003649470053235418,
0.09770573566084788,-0.01647722668042386,
0.09775561097256857,-0.016451914623595087,
0.09780548628428928,-0.01267518045330227,
0.09785536159600998,0.005936799086832201,
0.09790523690773068,0.0035943682606076263,
0.09795511221945137,0.002321731192538151,
0.09800498753117207,0.0018805774134215431,
0.09805486284289276,0.006066463796665041,
0.09810473815461347,-0.0010493475828622263,
0.09815461346633417,-0.03277690565586223,
0.09820448877805486,-0.03842411067591425,
0.09825436408977556,0.0012784673300110603,
0.09830423940149625,-0.001495767984767386,
0.09835411471321696,0.0024291954688743147,
0.09840399002493766,-0.029928943743675385,
0.09845386533665836,-0.041656982940487246,
0.09850374064837905,-0.017970105390377786,
0.09855361596009975,-0.013336958547463374,
0.09860349127182044,-0.010953917965691297,
0.09865336658354115,-0.021678457070131503,
0.09870324189526185,-0.0065253417871729644,
0.09875311720698254,-0.014364696753930246,
0.09880299251870324,-0.0024890692010785705,
0.09885286783042393,-0.0018921108004228814,
0.09890274314214464,-0.01267183358303116,
0.09895261845386534,-0.023273431227119258,
0.09900249376558604,-0.0072666411454465835,
0.09905236907730673,0.0023271393587048616,
0.09910224438902743,-0.02957002779625272,
0.09915211970074812,-0.03223581169739053,
0.09920199501246883,0.002147854099324201,
0.09925187032418953,-0.0022113448168962838,
0.09930174563591022,-0.0008448154774690839,
0.09935162094763092,-0.013905711655123228,
0.09940149625935162,-0.015594010614962987,
0.09945137157107233,-0.003200635292216116,
0.09950124688279302,-0.023666463917077645,
0.09955112219451372,-0.023218347850940523,
0.09960099750623441,-0.015884240044305907,
0.09965087281795511,-0.008501879825974657,
0.0997007481296758,-0.0034564883775949134,
0.09975062344139651,-0.03572407693234918,
0.09980049875311721,-0.02368838019247206,
0.0998503740648379,-0.005619065637889808,
0.0999002493765586,0.005180690223473216,
0.0999501246882793,-0.009707470164184027,
0.1,-0.001564053069420271,
0.1000498753117207,-0.015545452454896962,
0.1000997506234414,-0.027177159640036645,
0.10014962593516209,0.00548829225940361,
0.10019950124688279,-0.039423868782090546,
0.1002493765586035,-0.021495211952677805,
0.1002992518703242,0.005730084238233162,
0.10034912718204489,-0.014345076426238512,
0.10039900249376559,-0.020774486715822493,
0.10044887780548628,0.010458839504306958,
0.10049875311720698,-0.006915613027804988,
0.10054862842892769,0.003206634633458382,
0.10059850374064838,-0.0106326725958989,
0.10064837905236908,-0.00109140690311341,
0.10069825436408977,-0.010660539629087772,
0.10074812967581047,0.025487483929798542,
0.10079800498753118,-0.02563260005569938,
0.10084788029925187,-0.008739416700061519,
0.10089775561097257,-0.014983075217097401,
0.10094763092269327,-0.006482307598472579,
0.10099750623441396,-0.008274036785851115,
0.10104738154613466,-0.007261718950811864,
0.10109725685785537,-0.011037047441048164,
0.10114713216957606,0.0012327519780804628,
0.10119700748129676,-0.01053028887565348,
0.10124688279301745,-0.008391908925236731,
0.10129675810473815,0.003005886727045717,
0.10134663341645886,-0.003830020337335633,
0.10139650872817955,0.01816103200951722,
0.10144638403990025,-0.031194116586337087,
0.10149625935162095,0.01416886276873936,
0.10154613466334164,-0.023440521486827806,
0.10159600997506234,-0.011095178411452706,
0.10164588528678305,-0.013831302100870989,
0.10169576059850374,0.024194156623189036,
0.10174563591022444,-0.0023141552817093655,
0.10179551122194513,0.006500948436351536,
0.10184538653366583,-0.013065676394851698,
0.10189526184538654,0.0013776562866900624,
0.10194513715710724,0.01386381607370753,
0.10199501246882793,0.013157994999325335,
0.10204488778054863,-0.006493080832422157,
0.10209476309226932,-0.00043298950026596163,
0.10214463840399003,0.03157686697041742,
0.10219451371571073,0.013088630115630502,
0.10224438902743142,-0.019428317835618908,
0.10229426433915212,-0.015958365512474072,
0.10234413965087281,-0.0024865454166552604,
0.10239401496259351,-0.01091441866502921,
0.10244389027431422,0.013938075565236671,
0.10249376558603492,-0.021040808521102634,
0.10254364089775561,-0.004652257820120781,
0.10259351620947631,-0.016219320939116384,
0.102643391521197,0.02650092005259374,
0.10269326683291771,0.02641163834050643,
0.10274314214463841,0.013898145761182121,
0.1027930174563591,-8.565164405089764e-05,
0.1028428927680798,-0.003981390721587593,
0.1028927680798005,-0.014263982099124484,
0.10294264339152119,0.005885031013117332,
0.1029925187032419,0.013618005652144848,
0.1030423940149626,0.019352955831710178,
0.10309226932668329,0.010731681902017875,
0.10314214463840399,0.017864054609867404,
0.10319201995012468,0.03051019373614747,
0.10324189526184539,0.006577659790425314,
0.10329177057356609,-0.011572283225236122,
0.10334164588528678,0.0077902272711357886,
0.10339152119700748,-0.017175514178505283,
0.10344139650872818,0.015120037540200758,
0.10349127182044887,0.01333418363257693,
0.10354114713216958,0.006132550255871332,
0.10359102244389028,0.019363684118591115,
0.10364089775561097,-0.0015806458942381075,
0.10369077306733167,0.04069177613718192,
0.10374064837905236,0.046986162390317526,
0.10379052369077307,0.007693758075682077,
0.10384039900249377,0.00248130004746803,
0.10389027431421446,0.02886647071151839,
0.10394014962593516,0.010450030756649686,
0.10399002493765586,0.014207984458671009,
0.10403990024937655,0.01809546497115083,
0.10408977556109726,0.024126137561145643,
0.10413965087281796,0.027868152457142352,
0.10418952618453865,0.013905822493870216,
0.10423940149625935,-0.0004799226013668008,
0.10428927680798004,0.023002823955281013,
0.10433915211970075,0.004766703484967069,
0.10438902743142145,-0.0007843732960113158,
0.10443890274314215,0.040732128573457205,
0.10448877805486284,0.011937114054681229,
0.10453865336658354,-0.0022480792308957435,
0.10458852867830425,-0.00193327946847811,
0.10463840399002494,0.013370374991554964,
0.10468827930174564,0.028707003597884743,
0.10473815461346633,0.008413450521740801,
0.10478802992518703,0.03622411362437526,
0.10483790523690772,0.038009805413355274,
0.10488778054862843,-0.0011708609374433653,
0.10493765586034913,0.018982045131924728,
0.10498753117206983,0.020979766005235444,
0.10503740648379052,0.04139321710700237,
0.10508728179551122,0.012974844488438384,
0.10513715710723193,0.02692213641117039,
0.10518703241895262,0.025197053582227548,
0.10523690773067332,0.049308112295902956,
0.10528678304239401,0.01675238689874451,
0.10533665835411471,0.023484612981080302,
0.1053865336658354,0.0293456078481344,
0.10543640897755611,0.008689610859424077,
0.10548628428927681,0.020453351622500636,
0.1055361596009975,0.017077485729254067,
0.1055860349127182,0.02485957876685397,
0.1056359102244389,0.02388206865969929,
0.10568578553615961,0.029220479890177606,
0.1057356608478803,0.026536558569197413,
0.105785536159601,0.02874419878783291,
0.1058354114713217,0.019192809365854994,
0.10588528678304239,0.017608862740651304,
0.10593516209476309,0.015466907625618963,
0.1059850374064838,0.03813512921739827,
0.10603491271820449,0.0007079041422684285,
0.10608478802992519,0.02246354374677831,
0.10613466334164588,0.03271362643400231,
0.10618453865336658,0.04729665835607787,
0.10623441396508729,0.023488665573246144,
0.10628428927680798,0.03852189925001776,
0.10633416458852868,0.029757088579005202,
0.10638403990024937,0.0031697817223893567,
0.10643391521197007,0.02669368070969926,
0.10648379052369077,0.05279047488183098,
0.10653366583541148,0.06791111051115424,
0.10658354114713217,0.017279202002684506,
0.10663341645885287,0.014460260872382528,
0.10668329177057356,0.05498475460750645,
0.10673316708229426,0.056143622662394976,
0.10678304239401497,0.04470281986691187,
0.10683291770573566,0.005616093458943473,
0.10688279301745636,0.014313590732974005,
0.10693266832917706,0.017253984170783856,
0.10698254364089775,0.025715819817174638,
0.10703241895261846,0.011067959399130118,
0.10708229426433916,0.02495919540150092,
0.10713216957605985,0.027084423674196896,
0.10718204488778055,0.009842469351724198,
0.10723192019950124,0.020619817922701927,
0.10728179551122194,0.040614514135100505,
0.10733167082294265,0.010759750778554848,
0.10738154613466334,0.015199174406790736,
0.10743142144638404,0.03785256994293831,
0.10748129675810474,0.003784050422555408,
0.10753117206982543,0.024765094926432533,
0.10758104738154614,0.032373301286598495,
0.10763092269326684,0.012330693552382593,
0.10768079800498753,0.019551920631966126,
0.10773067331670823,0.06994706342160187,
0.10778054862842892,0.05363827674537723,
0.10783042394014962,0.008566237493156405,
0.10788029925187033,0.038115959716178975,
0.10793017456359102,0.03096772447604473,
0.10798004987531172,0.027373339275367004,
0.10802992518703242,0.025136455017564403,
0.10807980049875311,0.010206467597840326,
0.10812967581047382,0.022490440225731614,
0.10817955112219452,0.028596886735983425,
0.10822942643391521,0.043786491925270885,
0.10827930174563591,0.005347132714637222,
0.1083291770573566,0.033387544058866306,
0.1083790523690773,0.025875182545844286,
0.10842892768079801,0.028623062205176675,
0.1084788029925187,0.03602244442388699,
0.1085286783042394,0.03302574301376869,
0.1085785536159601,0.044658847629819455,
0.10862842892768079,0.02254735419339459,
0.1086783042394015,0.036839809473180704,
0.1087281795511222,0.05716747486051464,
0.1087780548628429,0.032424581452981285,
0.10882793017456359,0.030114063868609285,
0.10887780548628428,0.006891690813660992,
0.108927680798005,0.006014918551503649,
0.10897755610972569,0.021935445431044812,
0.10902743142144639,0.02353046276412435,
0.10907730673316708,0.01346423210258215,
0.10912718204488778,0.021716120511543497,
0.10917705735660847,0.02064114578421976,
0.10922693266832918,0.04482403614061353,
0.10927680798004988,0.030854516913213968,
0.10932668329177057,0.03264578789551113,
0.10937655860349127,0.018455123443216197,
0.10942643391521197,0.04371627860799039,
0.10947630922693267,0.015650700218901862,
0.10952618453865337,0.031168284077224287,
0.10957605985037407,0.026766820151343303,
0.10962593516209476,0.013945269841814052,
0.10967581047381546,0.029895693500582885,
0.10972568578553615,0.03493640728659378,
0.10977556109725686,0.022900596501459956,
0.10982543640897756,0.04824875072841647,
0.10987531172069825,0.02223221862569179,
0.10992518703241895,0.013351668398009017,
0.10997506234413965,0.0013105169426580153,
0.11002493765586036,0.031225966838323543,
0.11007481296758105,0.02512933491520577,
0.11012468827930175,0.016116556623492338,
0.11017456359102244,0.02592658166335272,
0.11022443890274314,0.042377939903723266,
0.11027431421446383,0.03117948541437728,
0.11032418952618454,0.023958941280539738,
0.11037406483790524,-0.013825018459760051,
0.11042394014962593,0.005864166176677912,
0.11047381546134663,0.018483467026661163,
0.11052369077306733,0.005784089228560621,
0.11057356608478804,0.03709758224243205,
0.11062344139650873,0.033443936228770225,
0.11067331670822943,0.010753710579809958,
0.11072319201995012,0.028816452901128983,
0.11077306733167082,0.015459144458970165,
0.11082294264339151,-0.0012109174512385697,
0.11087281795511222,0.0035560792948644733,
0.11092269326683292,-0.0011979611717285524,
0.11097256857855362,0.03072416206311352,
0.11102244389027431,-0.012694904137573904,
0.111072319201995,0.014319925424217419,
0.11112219451371572,0.01966106667670513,
0.11117206982543641,0.007471584609827494,
0.11122194513715711,0.03745332800685623,
0.1112718204488778,0.03227219563926705,
0.1113216957605985,0.010248185445767865,
0.11137157107231921,0.03468665257453142,
0.1114214463840399,0.02293264573420815,
0.1114713216957606,0.03344651668423479,
0.1115211970074813,0.048283048434415415,
0.11157107231920199,-0.014847776430445166,
0.11162094763092269,0.044106889291796195,
0.1116708229426434,0.012359587846511082,
0.11172069825436409,-0.007207002369549492,
0.11177057356608479,0.012918561025431555,
0.11182044887780548,0.002923943834295747,
0.11187032418952618,0.0034250392561939458,
0.11192019950124689,0.01921818854716721,
0.11197007481296758,0.024381407374522046,
0.11201995012468828,0.0009459980515195872,
0.11206982543640898,0.01718822125919605,
0.11211970074812967,0.02351284526008053,
0.11216957605985037,0.01879744591195187,
0.11221945137157108,0.038315674645629835,
0.11226932668329177,0.026176834981704374,
0.11231920199501247,0.01586301580209311,
0.11236907730673316,0.01914319847369871,
0.11241895261845386,0.021599445658991315,
0.11246882793017457,0.00500713656775147,
0.11251870324189527,0.027496938619011084,
0.11256857855361596,0.0027768209339551226,
0.11261845386533666,0.014929447314863703,
0.11266832917705735,-0.007552376169994386,
0.11271820448877805,0.029820717530343162,
0.11276807980049876,-0.008000128239036588,
0.11281795511221945,-0.003838655328667253,
0.11286783042394015,0.04262856304119334,
0.11291770573566084,0.011685323996220416,
0.11296758104738154,-0.015018800565153909,
0.11301745635910225,0.0013302474010685877,
0.11306733167082295,0.012420532246926599,
0.11311720698254364,0.0029690024683215214,
0.11316708229426434,-0.003667434162141863,
0.11321695760598503,-0.0033141445977597998,
0.11326683291770574,-0.013622003007100944,
0.11331670822942644,0.009532977561742208,
0.11336658354114713,0.004643610825452584,
0.11341645885286783,-0.002877409203693263,
0.11346633416458853,0.017888316631300593,
0.11351620947630922,0.0043423679482022335,
0.11356608478802993,0.01648223783144847,
0.11361596009975063,0.009476017569760409,
0.11366583541147132,0.0034770504163398486,
0.11371571072319202,-0.004407064298415945,
0.11376558603491271,0.0382253187376631,
0.11381546134663342,-0.0025928453723016408,
0.11386533665835412,0.00881136947609501,
0.11391521197007481,-0.011381639061718619,
0.11396508728179551,0.023304091837167258,
0.1140149625935162,0.007030381958865442,
0.1140648379052369,0.0016842121066745791,
0.11411471321695761,0.0058950184478393656,
0.1141645885286783,-0.0018537761474979328,
0.114214463840399,-0.040271857310434714,
0.1142643391521197,0.013271123198209635,
0.1143142144638404,-0.006951610136216685,
0.1143640897755611,0.027734246754931795,
0.1144139650872818,0.025676372848811743,
0.1144638403990025,-0.020724628039622973,
0.11451371571072319,-0.01869335236937882,
0.11456359102244389,0.024228851337634125,
0.11461346633416458,-0.01299297353866131,
0.11466334164588529,-0.0052771884830145905,
0.11471321695760599,-0.009972976474935507,
0.11476309226932668,-0.0021462369133641536,
0.11481296758104738,0.016626127839092432,
0.11486284289276807,-0.012925282390068323,
0.11491271820448878,-0.010358705719955919,
0.11496259351620948,0.01803359908112844,
0.11501246882793018,-0.009792971645696405,
0.11506234413965087,0.015384870304408228,
0.11511221945137157,0.0023537547766059493,
0.11516209476309226,-0.002463058273555665,
0.11521197007481297,-0.014610835535738376,
0.11526184538653367,0.003642148281651922,
0.11531172069825436,0.007084299913944325,
0.11536159600997506,-0.016429802347008755,
0.11541147132169575,-0.02124549755873441,
0.11546134663341646,-0.019916511137424667,
0.11551122194513716,0.014162430925474595,
0.11556109725685786,-0.0032578268992709946,
0.11561097256857855,0.01623512642219186,
0.11566084788029925,0.0075537315596578836,
0.11571072319201996,-0.0046106496539893,
0.11576059850374065,-0.008828482950084364,
0.11581047381546135,0.004455878858315781,
0.11586034912718204,-0.020033919450730294,
0.11591022443890274,-0.019631975091117266,
0.11596009975062344,-0.019348086827654553,
0.11600997506234415,-0.003843494502031699,
0.11605985037406484,-0.03134674935958242,
0.11610972568578554,0.010016810891760184,
0.11615960099750623,-0.01142305980626274,
0.11620947630922693,-0.006571956570247076,
0.11625935162094764,0.000709156326011361,
0.11630922693266833,-0.02004495950480247,
0.11635910224438903,-0.0045925276406807766,
0.11640897755610972,0.002479422884905918,
0.11645885286783042,-0.010799859948287353,
0.11650872817955112,-0.01520253959897404,
0.11655860349127183,-0.01709946688932299,
0.11660847880299252,-0.00344177669526203,
0.11665835411471322,0.0013230256732722646,
0.11670822942643391,0.0063008980283491885,
0.11675810473815461,-0.02050725852734671,
0.11680798004987532,-0.0022036544566480165,
0.11685785536159601,-0.014229405102492777,
0.11690773067331671,-0.024916983006022967,
0.1169576059850374,-0.002302089418645888,
0.1170074812967581,0.02847951009919112,
0.1170573566084788,-0.022550196869077558,
0.1171072319201995,-0.01708033726474907,
0.1171571072319202,-0.028434249949546606,
0.1172069825436409,-0.007225338043914258,
0.1172568578553616,0.007160367212979517,
0.11730673316708229,-0.013116468145018526,
0.117356608478803,-0.0011548162617457808,
0.1174064837905237,-0.020573005050420888,
0.11745635910224439,-0.00769030829100489,
0.11750623441396509,0.00232915818520308,
0.11755610972568578,0.003279013118015088,
0.11760598503740648,-0.0033869915755765177,
0.11765586034912719,-0.022053545439746892,
0.11770573566084788,0.01236195009080221,
0.11775561097256858,-0.0016529380084593284,
0.11780548628428927,-0.007334156095947516,
0.11785536159600997,0.015921915531366307,
0.11790523690773068,-0.004525548640983298,
0.11795511221945137,-0.03903781645609938,
0.11800498753117207,-0.010384578445988203,
0.11805486284289277,0.0021498344319438104,
0.11810473815461346,0.0020547293227568073,
0.11815461346633417,-0.02642363677126581,
0.11820448877805487,-0.01458120189387143,
0.11825436408977556,-0.03078659833736314,
0.11830423940149626,-0.019060845569406966,
0.11835411471321695,-0.03709104730373847,
0.11840399002493765,-0.036254916731114695,
0.11845386533665836,-0.022955697665997386,
0.11850374064837906,-0.02669122763308549,
0.11855361596009975,-0.019182677948346674,
0.11860349127182045,-0.003959079649836789,
0.11865336658354114,-0.008922399457590848,
0.11870324189526185,-0.0155490189919269,
0.11875311720698255,-0.021131164312515667,
0.11880299251870324,-0.003886615576126751,
0.11885286783042394,0.009767542819994588,
0.11890274314214463,-0.015918939591393774,
0.11895261845386533,-0.04063853198249243,
0.11900249376558604,-0.0029757315215722608,
0.11905236907730674,-0.0049648951229063374,
0.11910224438902743,-0.03971176782298657,
0.11915211970074813,0.0037707858907642163,
0.11920199501246882,-0.004083180420555321,
0.11925187032418953,0.00883895398529529,
0.11930174563591023,0.007223681219929749,
0.11935162094763092,-0.007423176811735299,
0.11940149625935162,-0.011559781277176962,
0.11945137157107232,-0.01952692996164078,
0.11950124688279301,-0.013245493397380913,
0.11955112219451372,-0.004287661931175692,
0.11960099750623442,-0.010130965074694256,
0.11965087281795511,-0.019413223972556716,
0.11970074812967581,-0.022475972356213014,
0.1197506234413965,-0.007068191940539437,
0.11980049875311721,-0.00015409980759538248,
0.11985037406483791,-0.01767645509252785,
0.1199002493765586,-0.024945438302313373,
0.1199501246882793,-0.0006999094516474064,
0.12,-0.0026110099741499214,
0.1200498753117207,-0.020588612029418384,
0.1200997506234414,0.00029969820462509567,
0.1201496259351621,0.011354890731490942,
0.12019950124688279,0.008547566730357533,
0.12024937655860349,0.00803909150054339,
0.12029925187032418,-0.02761101787639715,
0.1203491271820449,0.02925371987730042,
0.12039900249376559,-0.001256485805218279,
0.12044887780548628,0.02529058568870489,
0.12049875311720698,-0.005954057592795109,
0.12054862842892768,0.003971038039254927,
0.12059850374064839,-0.004408914025019878,
0.12064837905236908,-0.012662567640537144,
0.12069825436408978,-0.00045665961613206886,
0.12074812967581047,-0.007381499780753491,
0.12079800498753117,-0.022823607260123877,
0.12084788029925186,0.019791581788835184,
0.12089775561097257,0.0051897453459877774,
0.12094763092269327,-0.01219957132575535,
0.12099750623441397,-0.0241873238760743,
0.12104738154613466,-0.010873433543275513,
0.12109725685785536,0.024256468753374224,
0.12114713216957607,0.023271368463640182,
0.12119700748129676,-0.002306622311291816,
0.12124688279301746,-0.003104618085144044,
0.12129675810473815,-0.008503479421732466,
0.12134663341645885,0.008980566707012519,
0.12139650872817954,-0.008920667799700454,
0.12144638403990025,-0.026569481086407117,
0.12149625935162095,0.0004748195868192085,
0.12154613466334165,0.007302177674793776,
0.12159600997506234,-0.02000108971440491,
0.12164588528678304,-0.0004308088709100208,
0.12169576059850375,-0.001128002191943333,
0.12174563591022444,-0.014772343480126118,
0.12179551122194514,-0.008152011171628734,
0.12184538653366583,-0.009415220333399825,
0.12189526184538653,0.02585197633470606,
0.12194513715710723,0.0035675649324155936,
0.12199501246882793,-0.0033331095527087936,
0.12204488778054863,0.010201206456568537,
0.12209476309226933,-0.011363564520978503,
0.12214463840399002,-0.009094827970725548,
0.12219451371571072,-0.034458381486012504,
0.12224438902743143,0.010299817733190251,
0.12229426433915212,0.0017744177453809958,
0.12234413965087282,0.0004731853276382786,
0.12239401496259351,-0.006231173548447074,
0.12244389027431421,0.01598882357316169,
0.12249376558603492,-0.002563628746122735,
0.12254364089775562,0.004380105192546914,
0.12259351620947631,0.010524503990850913,
0.122643391521197,0.029240713480177247,
0.1226932668329177,-0.007799328633268435,
0.1227431421446384,0.018253187709486446,
0.12279301745635911,-3.7896918580348875e-05,
0.1228428927680798,0.017781614845383188,
0.1228927680798005,-0.013258645911152979,
0.1229426433915212,0.013505998629756962,
0.12299251870324189,-0.031719185244296254,
0.1230423940149626,0.005587119170612694,
0.1230922693266833,-0.0009299506956120182,
0.12314214463840399,-0.001594326877916977,
0.12319201995012469,-0.006122575839432258,
0.12324189526184538,0.02133430482262541,
0.12329177057356608,0.024056740523557003,
0.12334164588528679,0.014416781972821618,
0.12339152119700748,0.03329156158909742,
0.12344139650872818,-0.008267504396609648,
0.12349127182044888,0.011566377317379728,
0.12354114713216957,0.03181890062075052,
0.12359102244389028,0.020872347063395864,
0.12364089775561098,0.011465015254355823,
0.12369077306733167,-0.00928618933106916,
0.12374064837905237,0.009259651638673387,
0.12379052369077306,0.014618326341316785,
0.12384039900249376,-0.021086618128321542,
0.12389027431421447,-0.004675755935182518,
0.12394014962593516,0.03795593034903572,
0.12399002493765586,0.029322508455507684,
0.12403990024937656,0.02990512742397479,
0.12408977556109725,0.011884594015447341,
0.12413965087281796,0.012325725349939694,
0.12418952618453866,0.020640644115857247,
0.12423940149625935,0.04340119554163101,
0.12428927680798005,0.02805339423451922,
0.12433915211970074,0.0010988252758664819,
0.12438902743142144,0.006572461144017147,
0.12443890274314215,0.007463364646730678,
0.12448877805486284,0.0097452237169026,
0.12453865336658354,-0.009018478497221035,
0.12458852867830424,0.01066050550923504,
0.12463840399002493,0.027784856779378336,
0.12468827930174564,0.02231927784285901,
0.12473815461346634,0.0003760606951705263,
0.12478802992518703,0.01180667758289081,
0.12483790523690773,0.02418101449293976,
0.12488778054862842,0.03633955911197799,
0.12493765586034913,0.01004826558575941,
0.12498753117206983,0.023817705047141376,
0.12503740648379053,0.04264349797302076,
0.12508728179551123,0.033508542563082847,
0.12513715710723192,0.021672524979731145,
0.12518703241895263,-0.014187781300610915,
0.1252369077306733,0.015951905763046288,
0.12528678304239402,-0.00022304440296554845,
0.1253366583541147,0.026359706188238182,
0.1253865336658354,0.033100532093937304,
0.12543640897755612,0.027536329423151137,
0.1254862842892768,0.027406935497708382,
0.1255361596009975,0.0021047217307265595,
0.1255860349127182,0.01211056831528637,
0.1256359102244389,0.009951426535240207,
0.1256857855361596,0.05137894942514005,
0.1257356608478803,0.04631432300598427,
0.125785536159601,0.0245059462978469,
0.12583541147132168,0.04287615336718646,
0.1258852867830424,0.004716018685800984,
0.1259351620947631,0.029610146358930292,
0.12598503740648379,0.030868786884150512,
0.1260349127182045,0.023303451561350417,
0.12608478802992518,0.015894875609008326,
0.1261346633416459,0.03562328806580826,
0.1261845386533666,0.006047441333059775,
0.12623441396508728,0.017741892648036144,
0.126284289276808,0.012272477623535139,
0.12633416458852867,0.01899207339876292,
0.12638403990024938,0.037917755094892105,
0.1264339152119701,-0.0018187580709939054,
0.12648379052369077,0.03463367590963415,
0.12653366583541148,0.019026861514065917,
0.12658354114713216,0.02631798150488422,
0.12663341645885287,0.03605513380016542,
0.12668329177057355,0.012981720629181933,
0.12673316708229426,0.009093703666303878,
0.12678304239401497,0.029907065539432166,
0.12683291770573565,0.024014897037667647,
0.12688279301745636,0.03119610471662753,
0.12693266832917705,0.04117144079807408,
0.12698254364089775,0.01812675663570996,
0.12703241895261846,0.04326398025305492,
0.12708229426433915,0.04125627625163373,
0.12713216957605986,0.03473993787447855,
0.12718204488778054,0.039133226291122994,
0.12723192019950125,0.04289284846676151,
0.12728179551122196,0.040600342425011524,
0.12733167082294264,0.04193656694959878,
0.12738154613466335,0.04088113976105888,
0.12743142144638403,0.030630222706789355,
0.12748129675810474,0.023622969944481126,
0.12753117206982545,0.03487563601838099,
0.12758104738154613,0.04116033014859602,
0.12763092269326684,0.052910538815800004,
0.12768079800498752,0.02864382900137347,
0.12773067331670823,0.015398966478426193,
0.1277805486284289,0.06782343498108692,
0.12783042394014962,0.02205441594644128,
0.12788029925187033,0.019894670767869726,
0.12793017456359101,0.03773791151576619,
0.12798004987531172,0.014545587762050267,
0.1280299251870324,0.031643872249229724,
0.12807980049875312,0.06905729140939304,
0.12812967581047383,0.050618155510656876,
0.1281795511221945,0.014792975298349118,
0.12822942643391522,0.019872166799380586,
0.1282793017456359,0.015416707415477493,
0.1283291770573566,0.0235521690204031,
0.12837905236907732,0.011955244746458496,
0.128428927680798,0.043520115493781084,
0.1284788029925187,0.030186180804457036,
0.1285286783042394,0.034946605452938345,
0.1285785536159601,0.036722859685125064,
0.1286284289276808,0.049268030671247076,
0.1286783042394015,0.037337677881191106,
0.1287281795511222,0.014307095881004874,
0.12877805486284288,0.0373281758699892,
0.1288279301745636,0.04061673234921598,
0.1288778054862843,0.004781516912925072,
0.12892768079800498,0.04116711838080507,
0.1289775561097257,0.01807989854105088,
0.12902743142144638,0.030411334372317973,
0.12907730673316709,0.05001067599385303,
0.12912718204488777,0.011888151533625647,
0.12917705735660848,0.028629964777913873,
0.1292269326683292,0.03868616099297277,
0.12927680798004987,0.05788200020128082,
0.12932668329177058,0.012541549220658404,
0.12937655860349126,0.009685174470511124,
0.12942643391521197,0.031971611320517984,
0.12947630922693268,0.00827555418507065,
0.12952618453865336,0.013567584403867572,
0.12957605985037407,0.04419200160399292,
0.12962593516209475,0.03457203424549492,
0.12967581047381546,0.030631463456916315,
0.12972568578553617,0.031755802724313435,
0.12977556109725685,0.020371072971489435,
0.12982543640897756,0.05556485450141651,
0.12987531172069824,0.03085966072609933,
0.12992518703241895,0.02529709172314039,
0.12997506234413966,0.042813423231036304,
0.13002493765586035,0.01225439184079407,
0.13007481296758105,0.032645731951072454,
0.13012468827930174,-0.0006180273080649452,
0.13017456359102245,0.054836892595726966,
0.13022443890274316,0.021924668914301164,
0.13027431421446384,0.009298354448599683,
0.13032418952618455,0.035215456549920005,
0.13037406483790523,0.006842699009482919,
0.13042394014962594,0.02133602587556608,
0.13047381546134662,0.03672377319284886,
0.13052369077306733,0.005867284415622516,
0.13057356608478804,0.0038438126471447565,
0.13062344139650872,0.021854247371465213,
0.13067331670822943,0.02116690079407302,
0.1307231920199501,0.007154570335193702,
0.13077306733167082,0.014143577433710057,
0.13082294264339153,0.014918231151821499,
0.13087281795511221,0.017347661018770083,
0.13092269326683292,0.016756868402961856,
0.1309725685785536,0.024418929614304044,
0.13102244389027431,0.013485700918933327,
0.13107231920199502,0.03644864804881833,
0.1311221945137157,0.011111271199406523,
0.13117206982543642,0.020376607871959912,
0.1312219451371571,0.029999446309949225,
0.1312718204488778,0.056380008337323394,
0.13132169576059852,0.060276288636451666,
0.1313715710723192,0.02232423318302633,
0.1314214463840399,0.024964035645025123,
0.1314713216957606,0.009661221193560159,
0.1315211970074813,0.024240922000831645,
0.13157107231920198,0.029655450989291753,
0.1316209476309227,0.011039804105452947,
0.1316708229426434,0.010190658929949503,
0.13172069825436408,0.011652362019202177,
0.1317705735660848,0.01950072911775753,
0.13182044887780547,0.00028332281532660736,
0.13187032418952618,0.02123012419408138,
0.1319201995012469,0.02817700237213027,
0.13197007481296757,0.0036692783868329335,
0.13201995012468828,0.02455090024890323,
0.13206982543640897,-0.0015410143447434875,
0.13211970074812968,0.013902102028749523,
0.13216957605985039,-0.024384572412597727,
0.13221945137157107,0.00513738358136278,
0.13226932668329178,0.029297874870510734,
0.13231920199501246,-0.003971195332953568,
0.13236907730673317,0.032816396380902,
0.13241895261845388,0.028604993555890145,
0.13246882793017456,0.01376779705048302,
0.13251870324189527,0.03770270303640731,
0.13256857855361595,0.015215422403806652,
0.13261845386533666,-0.005583746463471154,
0.13266832917705737,0.003522377428906761,
0.13271820448877805,-0.0029940917760550353,
0.13276807980049876,-0.002194209933734559,
0.13281795511221944,-9.562877983813889e-05,
0.13286783042394015,-0.012354290540818193,
0.13291770573566083,0.023107484144007755,
0.13296758104738154,-0.01869237688652704,
0.13301745635910225,0.021135803459219116,
0.13306733167082294,0.023802116891776547,
0.13311720698254365,0.019198480335541175,
0.13316708229426433,0.01378505699852535,
0.13321695760598504,0.016900014120213722,
0.13326683291770575,-0.0003682276878726916,
0.13331670822942643,0.00868914748113518,
0.13336658354114714,0.007508969070208609,
0.13341645885286782,0.004807815515763596,
0.13346633416458853,-0.0024741126747905434,
0.13351620947630924,0.015679076386292075,
0.13356608478802992,0.007147550890905218,
0.13361596009975063,-0.0003008183752981168,
0.1336658354114713,-0.00959497145533883,
0.13371571072319202,-0.015195348186057245,
0.13376558603491273,0.012349707806080003,
0.1338154613466334,-0.004774453076938155,
0.13386533665835412,0.013814204059944924,
0.1339152119700748,0.0039631611719060655,
0.13396508728179551,-0.003926788949108222,
0.1340149625935162,0.024102825088087188,
0.1340648379052369,-0.016293967183323155,
0.13411471321695762,0.002335454419300587,
0.1341645885286783,-0.012879667454595038,
0.134214463840399,0.009790398818615674,
0.1342643391521197,0.0022699356130319384,
0.1343142144638404,0.027848978149582284,
0.1343640897755611,-0.017052809082269527,
0.1344139650872818,-0.006252947301715765,
0.1344638403990025,0.011872243377375474,
0.13451371571072318,0.005303383814639214,
0.1345635910224439,-0.0030228167156816765,
0.1346134663341646,0.006462142525942304,
0.13466334164588528,0.01787942676730917,
0.134713216957606,0.005995746102300374,
0.13476309226932667,0.007456638419024894,
0.13481296758104738,0.006816086559256773,
0.1348628428927681,0.018221047448425357,
0.13491271820448877,-0.006736507235821645,
0.13496259351620948,0.023379666502148188,
0.13501246882793017,-0.0014666916811072682,
0.13506234413965088,-0.014216455527746141,
0.13511221945137158,-0.01586115669913049,
0.13516209476309227,0.030354342978703902,
0.13521197007481298,0.009921621203791215,
0.13526184538653366,3.5122389018771684e-05,
0.13531172069825437,0.02229423586971535,
0.13536159600997505,0.0031353873689402975,
0.13541147132169576,-0.016696791071979522,
0.13546134663341647,0.017428432865894294,
0.13551122194513715,0.003328062149036453,
0.13556109725685786,-0.010153563063828103,
0.13561097256857854,0.0014126881409854582,
0.13566084788029925,-0.00709183146769627,
0.13571072319201996,-0.03228449069361996,
0.13576059850374064,-0.010295979270642637,
0.13581047381546135,-0.024559409714571975,
0.13586034912718203,-0.008999450961454547,
0.13591022443890274,-0.019171494301144086,
0.13596009975062345,0.007959909723468498,
0.13600997506234414,-0.007318820864687548,
0.13605985037406484,-0.017708947377048305,
0.13610972568578553,-0.0015174861566118695,
0.13615960099750624,0.015091475812690025,
0.13620947630922695,-0.009669499758263964,
0.13625935162094763,0.002840772888377403,
0.13630922693266834,-0.030777361861609336,
0.13635910224438902,-0.007892200187970887,
0.13640897755610973,-0.024882662031174844,
0.1364588528678304,-0.011375887641873783,
0.13650872817955112,-0.04093423125716694,
0.13655860349127183,-0.011555624877233446,
0.1366084788029925,-0.006898155581666051,
0.13665835411471322,0.021790450679415672,
0.1367082294264339,-0.0023203599973165576,
0.1367581047381546,-0.005086989640775926,
0.13680798004987532,-0.013947459612209695,
0.136857855361596,0.03528180372537515,
0.1369077306733167,-0.008696110931638183,
0.1369576059850374,0.00018821481483040012,
0.1370074812967581,-0.02038968913919545,
0.13705735660847881,-0.008906812355332671,
0.1371072319201995,-0.0056085695242535484,
0.1371571072319202,-0.013977909493687159,
0.1372069825436409,-0.02688947276262004,
0.1372568578553616,0.009460001216868054,
0.1373067331670823,-0.033252098722785256,
0.137356608478803,-0.019399268984535555,
0.1374064837905237,-0.002165593756661288,
0.13745635910224438,0.014640150875631521,
0.1375062344139651,0.03707764806262259,
0.1375561097256858,0.0057873479782317595,
0.13760598503740648,-0.01725761101735765,
0.1376558603491272,-0.022032334993183224,
0.13770573566084787,-0.03538308303317991,
0.13775561097256858,0.0007557772652049058,
0.13780548628428926,0.009073446662708599,
0.13785536159600997,-0.028076825588981884,
0.13790523690773068,-0.01117898930944191,
0.13795511221945136,0.0005076142304700649,
0.13800498753117207,-0.0007508238626236646,
0.13805486284289276,-0.0034290190410925167,
0.13810473815461347,-0.03871214707578127,
0.13815461346633418,-0.02583407307833111,
0.13820448877805486,-0.018967811327726684,
0.13825436408977557,0.01069816619173974,
0.13830423940149625,-0.015196475112720409,
0.13835411471321696,-0.029933081506379564,
0.13840399002493767,0.0318800516238106,
0.13845386533665835,-0.009548248136958036,
0.13850374064837906,-0.006930339473013404,
0.13855361596009974,0.002726852271973418,
0.13860349127182045,-0.009935240781226401,
0.13865336658354116,-0.006538507583934998,
0.13870324189526184,-0.004836163314613743,
0.13875311720698255,-0.03536320354920716,
0.13880299251870323,-0.020504849570715467,
0.13885286783042394,-0.010390309004536986,
0.13890274314214462,-0.041982139258041576,
0.13895261845386533,0.0017380095836654497,
0.13900249376558604,-0.0018660851561402205,
0.13905236907730673,-0.021879656556103553,
0.13910224438902744,-0.021932859165254663,
0.13915211970074812,-0.022392376106048363,
0.13920199501246883,0.00396802155559787,
0.13925187032418954,0.014838155353744949,
0.13930174563591022,-0.03404722343063997,
0.13935162094763093,-0.018114338601223932,
0.1394014962593516,-0.018577438904765778,
0.13945137157107232,0.005279817356437512,
0.13950124688279303,0.004886491693858151,
0.1395511221945137,-0.0007252213065517847,
0.13960099750623442,-0.0019870389287007855,
0.1396508728179551,-0.01457507326145961,
0.1397007481296758,0.001842644974544375,
0.13975062344139652,-0.003501774906362338,
0.1398004987531172,9.396824180979597e-05,
0.1398503740648379,-0.03779537742551585,
0.1399002493765586,-0.0013481548678538893,
0.1399501246882793,0.02139217242311342,
0.14,0.00381389135879219,
0.1400498753117207,-0.03215991128557123,
0.1400997506234414,-0.020600625005390727,
0.1401496259351621,-0.0030030759014988933,
0.1401995012468828,-0.00624667309121692,
0.14024937655860348,0.004715936269787795,
0.1402992518703242,-0.016146398267773046,
0.1403491271820449,-0.03384336794063246,
0.14039900249376558,-0.02833612175051929,
0.1404488778054863,-0.007784746352641408,
0.14049875311720697,-0.0280601165789173,
0.14054862842892768,-0.004706669072189681,
0.1405985037406484,-0.02261781828681125,
0.14064837905236907,-0.028461592424085753,
0.14069825436408978,-0.002380388866017536,
0.14074812967581046,-0.012120683389082457,
0.14079800498753117,-0.019363160359138067,
0.14084788029925188,-0.005489267081534426,
0.14089775561097256,-0.006921901047857897,
0.14094763092269327,0.0011745769530075033,
0.14099750623441396,-0.0008867039309417906,
0.14104738154613466,0.00954051878702952,
0.14109725685785537,0.02849070908421053,
0.14114713216957606,-0.012544779219392978,
0.14119700748129677,-0.022752634311090904,
0.14124688279301745,0.023463793762790203,
0.14129675810473816,0.012879830303241985,
