time,amplitude,label
0.0,0.023431787090945313,
4.987531172069826e-05,0.00865807863098567,
9.975062344139652e-05,0.02842905011686585,
0.00014962593516209475,0.013042022132826176,
0.00019950124688279303,0.016581207607192006,
0.00024937655860349125,0.006691203234321499,
0.0002992518703241895,0.016586602848622418,
0.00034912718204488776,-0.0007428499867308917,
0.00039900249376558606,-0.015142223253179753,
0.0004488778054862843,0.014998489156745991,
0.0004987531172069825,-0.0010967120799807491,
0.0005486284289276808,0.029943269151495096,
0.000598503740648379,0.02953736979289937,
0.0006483790523690773,0.024539305054838034,
0.0006982543640897755,0.0011267106481128112,
0.0007481296758104738,0.0070056051066578195,
0.0007980049875311721,0.0208766545132585,
0.0008478802992518703,-0.01971501774419964,
0.0008977556109725686,0.010396691690015692,
0.0009476309226932668,-0.022896749574809784,
0.000997506234413965,0.03953388851861264,
0.0010473815461346633,-0.007861362739360481,
0.0010972568578553616,0.03534998366699069,
0.00114713216957606,-0.010168545289296307,
0.001197007481296758,0.007263859420626025,
0.0012468827930174563,0.011632000164122518,
0.0012967581047381546,0.016590870770243755,
0.001346633416458853,0.0010491868459809907,
0.001396508728179551,-0.001958013239361815,
0.0014463840399002493,0.015821787497669187,
0.0014962593516209476,0.008766329623522775,
0.001546134663341646,0.01701828224442132,
0.0015960099750623442,0.008392092498308214,
0.0016458852867830423,0.023482233783337622,
0.0016957605985037406,0.022063312364972887,
0.001745635910224439,0.04043742498809141,
0.0017955112219451373,0.02575419394050884,
0.0018453865336658353,0.01777930468553703,
0.0018952618453865336,0.024122271191258256,
0.001945137157107232,0.01923087648192201,
0.00199501246882793,0.009257561188448248,
0.0020448877805486283,0.043249867484853044,
0.0020947630922693266,0.02054245837353086,
0.002144638403990025,0.012013217591004408,
0.0021945137157107233,0.014639358916083822,
0.0022443890274314216,0.024828071841836344,
0.00229426433915212,0.044139071567062024,
0.0023441396508728177,0.026104136772638335,
0.002394014962593516,0.007059800301701887,
0.0024438902743142144,0.016945074370081494,
0.0024937655860349127,0.01748401318508481,
0.002543640897755611,0.01626152323383181,
0.0025935162094763093,-0.0015508021373865748,
0.0026433915211970076,0.0005264622125565784,
0.002693266832917706,0.0029893439497777445,
0.002743142144638404,0.005204354187330798,
0.002793017456359102,0.041515336740334925,
0.0028428927680798004,0.02518922338911866,
0.0028927680798004987,0.03653492964828112,
0.002942643391521197,0.006714001139911793,
0.0029925187032418953,0.052216176314592445,
0.0030423940149625936,0.017221425635593587,
0.003092269326683292,0.016230721521026743,
0.00314214463840399,-0.011952100560174008,
0.0031920199501246885,0.00020132436323236705,
0.0032418952618453864,0.01886359931022856,
0.0032917705735660847,0.00021864022019932663,
0.003341645885286783,-0.012549844379297306,
0.0033915211970074813,0.033315708432435115,
0.0034413965087281796,0.016065298689956466,
0.003491271820448878,0.021223088555675295,
0.003541147132169576,0.03134854688440703,
0.0035910224438902745,0.012937493080816018,
0.0036408977556109724,0.02223002328615847,
0.0036907730673316707,-0.001693558378467016,
0.003740648379052369,0.02118989516695882,
0.0037905236907730673,0.028971809537379697,
0.0038403990024937656,0.019215670615460444,
0.003890274314214464,0.03316053462649676,
0.003940149625935162,0.030094246977399826,
0.00399002493765586,0.024404569854968933,
0.004039900249376558,0.014253943318863318,
0.004089775561097257,0.046795216924398586,
0.004139650872817955,0.006787926510410236,
0.004189526184538653,0.03724026845571769,
0.004239401496259352,0.04118267188081914,
0.00428927680798005,0.008198089211389335,
0.004339152119700748,-0.012636106077612369,
0.0043890274314214465,0.035041065093704984,
0.004438902743142145,-0.0006992644811093553,
0.004488778054862843,0.025338541438157218,
0.004538653366583541,0.018053164332902803,
0.00458852867830424,0.04102606339771342,
0.004638403990024938,0.021857322309644798,
0.0046882793017456355,0.030445702176809506,
0.004738154613466334,0.014212760582130151,
0.004788029925187032,0.009816243615324736,
0.00483790523690773,0.04561713701400158,
0.004887780548628429,0.031681910828148446,
0.004937655860349127,0.024842395289425608,
0.004987531172069825,0.017933112748577458,
0.005037406483790524,0.027549736913888775,
0.005087281795511222,0.02420889073713978,
0.00513715710723192,0.002074432469372771,
0.0051870324189526185,0.013773792501457872,
0.005236907730673317,0.004623338538712296,
0.005286783042394015,0.005673666598733274,
0.0053366583541147134,0.037261432033058525,
0.005386533665835412,0.017383000189753323,
0.00543640897755611,0.010386260660240485,
0.005486284289276808,0.018465755874112307,
0.005536159600997507,0.014958294703838937,
0.005586034912718204,-0.001635491017327892,
0.005635910224438902,0.030730453301548014,
0.005685785536159601,0.03267781932883986,
0.005735660847880299,-0.011706462633424824,
0.005785536159600997,0.023745959712518597,
0.005835411471321696,0.023488851189291532,
0.005885286783042394,-0.004501526662483352,
0.005935162094763092,0.015062521047087286,
0.0059850374064837905,0.0024222175265374672,
0.006034912718204489,0.002311868125831902,
0.006084788029925187,-0.004557872521083559,
0.0061346633416458855,0.012377783940806983,
0.006184538653366584,0.019255986486985323,
0.006234413965087282,0.02184301209036171,
0.00628428927680798,0.025466253835099824,
0.006334164588528679,-0.011769242898311428,
0.006384039900249377,0.03253849265569503,
0.006433915211970074,0.0027925256937668032,
0.006483790523690773,-0.009414373992700054,
0.006533665835411471,0.025287172806685264,
0.006583541147132169,0.013251426555795112,
0.006633416458852868,-0.00085413322039362,
0.006683291770573566,0.0016485629143116135,
0.006733167082294264,0.04028801979728526,
0.0067830423940149626,0.019019752329753267,
0.006832917705735661,-0.005886361425285957,
0.006882793017456359,0.026211790105709315,
0.0069326683291770575,0.02548189631396813,
0.006982543640897756,0.025125420656732678,
0.007032418952618454,-0.010540213544560717,
0.007082294264339152,0.016420339941653435,
0.007132169576059851,0.018189681353623567,
0.007182044887780549,0.015101106161720156,
0.007231920199501247,0.03951959671913785,
0.007281795511221945,-0.010700479781097593,
0.007331670822942643,0.010098051981999288,
0.007381546134663341,0.004751800734576724,
0.00743142144638404,0.002822006644476212,
0.007481296758104738,0.01769077109955805,
0.007531172069825436,0.011573662202513857,
0.007581047381546135,-0.0006718960784837611,
0.007630922693266833,0.032103063702851514,
0.007680798004987531,0.019201545886796664,
0.0077306733167082295,0.00989828180906456,
0.007780548628428928,-0.008578733702872422,
0.007830423940149626,0.0091623845255378,
0.007880299251870324,-0.0032483616177008635,
0.007930174563591023,0.01654508790025493,
0.00798004987531172,0.0063715064698244795,
0.00802992518703242,-0.013539293211726679,
0.008079800498753117,0.01380205213803955,
0.008129675810473816,0.02029656012086309,
0.008179551122194513,-0.030223151345658564,
0.008229426433915213,-0.008917281562311658,
0.00827930174563591,0.008819320977739867,
0.00832917705735661,0.023700232230891335,
0.008379052369077307,-0.0032838261784240118,
0.008428927680798006,0.010810479782031248,
0.008478802992518703,0.011338730224625879,
0.0085286783042394,0.00975815821213636,
0.0085785536159601,0.022875364397882517,
0.008628428927680797,0.023047526325144656,
0.008678304239401496,-0.0012121202923790647,
0.008728179551122194,0.006250246819842155,
0.008778054862842893,-0.01999233424343234,
0.00882793017456359,0.04017398335733695,
0.00887780548628429,0.010554658414454243,
0.008927680798004987,-0.0313930188425145,
0.008977556109725686,0.013908907308432831,
0.009027431421446384,-0.019365960110863487,
0.009077306733167083,0.003411889609873396,
0.00912718204488778,-0.006895834828830194,
0.00917705735660848,-0.010077742842046954,
0.009226932668329177,-0.004711759903730633,
0.009276807980049876,0.008916658219884898,
0.009326683291770574,0.005807998770535233,
0.009376558603491271,-0.004662266579427301,
0.00942643391521197,0.00297202315064791,
0.009476309226932668,-0.015551562593613757,
0.009526184538653367,-0.010706638592196662,
0.009576059850374064,-0.009320618097960788,
0.009625935162094763,0.008312791478725285,
0.00967581047381546,-0.02147217942437918,
0.00972568578553616,0.009929698946715686,
0.009775561097256857,0.007919883054455484,
0.009825436408977557,0.004773754204079011,
0.009875311720698254,-0.014177540976835358,
0.009925187032418953,-0.014708898902005454,
0.00997506234413965,0.021840998189092388,
0.01002493765586035,-0.04585791989874801,
0.010074812967581047,-0.023264056429699108,
0.010124688279301746,-0.02416222867934869,
0.010174563591022444,-0.030808378613763714,
0.010224438902743141,-0.032807445845418164,
0.01027431421446384,-0.02806863891349845,
0.010324189526184538,-0.0010533019369847896,
0.010374064837905237,-0.004418705882332502,
0.010423940149625935,0.01397809589883977,
0.010473815461346634,-0.023175700748874286,
0.010523690773067331,-0.004221098755899249,
0.01057356608478803,-0.016715075830705178,
0.010623441396508728,-0.042829598292016526,
0.010673316708229427,-0.04443059224415279,
0.010723192019950124,-0.0257398942976151,
0.010773067331670824,0.01070291089492455,
0.010822942643391521,-0.013326053641498177,
0.01087281795511222,-0.00834219971036224,
0.010922693266832918,0.0027082767001177423,
0.010972568578553617,0.006114802798196848,
0.011022443890274314,-0.030217620938255862,
0.011072319201995013,0.006068191750223547,
0.01112219451371571,-0.006038499168656549,
0.011172069825436408,-0.011364493598180574,
0.011221945137157107,0.009673917151619842,
0.011271820448877805,-0.013045060199138493,
0.011321695760598504,-0.01066771811590069,
0.011371571072319201,-0.02256268398041169,
0.0114214463840399,-0.012273395226980004,
0.011471321695760598,0.00027906191887477547,
0.011521197007481297,-0.02849005590296761,
0.011571072319201995,-0.004153998446360191,
0.011620947630922694,0.006118216237195212,
0.011670822942643391,-0.046315523686964094,
0.01172069825436409,-0.005318652447067593,
0.011770573566084788,-0.04071944358603803,
0.011820448877805487,-0.02046002042943708,
0.011870324189526184,-0.027959023366129914,
0.011920199501246884,-0.023145711219261345,
0.011970074812967581,-0.014110490050206292,
0.012019950124688279,-0.005550932171689374,
0.012069825436408978,0.006803649653304291,
0.012119700748129675,0.0038343743233507574,
0.012169576059850374,-0.013880283198027497,
0.012219451371571072,-0.03828807184439256,
0.012269326683291771,-0.013764649128621692,
0.012319201995012468,-0.006177440938051632,
0.012369077306733168,-0.023911872399425403,
0.012418952618453865,-0.02390887181930444,
0.012468827930174564,-0.023117180179072896,
0.012518703241895262,-0.006684276732158155,
0.01256857855361596,0.0012771485670877158,
0.012618453865336658,-0.008481526240731866,
0.012668329177057357,-0.03419770159909744,
0.012718204488778055,-0.016229063916007057,
0.012768079800498754,-0.013218783559921995,
0.012817955112219451,-0.016011775341168034,
0.012867830423940149,-0.03008976992988739,
0.012917705735660848,0.022470268730978255,
0.012967581047381545,-0.03102855506482711,
0.013017456359102245,-0.014899008700515713,
0.013067331670822942,0.0012382950197351895,
0.013117206982543641,-0.01641590198037334,
0.013167082294264339,-0.020392319686766715,
0.013216957605985038,-0.0005827463127236858,
0.013266832917705735,-0.011794468620590758,
0.013316708229426434,-0.008851520912896742,
0.013366583541147132,0.0050754867233318846,
0.013416458852867831,-0.017127786037833225,
0.013466334164588529,-0.003149755108053029,
0.013516209476309228,-0.02339116460503998,
0.013566084788029925,-0.01637346213824674,
0.013615960099750624,0.0025442111539460653,
0.013665835411471322,-0.03782191098398656,
0.01371571072319202,-0.05087827967210991,
0.013765586034912718,-0.012536154793385108,
0.013815461346633416,-0.0471737116991677,
0.013865336658354115,-0.0035806022326300216,
0.013915211970074812,-0.04035040884227012,
0.013965087281795512,-0.010492742702762719,
0.014014962593516209,-0.009706971919421627,
0.014064837905236908,-0.018650176283649067,
0.014114713216957606,0.0038573691270897825,
0.014164588528678305,-0.01102884923973443,
0.014214463840399002,-0.005612420001676978,
0.014264339152119701,-0.012895135118664303,
0.014314214463840399,0.013186284289551202,
0.014364089775561098,-0.04390567831018641,
0.014413965087281795,-0.03649855743378373,
0.014463840399002495,-0.020908623393116405,
0.014513715710723192,-0.002290630420616984,
0.01456359102244389,-0.013541839897887955,
0.014613466334164589,-0.019349213461568537,
0.014663341645885286,-0.04028762419164471,
0.014713216957605985,-0.02816851648256267,
0.014763092269326683,-0.01928908715327343,
0.014812967581047382,-0.012732658363899169,
0.01486284289276808,-0.032112954559557455,
0.014912718204488778,0.002122196523604798,
0.014962593516209476,-0.01614011202756788,
0.015012468827930175,-0.007588800136928817,
0.015062344139650873,-0.023106930236429093,
0.015112219451371572,-0.011641761920877266,
0.01516209476309227,-0.02816896002400611,
0.015211970074812968,-0.040543765617071334,
0.015261845386533666,-0.004306586998185688,
0.015311720698254365,-0.02203595480521519,
0.015361596009975062,-0.01056020683019035,
0.01541147132169576,-0.01170143812937753,
0.015461346633416459,-0.02074171931427497,
0.015511221945137156,-0.015874201170252494,
0.015561097256857856,-0.047009921192124195,
0.015610972568578553,0.0011472515698719848,
0.015660847880299252,-0.02797498026865809,
0.01571072319201995,-0.0017726278297121624,
0.015760598503740647,-0.023316509292475494,
0.015810473815461346,-0.006973916869596768,
0.015860349127182045,-0.006455292663496811,
0.015910224438902745,-0.011692415340834483,
0.01596009975062344,-0.02428166855465427,
0.01600997506234414,-0.016993674923251625,
0.01605985037406484,-0.021049091582838065,
0.016109725685785538,0.015645219153368764,
0.016159600997506234,-0.03498302997301476,
0.016209476309226933,-0.018427615613843165,
0.016259351620947632,-0.03162253305279915,
0.016309226932668328,-0.023178932486358845,
0.016359102244389027,-0.004363640146879712,
0.016408977556109726,0.0005782469713171891,
0.016458852867830425,-0.02789332411624735,
0.01650872817955112,-0.01842520970638014,
0.01655860349127182,0.01151869896227559,
0.01660847880299252,0.0038892987652861203,
0.01665835411471322,0.009461555943003661,
0.016708229426433914,-0.028914424974435658,
0.016758104738154613,-0.020616319306524293,
0.016807980049875312,-0.03170379959285484,
0.01685785536159601,-0.023588726185585267,
0.016907730673316707,-0.007174374623585331,
0.016957605985037406,-0.023584153579383774,
0.017007481296758106,-0.02151806503533728,
0.0170573566084788,-0.015082307754274039,
0.0171072319201995,-0.007903024242585696,
0.0171571072319202,-0.0013071992762452769,
0.0172069825436409,-0.01690663337191489,
0.017256857855361595,-0.031383159620463105,
0.017306733167082294,-0.005211550206705326,
0.017356608478802993,-0.031129082195337894,
0.017406483790523692,-0.013086981429835196,
0.017456359102244388,-0.01792897672308824,
0.017506234413965087,0.005818030177779914,
0.017556109725685786,-0.01905271651624536,
0.017605985037406485,-0.005648894996437542,
0.01765586034912718,-0.02846961788494304,
0.01770573566084788,-0.0026696155601543623,
0.01775561097256858,-0.006817642269293237,
0.01780548628428928,-0.02654951675624128,
0.017855361596009974,-0.03146175698802296,
0.017905236907730673,-0.016071796004393613,
0.017955112219451373,-0.03931372989548855,
0.018004987531172068,-0.010571954994959765,
0.018054862842892767,-0.004864237585969905,
0.018104738154613467,-0.02607845275390058,
0.018154613466334166,0.021988386148788883,
0.01820448877805486,-0.0028155567603314496,
0.01825436408977556,-0.02989036449416956,
0.01830423940149626,-0.006271631753979025,
0.01835411471321696,-0.007718416330396152,
0.018403990024937655,0.0030896368119141472,
0.018453865336658354,-0.014334311108361145,
0.018503740648379053,0.006927024416701762,
0.018553615960099752,-0.009354449330155775,
0.018603491271820448,0.018714593581323595,
0.018653366583541147,0.015288903198117864,
0.018703241895261846,0.02820301723500015,
0.018753117206982542,-0.008998497231416323,
0.01880299251870324,-0.01609335841181889,
0.01885286783042394,-0.026445781673189256,
0.01890274314214464,0.010551676459360004,
0.018952618453865335,-0.01313616911410795,
0.019002493765586034,-0.014324501024532489,
0.019052369077306733,-0.0028945157442063084,
0.019102244389027433,-0.013880123806147662,
0.01915211970074813,-0.008336046184032568,
0.019201995012468828,0.015286175322521483,
0.019251870324189527,-0.024627126372826512,
0.019301745635910226,-0.006131909932024523,
0.01935162094763092,-0.012337222412640122,
0.01940149625935162,0.011535530701793178,
0.01945137157107232,0.018253222151125882,
0.01950124688279302,0.007935611247249386,
0.019551122194513715,0.0008984438354396273,
0.019600997506234414,0.016480344817357002,
0.019650872817955113,0.003769969963629791,
0.01970074812967581,-0.012327017941299815,
0.019750623441396508,0.002279402264796395,
0.019800498753117207,0.022579570067739092,
0.019850374064837906,0.013134607575081168,
0.019900249376558602,-0.009771869799424886,
0.0199501246882793,0.008728306100979898,
0.02,0.01987766401447373,
0.0200498753117207,0.014807291663963398,
0.020099750623441395,-0.012073364149923762,
0.020149625935162094,-0.0005040112661339,
0.020199501246882794,0.00367385082001089,
0.020249376558603493,0.016027910865201084,
0.02029925187032419,0.009360687180632574,
0.020349127182044888,0.01901921858336942,
0.020399002493765587,0.0310097214201469,
0.020448877805486283,0.03786605922317481,
0.02049875311720698,0.0056597694665092525,
0.02054862842892768,0.0013694174951945984,
0.02059850374064838,-0.0052292780980852,
0.020648379052369076,0.0013522898206479346,
0.020698254364089775,0.020596815539048158,
0.020748129675810474,0.00545279642172853,
0.020798004987531173,0.04264733891510514,
0.02084788029925187,0.021506598396820484,
0.020897755610972568,0.030783693052838065,
0.020947630922693267,0.011887776736942435,
0.020997506234413967,0.009655883244628596,
0.021047381546134662,-0.017615696205755104,
0.02109725685785536,0.01268517425273792,
0.02114713216957606,0.013041861440105818,
0.02119700748129676,0.003206327414387842,
0.021246882793017455,0.038720284280464326,
0.021296758104738155,0.033425315542311054,
0.021346633416458854,0.012755616105999259,
0.02139650872817955,0.0392490223703723,
0.02144638403990025,0.010565265832746272,
0.021496259351620948,-0.006121451868010094,
0.021546134663341647,0.02579362171349506,
0.021596009975062343,-0.0001546708159429408,
0.021645885286783042,0.03756687969681475,
0.02169576059850374,0.024536038715850046,
0.02174563591022444,-0.006039220992534934,
0.021795511221945136,0.037029221426607514,
0.021845386533665835,0.033654674735483975,
0.021895261845386534,0.021821063065087385,
0.021945137157107233,0.03225122498536701,
0.02199501246882793,0.02714695748693873,
0.02204488778054863,0.0008589220395930838,
0.022094763092269327,0.008932472779566283,
0.022144638403990027,0.008173871197673849,
0.022194513715710722,0.003546418705194494,
0.02224438902743142,0.021454894198328876,
0.02229426433915212,0.027353962243564074,
0.022344139650872816,0.04057299459731287,
0.022394014962593516,0.02909304974746688,
0.022443890274314215,0.037524213926687276,
0.022493765586034914,0.002539062121124331,
0.02254364089775561,0.027943935151273344,
0.02259351620947631,0.04356377589440768,
0.022643391521197008,0.01211486582276396,
0.022693266832917707,0.025459372951628416,
0.022743142144638403,0.033297727581492555,
0.022793017456359102,0.011804927164697589,
0.0228428927680798,0.023996586011458397,
0.0228927680798005,0.013555919310178594,
0.022942643391521196,0.027430446990466296,
0.022992518703241895,0.03904164361883223,
0.023042394014962594,0.010781817724085102,
0.02309226932668329,0.0485978832404388,
0.02314214463840399,0.01630525042870397,
0.02319201995012469,0.001069853313404534,
0.023241895261845388,0.01690631006754515,
0.023291770573566083,0.02776361838064216,
0.023341645885286783,0.014970787328222733,
0.02339152119700748,0.020520811184416718,
0.02344139650872818,0.01926308868111241,
0.023491271820448877,0.02616172227877702,
0.023541147132169576,0.042252418351266474,
0.023591022443890275,0.007821915286291852,
0.023640897755610974,0.01875726949811271,
0.02369077306733167,0.03344437029754468,
0.02374064837905237,0.03428968601506707,
0.023790523690773068,0.04068501736446836,
0.023840399002493767,0.024015286484415255,
0.023890274314214463,0.057513432969032906,
0.023940149625935162,0.0003795709115175412,
0.02399002493765586,0.03753843303953373,
0.024039900249376557,0.04002685433160745,
0.024089775561097256,0.03138262102032745,
0.024139650872817955,0.0068512875897351454,
0.024189526184538655,0.009269733103121791,
0.02423940149625935,0.021875123445712092,
0.02428927680798005,-0.009460009168207707,
0.02433915211970075,0.03005080831809772,
0.024389027431421448,0.01611967767795435,
0.024438902743142144,0.011340972056930588,
0.024488778054862843,0.02139095434455156,
0.024538653366583542,0.008535651246715658,
0.02458852867830424,0.026625121505330675,
0.024638403990024937,0.022406146814045628,
0.024688279301745636,0.004061809647039012,
0.024738154613466335,0.04319190953431502,
0.02478802992518703,0.009202646211464657,
0.02483790523690773,0.05490818566347956,
0.02488778054862843,0.03469440419003077,
0.02493765586034913,0.016274314522778634,
0.024987531172069824,0.017238763439444808,
0.025037406483790523,0.05725128800063688,
0.025087281795511222,0.013190586163025497,
0.02513715710723192,-0.021863457045157207,
0.025187032418952617,0.02083569630527888,
0.025236907730673316,0.026260817202781304,
0.025286783042394016,0.025492224932434887,
0.025336658354114715,0.009977943146965738,
0.02538653366583541,-0.005011754164197784,
0.02543640897755611,0.00807758755849694,
0.02548628428927681,0.012664636297317169,
0.025536159600997508,0.03021996220085086,
0.025586034912718204,0.026772224810129176,
0.025635910224438903,0.025767948870508765,
0.025685785536159602,0.01146554765181011,
0.025735660847880298,0.02598981610580338,
0.025785536159600997,0.017622726745324335,
0.025835411471321696,0.01023736043693009,
0.025885286783042395,-0.003670389401269531,
0.02593516209476309,0.024000896179369045,
0.02598503740648379,0.01172654956734996,
0.02603491271820449,0.01990161164933916,
0.02608478802992519,0.019655101317060948,
0.026134663341645884,0.019310080648167898,
0.026184538653366583,0.029165187008251964,
0.026234413965087282,0.017520576132710252,
0.02628428927680798,-0.002730692642491997,
0.026334164588528677,0.03309414507705648,
0.026384039900249377,0.005248252247482099,
0.026433915211970076,0.021989167562593226,
0.02648379052369077,-0.001277242783337719,
0.02653366583541147,0.010794115725877832,
0.02658354114713217,0.01736107800353303,
0.02663341645885287,0.01453888416625652,
0.026683291770573565,0.025913901951471502,
0.026733167082294264,0.03556091494266386,
0.026783042394014963,-0.0016902505299524993,
0.026832917705735662,0.02067097074960221,
0.026882793017456358,0.00382353169809508,
0.026932668329177057,0.011025662761276152,
0.026982543640897756,0.02641899004778065,
0.027032418952618455,0.01984252340229801,
0.02708229426433915,0.023415419603809263,
0.02713216957605985,0.01229782737323359,
0.02718204488778055,0.015946808594239997,
0.02723192019950125,0.04811523560818089,
0.027281795511221944,0.009729942372509156,
0.027331670822942643,0.009107763909823595,
0.027381546134663343,-0.01156383761828168,
0.02743142144638404,0.013779598640232833,
0.027481296758104738,0.009997797356631942,
0.027531172069825437,0.005943875326927677,
0.027581047381546136,0.01075700811611927,
0.02763092269326683,0.023596065896496328,
0.02768079800498753,0.010379170459797443,
0.02773067331670823,-0.001358822286886394,
0.02778054862842893,0.036964567016761624,
0.027830423940149625,0.03365795499343548,
0.027880299251870324,0.010355638360688722,
0.027930174563591023,-0.007795424110373109,
0.027980049875311722,-0.004764056443567571,
0.028029925187032418,0.01948349387115834,
0.028079800498753117,0.01912846736579331,
0.028129675810473816,0.018501267590285378,
0.028179551122194512,-0.0040311654952738425,
0.02822942643391521,0.01716231800210922,
0.02827930174563591,0.011759356327784309,
0.02832917705735661,0.0340071183127624,
0.028379052369077305,-0.0016707745946045946,
0.028428927680798004,-0.009947306188839145,
0.028478802992518704,0.01917501120342546,
0.028528678304239403,0.003557906389335729,
0.0285785536159601,0.01641565254929545,
0.028628428927680798,-0.0007294764193163062,
0.028678304239401497,0.024309225934488886,
0.028728179551122196,0.01955191436457448,
0.02877805486284289,0.009816997965827993,
0.02882793017456359,0.038286734450698634,
0.02887780548628429,-0.009241703857147064,
0.02892768079800499,0.012515113358063459,
0.028977556109725685,0.010420594389398108,
0.029027431421446384,-0.006157579523360936,
0.029077306733167083,0.01278708985445578,
0.02912718204488778,-0.014482294007487323,
0.029177057356608478,0.009677789990390168,
0.029226932668329177,-0.0006040807157920716,
0.029276807980049877,0.012506432431192397,
0.029326683291770572,0.004044171437436804,
0.02937655860349127,0.02045537369239582,
0.02942643391521197,0.010511243464392372,
0.02947630922693267,0.005752916068818573,
0.029526184538653365,-0.018846501520467213,
0.029576059850374065,0.018022175585413438,
0.029625935162094764,-0.002330995230355886,
0.029675810473815463,0.003729205931382477,
0.02972568578553616,-0.008397325521180927,
0.029775561097256858,-0.003783701648720359,
0.029825436408977557,-0.031804181570864454,
0.029875311720698253,-0.0028918213074021113,
0.029925187032418952,0.007778424755088658,
0.02997506234413965,0.0015323700906469942,
0.03002493765586035,-0.028615635669094593,
0.030074812967581046,0.0014157399496315982,
0.030124688279301745,-0.027617052103356087,
0.030174563591022444,0.008292060871293479,
0.030224438902743143,-0.02030408396823479,
0.03027431421446384,-0.02733945189053492,
0.03032418952618454,0.024326599614827214,
0.030374064837905237,0.0015211838453994282,
0.030423940149625937,-0.001284097631935168,
0.030473815461346632,-0.015001160213607508,
0.03052369077306733,-0.013196916931550094,
0.03057356608478803,-0.0027921628605688297,
0.03062344139650873,-0.016477624980177928,
0.030673316708229426,0.006551792304409909,
0.030723192019950125,-0.012186470164993992,
0.030773067331670824,0.003947990853535961,
0.03082294264339152,-0.01926896736124873,
0.03087281795511222,-0.003757147249327253,
0.030922693266832918,0.0005008723130777125,
0.030972568578553617,0.0012513178756467288,
0.031022443890274313,-0.029680186510756646,
0.031072319201995012,0.009551250317466767,
0.03112219451371571,-0.020099871057999492,
0.03117206982543641,-0.010955976434587344,
0.031221945137157106,-0.012262589659387967,
0.03127182044887781,-0.00724608304712104,
0.031321695760598504,0.0040493310731212415,
0.0313715710723192,-0.023976274698533022,
0.0314214463840399,-0.006880292483619233,
0.0314713216957606,-0.006843516251289016,
0.031521197007481294,0.0023255650600561024,
0.031571072319202,-0.028538502776948856,
0.03162094763092269,-0.009636558936171265,
0.03167082294264339,-0.005665680984366564,
0.03172069825436409,-0.02011103284051404,
0.03177057356608479,-0.003055378626950456,
0.03182044887780549,-0.019539622068849377,
0.031870324189526185,-0.02403229412697311,
0.03192019950124688,0.0023927022791263505,
0.03197007481296758,-0.01179142289525923,
0.03201995012468828,-0.020326481119296046,
0.032069825436408975,-0.022298699178621473,
0.03211970074812968,0.0017317189695745527,
0.03216957605985037,-0.01120916941554345,
0.032219451371571076,-0.025769430977776286,
0.03226932668329177,-0.021792845503266496,
0.03231920199501247,0.0012069990148763973,
0.03236907730673317,-0.026565071465148627,
0.032418952618453865,-0.017990083754632548,
0.03246882793017456,-0.024562264889526418,
0.032518703241895264,-0.005646794680071197,
0.03256857855361596,-0.014929122601812617,
0.032618453865336655,-0.00513661135203042,
0.03266832917705736,-0.017651906792569387,
0.032718204488778053,-0.01576691863183333,
0.032768079800498756,0.010984489299315912,
0.03281795511221945,-0.039585524382702894,
0.03286783042394015,-0.008649060307936208,
0.03291770573566085,-0.019114458441605944,
0.032967581047381546,-6.961369176044369e-05,
0.03301745635910224,-0.02432634126157672,
0.033067331670822944,-0.0020843901975478255,
0.03311720698254364,-0.007836788432174684,
0.03316708229426434,-0.0146030940501187,
0.03321695760598504,0.0040060691594858075,
0.033266832917705734,-0.01800559102203217,
0.03331670822942644,-0.044060417573549664,
0.03336658354114713,-0.02777277976249104,
0.03341645885286783,-0.0009874438353335846,
0.03346633416458853,-0.0228350359268442,
0.033516209476309226,0.0016329001734478286,
0.03356608478802992,-0.00430778795147445,
0.033615960099750625,-0.007243999454160965,
0.03366583541147132,0.0036402575624627335,
0.03371571072319202,-0.020397781631929058,
0.03376558603491272,-0.007784133100855619,
0.033815461346633414,-0.017270739970956666,
0.03386533665835412,-0.002516702919562191,
0.03391521197007481,-0.020057195263001946,
0.03396508728179551,-0.010509794002451058,
0.03401496259351621,-0.022995710594411363,
0.03406483790523691,-0.012916277099238819,
0.0341147132169576,-0.018705022209804023,
0.034164588528678305,-0.004226527402161359,
0.034214463840399,-0.018317574675177337,
0.034264339152119704,-0.01606756300100079,
0.0343142144638404,-0.0463454762041127,
0.034364089775561095,-0.0006240131680063064,
0.0344139650872818,-0.0045157696986103425,
0.03446384039900249,-0.009064424339401644,
0.03451371571072319,-0.014076335289859555,
0.03456359102244389,-0.007549339984010892,
0.03461346633416459,-0.03825886042924485,
0.03466334164588529,0.00957089455751783,
0.034713216957605986,0.003153432354975696,
0.03476309226932668,-0.03467042822895814,
0.034812967581047384,0.0007847232088045546,
0.03486284289276808,-0.004528931093709443,
0.034912718204488775,-0.03278083113057975,
0.03496259351620948,-0.03810525717260381,
0.035012468827930174,-0.01592990401760974,
0.03506234413965087,-0.03531800633717051,
0.03511221945137157,-0.008656550283102457,
0.03516209476309227,-0.01993687205226203,
0.03521197007481297,-0.037189555338408016,
0.035261845386533666,-0.016237561779215554,
0.03531172069825436,-0.0007066540437775919,
0.035361596009975065,-0.012815366640779337,
0.03541147132169576,-0.008984536030192378,
0.035461346633416456,-0.011896284660705837,
0.03551122194513716,0.002734267273008092,
0.035561097256857854,-0.0149046223649173,
0.03561097256857856,-0.025494839172279606,
0.03566084788029925,-0.04477235954252615,
0.03571072319201995,-0.026231163062186313,
0.03576059850374065,-0.014158734406085586,
0.03581047381546135,0.02179662507572877,
0.03586034912718204,-0.0098338881041112,
0.035910224438902745,-0.007085750177725726,
0.03596009975062344,-0.004183552082909157,
0.036009975062344136,-0.011552989771963295,
0.03605985037406484,0.007483243889757348,
0.036109725685785535,-0.0016006752813207976,
0.03615960099750624,-0.02418627793252212,
0.03620947630922693,-0.018793726901065674,
0.03625935162094763,0.003457018203420507,
0.03630922693266833,-0.024539759703819095,
0.03635910224438903,-0.02146305710825723,
0.03640897755610972,0.03584203258365641,
0.036458852867830426,0.023740324667961072,
0.03650872817955112,-0.020155919264649665,
0.036558603491271824,-0.01654831002402642,
0.03660847880299252,-0.021234910207139815,
0.036658354114713215,-0.03231005557050344,
0.03670822942643392,-0.04411279310732791,
0.036758104738154614,0.008261290943895844,
0.03680798004987531,-0.03143533953952993,
0.03685785536159601,-0.010506841016516664,
0.03690773067331671,0.006563197184826491,
0.0369576059850374,-0.016470438103901603,
0.037007481296758106,-0.011502895434163943,
0.0370573566084788,0.0020224208937195086,
0.037107231920199504,-4.7981197836274164e-05,
0.0371571072319202,-0.019766435957202524,
0.037206982543640896,-0.0034962340524505343,
0.0372568578553616,-0.02392651052534516,
0.037306733167082294,-0.026298846330902226,
0.03735660847880299,-0.015104159011068407,
0.03740648379052369,-0.011042095540651232,
0.03745635910224439,-0.018718664121640683,
0.037506234413965084,0.002321886874859236,
0.037556109725685786,-0.02746917527854953,
0.03760598503740648,-0.021425224071373556,
0.037655860349127185,0.004557026296428556,
0.03770573566084788,-0.012865565761203917,
0.037755610972568576,-0.020450040672187426,
0.03780548628428928,0.012296531695376164,
0.037855361596009975,-0.046896296444353044,
0.03790523690773067,-0.00544096985463378,
0.03795511221945137,0.0014169939062572225,
0.03800498753117207,-0.019016606490326132,
0.03805486284289277,-0.006128563445050834,
0.03810473815461347,0.000288318849806438,
0.03815461346633416,-0.01956833965827136,
0.038204488778054865,-0.020248127081576178,
0.03825436408977556,-0.011019941311070463,
0.03830423940149626,-0.02168363482420679,
0.03835411471321696,-0.0076498234343238105,
0.038403990024937655,-0.0022558034463051905,
0.03845386533665835,-0.018463691875345016,
0.03850374064837905,-0.008532803581466636,
0.03855361596009975,0.004848764769424203,
0.03860349127182045,-0.0038023476126113303,
0.03865336658354115,-0.007613501552154804,
0.03870324189526184,-0.023167058304236834,
0.038753117206982546,-0.02742031272378366,
0.03880299251870324,0.01521584610032497,
0.03885286783042394,0.006569793214879756,
0.03890274314214464,-0.006507846805863415,
0.038952618453865336,0.02035067186673699,
0.03900249376558604,0.0099340126279608,
0.039052369077306734,0.012675300976545428,
0.03910224438902743,0.015338703671337186,
0.03915211970074813,0.006440128836364347,
0.03920199501246883,0.0038090943601534065,
0.039251870324189524,0.010611429883717511,
0.039301745635910226,-0.00018852071130141205,
0.03935162094763092,0.0012877686974825608,
0.03940149625935162,0.012067241559961993,
0.03945137157107232,0.0015939867358766109,
0.039501246882793016,0.009570444295844801,
0.03955112219451372,0.03967929632258911,
0.039600997506234414,0.008255489752245531,
0.03965087281795511,-0.005044800996307254,
0.03970074812967581,-0.010685698803715678,
0.03975062344139651,-0.0031655842676418643,
0.039800498753117204,0.03050736705868185,
0.03985037406483791,-0.0003176425543584809,
0.0399002493765586,0.00021119042797936027,
0.039950124688279305,-0.02931269134506696,
0.04,0.026405392401745297,
0.0400498753117207,0.005190500916200435,
0.0400997506234414,-0.0027245464473976983,
0.040149625935162095,0.0010875535354248171,
0.04019950124688279,-0.006743949892567094,
0.04024937655860349,-0.0019804506843284567,
0.04029925187032419,-0.02325145115662173,
0.040349127182044885,0.01692724312501444,
0.04039900249376559,0.007316627085578782,
0.04044887780548628,0.0257406434799543,
0.040498753117206986,0.00682094347883993,
0.04054862842892768,0.0033167358044461585,
0.04059850374064838,0.028508263953083417,
0.04064837905236908,0.020522820187601033,
0.040698254364089775,0.019168300235437814,
0.04074812967581047,0.02213364200462696,
0.040798004987531174,0.004562050637234782,
0.04084788029925187,0.015709154535386106,
0.040897755610972565,0.04377765823184774,
0.04094763092269327,0.01587851714479706,
0.04099750623441396,0.04617417132476469,
0.041047381546134666,0.03248251046139476,
0.04109725685785536,-0.0011920257187884274,
0.04114713216957606,0.001999657168298209,
0.04119700748129676,0.048871663019761605,
0.041246882793017456,0.03878613989112736,
0.04129675810473815,0.020986855158775727,
0.041346633416458854,0.012726571168639296,
0.04139650872817955,0.03783446197289486,
0.04144638403990025,0.026261262590482108,
0.04149625935162095,0.029532982819330575,
0.041546134663341644,0.005097532906109833,
0.04159600997506235,0.02858141214489657,
0.04164588528678304,0.01955401473541767,
0.04169576059850374,0.04680802901302868,
0.04174563591022444,0.01666724818292696,
0.041795511221945136,0.05119625506102155,
0.04184538653366583,0.009140276865271888,
0.041895261845386535,0.018329319225243598,
0.04194513715710723,0.052095374429228174,
0.04199501246882793,0.023944443141573166,
0.04204488778054863,0.009474201645327054,
0.042094763092269324,0.008461787972109672,
0.04214463840399003,0.0011711843140812285,
0.04219451371571072,0.02419294292849053,
0.04224438902743142,0.02739918056737773,
0.04229426433915212,0.013344742465908584,
0.04234413965087282,0.020314079097523013,
0.04239401496259352,0.03214722467645395,
0.042443890274314215,0.012265876608904151,
0.04249376558603491,0.017962644381331345,
0.042543640897755614,0.025650209854382888,
0.04259351620947631,-0.002354968151290604,
0.042643391521197005,0.04216282084444024,
0.04269326683291771,0.0335232933552127,
0.0427431421446384,-0.010292903040737527,
0.0427930174563591,0.029345609710484506,
0.0428428927680798,0.015837578477495208,
0.0428927680798005,0.045063427910534345,
0.0429426433915212,0.010076194078421159,
0.042992518703241896,0.04344105232927811,
0.04304239401496259,0.03305297602584989,
0.043092269326683294,0.03623630172360825,
0.04314214463840399,0.010131239471728757,
0.043192019950124685,0.021116824902208217,
0.04324189526184539,0.03231806028308823,
0.043291770573566084,0.03251719817464228,
0.043341645885286786,0.03824838411650286,
0.04339152119700748,0.014530189540138337,
0.04344139650872818,0.007683902020624165,
0.04349127182044888,0.03190345875489865,
0.043541147132169576,0.02556620232794112,
0.04359102244389027,0.027887710160197872,
0.043640897755610975,0.03324044313009742,
0.04369077306733167,0.011087817650278615,
0.043740648379052366,0.017013968355443575,
0.04379052369077307,0.017832352371337238,
0.043840399002493764,0.035537214599591374,
0.04389027431421447,0.034951826901032136,
0.04394014962593516,0.039181928400348245,
0.04399002493765586,0.01578644564910156,
0.04403990024937656,0.03205333171048051,
0.04408977556109726,0.0027775251224785268,
0.04413965087281795,0.024558060551492313,
0.044189526184538655,0.04285970100494613,
0.04423940149625935,0.016731631557445618,
0.04428927680798005,0.0005065468962538143,
0.04433915211970075,0.0298528778009188,
0.044389027431421445,0.019169057122291312,
0.04443890274314215,0.011467288580191054,
0.04448877805486284,0.011200589888829339,
0.04453865336658354,0.026195234064501412,
0.04458852867830424,0.01602806210350974,
0.04463840399002494,0.01962584585259828,
0.04468827930174563,0.02116044331040391,
0.044738154613466335,0.04895118685582113,
0.04478802992518703,0.022693358125595767,
0.044837905236907734,0.008122636160034061,
0.04488778054862843,0.04188293597755527,
0.044937655860349125,0.03518378556068707,
0.04498753117206983,0.030060461342686015,
0.045037406483790524,0.022611322502091524,
0.04508728179551122,0.03283332353097991,
0.04513715710723192,0.01787520289801944,
0.04518703241895262,0.02159832100545016,
0.04523690773067331,0.014501114886286415,
0.045286783042394016,0.041857489895103156,
0.04533665835411471,0.030697515043773042,
0.045386533665835414,0.018522233308570942,
0.04543640897755611,0.0017465035845395625,
0.045486284289276806,0.041572842816537045,
0.04553615960099751,0.014611678358651365,
0.045586034912718204,0.021343002637167856,
0.0456359102244389,0.003452660566523897,
0.0456857855361596,0.0062275827434826545,
0.0457356608478803,0.03376414311541754,
0.045785536159601,0.017158207318920378,
0.045835411471321696,0.010386598656574257,
0.04588528678304239,0.034631781472143776,
0.045935162094763095,0.03261065887417049,
0.04598503740648379,0.028209386047893338,
0.046034912718204486,0.035285565125675974,
0.04608478802992519,0.010167954173152575,
0.046134663341645885,0.0102618649417144,
0.04618453865336658,0.0431996711566702,
0.04623441396508728,0.0024422246661735397,
0.04628428927680798,0.015969513459292525,
0.04633416458852868,0.04671190957195697,
0.04638403990024938,0.017114801355162038,
0.04643391521197007,0.03629680968772157,
0.046483790523690775,0.03463504360575691,
0.04653366583541147,-0.03018205409047501,
0.04658354114713217,0.008581973387623783,
0.04663341645885287,0.015455839488656885,
0.046683291770573565,0.02018832191397213,
0.04673316708229427,0.02951439105447748,
0.04678304239401496,0.012325605215830702,
0.04683291770573566,0.02892471354506239,
0.04688279301745636,-0.0012651219171302304,
0.04693266832917706,0.03328359182994567,
0.04698254364089775,0.02130246390481072,
0.047032418952618456,0.03615219020767022,
0.04708229426433915,-0.014298327617914478,
0.04713216957605985,0.02133982260293471,
0.04718204488778055,0.01585333440189155,
0.047231920199501246,0.017595724301791398,
0.04728179551122195,-0.00448149992060257,
0.047331670822942644,0.004844302854237795,
0.04738154613466334,0.016697633610430723,
0.04743142144638404,0.02712532486087385,
0.04748129675810474,-0.003298363807157116,
0.047531172069825434,0.004835936014899246,
0.047581047381546136,-0.01209205699921223,
0.04763092269326683,-0.009802488014547073,
0.047680798004987535,-0.0012158813964855218,
0.04773067331670823,-0.0010505592425438127,
0.047780548628428926,0.01151390850322286,
0.04783042394014963,-0.0037546107586281553,
0.047880299251870324,0.010381594543177157,
0.04793017456359102,0.00082215738009578,
0.04798004987531172,0.024661628267191794,
0.04802992518703242,0.010174032252102935,
0.048079800498753114,0.01839005924292603,
0.04812967581047382,0.019476272651382128,
0.04817955112219451,0.010095826743419946,
0.048229426433915215,0.0063170512527489925,
0.04827930174563591,0.015714984491378946,
0.048329177057356607,-0.012313268760225137,
0.04837905236907731,0.03720569131932355,
0.048428927680798005,0.020405557627965375,
0.0484788029925187,0.035221093102850584,
0.0485286783042394,-0.0009187586444854099,
0.0485785536159601,-0.020105811585559658,
0.048628428927680795,0.017004895535990536,
0.0486783042394015,-0.004585995621431584,
0.04872817955112219,-0.01077435828818974,
0.048778054862842896,0.01715554936077109,
0.04882793017456359,0.01393609701107253,
0.04887780548628429,-0.010484316483719312,
0.04892768079800499,0.02482649206560533,
0.048977556109725685,-0.008384785416467217,
0.04902743142144638,0.010514115270170652,
0.049077306733167084,-0.007153535035323077,
0.04912718204488778,0.007535860234488179,
0.04917705735660848,0.016722606584544795,
0.04922693266832918,0.03824688955319144,
0.04927680798004987,0.007433233013996827,
0.049326683291770576,0.01609187507243666,
0.04937655860349127,0.02195304044475508,
0.04942643391521197,-0.007056767707501199,
0.04947630922693267,0.0005993518527297876,
0.049526184538653366,-0.011398986614454031,
0.04957605985037406,0.003287514883523425,
0.049625935162094764,0.020647515105633778,
0.04967581047381546,-0.030585423174057914,
0.04972568578553616,0.003219780922991172,
0.04977556109725686,0.021467819472153,
0.049825436408977554,-0.03445642818199828,
0.04987531172069826,-0.0182222562488616,
0.04992518703241895,-0.009830698887130347,
0.04997506234413965,-0.01770326696100881,
0.05002493765586035,0.022349593631094095,
0.050074812967581046,-0.009720914837793084,
0.05012468827930175,-0.004265707038793412,
0.050174563591022445,-0.018913275891609897,
0.05022443890274314,0.020204390495681904,
0.05027431421446384,-0.002821299542957477,
0.05032418952618454,-0.009694824746822227,
0.050374064837905234,-0.002622359919491916,
0.05042394014962594,0.03191693990901304,
0.05047381546134663,-0.020289964188979794,
0.05052369077306733,0.012903141242474095,
0.05057356608478803,-0.014729394197054723,
0.05062344139650873,-0.005791355433667289,
0.05067331670822943,-0.0018919440943955482,
0.050723192019950125,-0.021639711718053272,
0.05077306733167082,-0.00529772672539976,
0.050822942643391524,-0.011643133609095333,
0.05087281795511222,0.007949793396357738,
0.050922693266832915,-0.010075976961684793,
0.05097256857855362,-0.01742893032851106,
0.05102244389027431,-0.004616919471864859,
0.051072319201995016,0.008528682483213963,
0.05112219451371571,-0.030388770424665017,
0.05117206982543641,-0.0071389989542354985,
0.05122194513715711,-0.007669440002322153,
0.051271820448877806,-0.0053896735824252185,
0.0513216957605985,-0.01149819082743345,
0.051371571072319204,-0.0037137062092327507,
0.0514214463840399,-0.013308728505273777,
0.051471321695760595,-0.008084745374306711,
0.0515211970074813,-0.014968184267094519,
0.051571072319201994,-0.013784534079647555,
0.051620947630922696,-0.010796627103820133,
0.05167082294264339,0.011105779981480133,
0.05172069825436409,-0.010745487616861943,
0.05177057356608479,0.0016769696496851828,
0.051820448877805486,-0.00813625122681878,
0.05187032418952618,-0.010572425223299873,
0.051920199501246884,0.004749001443098925,
0.05197007481296758,-0.025667137962739287,
0.052019950124688276,0.001645894018839033,
0.05206982543640898,-0.01881740260493051,
0.052119700748129674,-0.004037584642224224,
0.05216957605985038,-0.009684351000763819,
0.05221945137157107,-0.004271619158282208,
0.05226932668329177,-0.017184999457825693,
0.05231920199501247,-0.017182473275618965,
0.05236907730673317,-0.043401763913374025,
0.05241895261845386,-0.018323878508097836,
0.052468827930174565,-0.014260275487227934,
0.05251870324189526,-0.010001769651529413,
0.05256857855361596,-0.022089970867239263,
0.05261845386533666,-0.028311373987078683,
0.052668329177057355,-0.013508398041475668,
0.05271820448877806,-0.011779954707550236,
0.05276807980049875,-0.027507719605628287,
0.05281795511221945,0.007561727160460847,
0.05286783042394015,-0.0075719164986668116,
0.05291770573566085,-0.024229424508141237,
0.05296758104738154,-0.02296374833934858,
0.053017456359102245,-0.02676037289757962,
0.05306733167082294,-0.00413975523484587,
0.053117206982543644,-0.04229027687726413,
0.05316708229426434,-0.033718896403162016,
0.053216957605985035,-0.004341505908362129,
0.05326683291770574,-0.01777110343090272,
0.053316708229426434,-0.009100403010231439,
0.05336658354114713,-0.029539186836157555,
0.05341645885286783,-0.009938003065989008,
0.05346633416458853,-0.031033566609755397,
0.05351620947630923,-0.020023635209686613,
0.053566084788029926,-0.042746773832814826,
0.05361596009975062,-0.014146440130447871,
0.053665835411471324,-0.03917999262299662,
0.05371571072319202,-0.026594346302260576,
0.053765586034912716,0.007124760993096092,
0.05381546134663342,-0.000355654173551127,
0.053865336658354114,-0.02307519171868575,
0.05391521197007481,-0.0033944300124961104,
0.05396508728179551,-0.00567316449740491,
0.05401496259351621,0.023843465134828514,
0.05406483790523691,-0.008760631025019994,
0.054114713216957606,-0.01621021107836473,
0.0541645885286783,-0.027001297963046546,
0.054214463840399005,-0.037827338017831835,
0.0542643391521197,0.006243307681836199,
0.054314214463840396,-0.008551396421117187,
0.0543640897755611,0.0046115265367079085,
0.054413965087281795,-0.021362270262157514,
0.0544638403990025,-0.03174048869271104,
0.05451371571072319,-0.017871618437694792,
0.05456359102244389,-0.017658779483221507,
0.05461346633416459,-0.005813851144569967,
0.05466334164588529,-0.02842596451483907,
0.05471321695760598,-0.025963420646868133,
0.054763092269326685,-0.015941022828460938,
0.05481296758104738,-0.017020701701532033,
0.05486284289276808,-0.028137568727011814,
0.05491271820448878,-0.019952274100975786,
0.054962593516209475,-0.012075809837748495,
0.05501246882793018,-0.011615408906057497,
0.05506234413965087,-0.04378448823930741,
0.05511221945137157,-0.01867693992616038,
0.05516209476309227,-0.010691252837709234,
0.05521197007481297,-0.03720325216235812,
0.05526184538653366,-0.02446222166861381,
0.055311720698254366,-0.017098396346649104,
0.05536159600997506,0.006108830273063382,
0.05541147132169576,-0.004621613915692399,
0.05546134663341646,-0.00519007697003351,
0.055511221945137156,-0.024540132173514285,
0.05556109725685786,-0.012168040963110164,
0.055610972568578554,-0.00611371071976961,
0.05566084788029925,0.025326711625772595,
0.05571072319201995,-0.003035105653699695,
0.05576059850374065,-0.03755756132111249,
0.055810473815461344,-0.0291737371660701,
0.055860349127182046,-0.005102683420576466,
0.05591022443890274,-0.036699211817760154,
0.055960099750623445,0.001739547281614122,
0.05600997506234414,-0.004364818774701938,
0.056059850374064836,-0.035750404869453536,
0.05610972568578554,0.012283716271545645,
0.056159600997506234,0.012774611281655752,
0.05620947630922693,-0.0005349790650992278,
0.05625935162094763,0.011686614932639481,
0.05630922693266833,-0.009410904712116143,
0.056359102244389024,-0.006823653392139369,
0.05640897755610973,-0.008457647500186283,
0.05645885286783042,0.0003328682507686004,
0.056508728179551125,5.5012931842929325e-05,
0.05655860349127182,-0.0007507665241964813,
0.056608478802992516,-0.025190728179960827,
0.05665835411471322,-0.004650719962821994,
0.056708229426433915,-0.018835531741273687,
0.05675810473815461,-0.004226856434614896,
0.05680798004987531,-0.0001813960461905413,
0.05685785536159601,0.008221814791510717,
0.05690773067331671,-0.0036168573093428268,
0.05695760598503741,-0.009308876886329883,
0.0570074812967581,-0.024848333346484775,
0.057057356608478806,0.0008374026675869867,
0.0571072319201995,-0.029119036695432,
0.0571571072319202,-0.012612110337187918,
0.0572069825436409,0.01978399184086046,
0.057256857855361595,0.008990428256553374,
0.05730673316708229,0.003911120338327986,
0.057356608478802994,-0.009101113903202836,
0.05740648379052369,-0.0013554415170504942,
0.05745635910224439,0.025518999526876328,
0.05750623441396509,-0.024470773122712154,
0.05755610972568578,-0.01367142349839522,
0.057605985037406486,-0.013199484111640193,
0.05765586034912718,-0.027684446989571593,
0.05770573566084788,-0.00981876069104341,
0.05775561097256858,-0.010867951558555532,
0.057805486284289276,-0.02075162630176259,
0.05785536159600998,0.028438100531454936,
0.057905236907730674,-0.015241978275005709,
0.05795511221945137,0.008956844209064164,
0.05800498753117207,-0.010545546523564566,
0.05805486284289277,0.010171181694417376,
0.058104738154613464,-0.009441375040499779,
0.05815461346633417,0.0031396733823110265,
0.05820448877805486,0.01132963887407519,
0.05825436408977556,-0.005041922375419032,
0.05830423940149626,0.030315082941181123,
0.058354114713216956,-0.007192134320616001,
0.05840399002493766,-0.03507478552111474,
0.058453865336658355,-0.002360457410599301,
0.05850374064837905,-0.014948079697994419,
0.05855361596009975,-0.005213239346817236,
0.05860349127182045,0.02553325006936852,
0.058653366583541144,-0.0059949168941890426,
0.05870324189526185,0.0031691903021470944,
0.05875311720698254,-0.018922338459335955,
0.05880299251870324,-0.010608130367405797,
0.05885286783042394,0.012400276690785549,
0.05890274314214464,-0.002913894879117882,
0.05895261845386534,-0.0062016847943581295,
0.059002493765586035,0.015145994557207677,
0.05905236907730673,-0.019225620451605432,
0.059102244389027433,-0.01919833015348277,
0.05915211970074813,0.01604033594144135,
0.059201995012468825,0.01732689285382235,
0.05925187032418953,-0.01693151865746102,
0.05930174563591022,0.007663511515626151,
0.059351620947630926,0.010373349880286426,
0.05940149625935162,0.007423813052477451,
0.05945137157107232,-0.004385835175597728,
0.05950124688279302,-0.002031306308360693,
0.059551122194513716,-0.008932530651203556,
0.05960099750623441,0.023071478984107968,
0.059650872817955114,-0.01513362631338245,
0.05970074812967581,-0.0014914907324167937,
0.059750623441396505,0.011675032796163724,
0.05980049875311721,0.007584587177735877,
0.059850374064837904,0.028822153839348108,
0.059900249376558606,0.013241264846026198,
0.0599501246882793,-0.01783577842001978,
0.06,0.009838754011402853,
0.0600498753117207,0.016162568752338867,
0.060099750623441396,0.017091546298303943,
0.06014962593516209,-0.0011534725324764891,
0.060199501246882794,-0.004366358430385676,
0.06024937655860349,0.039118678559372164,
0.06029925187032419,0.015530702218630437,
0.06034912718204489,0.004015049024404837,
0.060399002493765584,-0.007499005173537193,
0.06044887780548629,0.022771944500376482,
0.06049875311720698,0.003841582057024704,
0.06054862842892768,0.010198864495501333,
0.06059850374064838,0.016772747046347992,
0.06064837905236908,-0.015085243797001841,
0.06069825436408977,0.02315011798137195,
0.060748129675810475,0.007602032388723608,
0.06079800498753117,0.021663894539269177,
0.06084788029925187,0.0097277669660998,
0.06089775561097257,0.012653922460930712,
0.060947630922693265,0.0018475906055910422,
0.06099750623441397,0.021935343394078453,
0.06104738154613466,0.01643660284962758,
0.06109725685785536,-0.01071370413979083,
0.06114713216957606,0.005192843706446144,
0.06119700748129676,0.014999403598830376,
0.06124688279301746,0.017852899803388972,
0.061296758104738155,0.01940527153947299,
0.06134663341645885,0.028462941355223176,
0.061396508728179554,0.034243647868949935,
0.06144638403990025,0.025741090091165816,
0.061496259351620945,0.012136281647780817,
0.06154613466334165,0.02764701215583172,
0.061596009975062344,0.004465678585773333,
0.06164588528678304,0.02046663801571978,
0.06169576059850374,0.02612137847687013,
0.06174563591022444,0.016360339858825824,
0.06179551122194514,0.034581796768553594,
0.061845386533665836,0.03214280263265608,
0.06189526184538653,-0.007411638743138292,
0.061945137157107234,0.0005588206180576205,
0.06199501246882793,0.011160029571549653,
0.062044887780548626,0.02960435205624184,
0.06209476309226933,-0.0011217813477465526,
0.062144638403990024,0.024285901832813477,
0.06219451371571072,0.008034886746528329,
0.06224438902743142,0.02690439563924977,
0.06229426433915212,0.0046004760853569325,
0.06234413965087282,0.025237198619787547,
0.062394014962593516,0.057824622167416344,
0.06244389027431421,0.026861254286326422,
0.062493765586034915,0.006211402815566317,
0.06254364089775562,0.031691531017001034,
0.06259351620947631,0.019752948495488133,
0.06264339152119701,-0.01666527957441565,
0.0626932668329177,0.03168108018364759,
0.0627431421446384,0.011978447411540456,
0.0627930174563591,0.018117467997690158,
0.0628428927680798,0.0367763481205925,
0.0628927680798005,0.017182653581533022,
0.0629426433915212,0.01784389603340415,
0.06299251870324189,0.0411772606620668,
0.06304239401496259,0.03157244726519946,
0.0630922693266833,0.02642242066929138,
0.063142144638404,0.025195473379071538,
0.06319201995012469,0.01729124286010985,
0.06324189526184539,0.0456837586683246,
0.06329177057356608,0.03115937072745429,
0.06334164588528678,0.02342454134668576,
0.06339152119700749,0.032291424357725855,
0.06344139650872818,0.054035449989907454,
0.06349127182044888,0.028806479805868687,
0.06354114713216957,0.020655547379047557,
0.06359102244389027,0.01605940107645557,
0.06364089775561098,0.039162245641569005,
0.06369077306733167,0.02645863013498339,
0.06374064837905237,0.025891774954856873,
0.06379052369077307,0.022607544365712058,
0.06384039900249376,0.05129501154734241,
0.06389027431421446,0.0284670961979132,
0.06394014962593517,0.03803625932016331,
0.06399002493765586,0.014277480406939512,
0.06403990024937656,0.03024498715039057,
0.06408977556109725,0.026718857143776878,
0.06413965087281795,0.04720925193191078,
0.06418952618453866,0.014248254570671456,
0.06423940149625935,0.026951104749728505,
0.06428927680798005,0.033486316422642146,
0.06433915211970075,-0.00400787858083947,
0.06438902743142144,0.030977751910990926,
0.06443890274314215,0.04639829820568697,
0.06448877805486285,0.036471379392846406,
0.06453865336658354,0.030140217853766554,
0.06458852867830424,0.013177043759026931,
0.06463840399002493,0.023521571482952877,
0.06468827930174563,0.03408758814703035,
0.06473815461346634,0.043409315385732436,
0.06478802992518704,0.03995177094540483,
0.06483790523690773,0.04036849627628355,
0.06488778054862843,0.019980812166173187,
0.06493765586034912,0.03104297928667145,
0.06498753117206983,0.008039566789032976,
0.06503740648379053,0.0362234577580229,
0.06508728179551122,0.017944862055336564,
0.06513715710723192,0.0484412248376567,
0.06518703241895261,0.04389529397970439,
0.06523690773067331,0.0005224471132329669,
0.06528678304239402,0.03734301480357163,
0.06533665835411472,0.0009859929071113285,
0.06538653366583541,0.0161480937274057,
0.06543640897755611,-0.0013488908610085164,
0.0654862842892768,-0.0059400318575389376,
0.06553615960099751,0.03918143487463666,
0.06558603491271821,0.025801217597070894,
0.0656359102244389,0.015891063530752765,
0.0656857855361596,0.01211827883863456,
0.0657356608478803,0.04240117951156078,
0.06578553615960099,0.014167627990954949,
0.0658354114713217,0.02456527084326042,
0.0658852867830424,-0.002150945329234419,
0.06593516209476309,0.031834481530473475,
0.06598503740648379,0.008590143076267284,
0.06603491271820448,0.03353426663130737,
0.06608478802992519,0.008360967703052145,
0.06613466334164589,0.056734609253665726,
0.06618453865336658,0.024629321770729063,
0.06623441396508728,0.012080333340407316,
0.06628428927680798,0.033924380582510495,
0.06633416458852869,0.03629800196460635,
0.06638403990024938,0.014990970521589847,
0.06643391521197008,0.04949756697584094,
0.06648379052369077,0.023670946877398777,
0.06653366583541147,0.004546774739445316,
0.06658354114713216,0.0031615233933664014,
0.06663341645885287,0.012874953385705254,
0.06668329177057357,0.007929856753960874,
0.06673316708229426,0.04640955543553678,
0.06678304239401496,0.030833679443433334,
0.06683291770573566,0.021902936151439407,
0.06688279301745637,0.024411765617603096,
0.06693266832917706,0.004014272383799707,
0.06698254364089776,0.007592949316906732,
0.06703241895261845,0.025405519763959255,
0.06708229426433915,-0.005231920671407975,
0.06713216957605984,0.01757227743267654,
0.06718204488778055,0.019755551440050482,
0.06723192019950125,0.01664667289830128,
0.06728179551122195,0.008794753152327865,
0.06733167082294264,0.01594871078727059,
0.06738154613466334,0.0036403685695076786,
0.06743142144638405,0.028189981302618943,
0.06748129675810474,-0.009368061405816688,
0.06753117206982544,0.0018414959052552183,
0.06758104738154613,-0.0040386524897912945,
0.06763092269326683,0.016145906184450626,
0.06768079800498752,0.01810862198365526,
0.06773067331670823,0.025771385193784975,
0.06778054862842893,0.03764307763853258,
0.06783042394014963,-0.018561131458535857,
0.06788029925187032,0.03669652712680186,
0.06793017456359102,0.04044459206612985,
0.06798004987531173,0.030307572393198486,
0.06802992518703242,0.026471781831724085,
0.06807980049875312,0.012894417859641228,
0.06812967581047381,-0.008260318135568868,
0.06817955112219451,-0.013519782055189675,
0.0682294264339152,0.023108122955187167,
0.06827930174563591,0.020592479454767304,
0.06832917705735661,0.026415059784397888,
0.0683790523690773,0.0325423890173082,
0.068428927680798,0.008708321403959093,
0.0684788029925187,-0.013543259264956304,
0.06852867830423941,-9.904612982495481e-05,
0.0685785536159601,-0.005742845901357705,
0.0686284289276808,-0.00024217773068715628,
0.0686783042394015,0.009024288982197294,
0.06872817955112219,-0.006616962481177648,
0.0687780548628429,0.0077395509011711815,
0.0688279301745636,-0.013351410422546514,
0.06887780548628429,0.015797746694932314,
0.06892768079800499,0.021439790182543075,
0.06897755610972568,0.022067105907414227,
0.06902743142144638,0.011303704835060113,
0.06907730673316709,-0.020227390545627746,
0.06912718204488778,0.0006773414618993084,
0.06917705735660848,0.002773799363461125,
0.06922693266832917,-0.003285181941299218,
0.06927680798004987,0.0012276396923982056,
0.06932668329177058,0.0033319169582116527,
0.06937655860349128,-0.017179083576843803,
0.06942643391521197,0.02445282925222659,
0.06947630922693267,0.027626233433857672,
0.06952618453865336,0.021550565010665185,
0.06957605985037406,0.0029656400093861284,
0.06962593516209477,0.0016292077018282944,
0.06967581047381546,0.008045376587211607,
0.06972568578553616,-0.005613478122831457,
0.06977556109725686,-0.006813756136782571,
0.06982543640897755,-0.03728980196993846,
0.06987531172069826,0.02701469477503224,
0.06992518703241896,-0.021993487694897482,
0.06997506234413965,0.02946689436784928,
0.07002493765586035,0.011236230655178214,
0.07007481296758104,-0.02971188311013332,
0.07012468827930174,-0.0171878689660915,
0.07017456359102245,-0.010177240913337415,
0.07022443890274314,-0.00943828341797126,
0.07027431421446384,-0.0030169820299019534,
0.07032418952618454,-0.032217789979223733,
0.07037406483790523,-0.0060620315308003905,
0.07042394014962594,-0.03430546395903275,
0.07047381546134664,0.007654341645221793,
0.07052369077306733,0.0003461317571539953,
0.07057356608478803,-0.023502863277686064,
0.07062344139650872,0.011284563450489893,
0.07067331670822943,0.017827429227256934,
0.07072319201995013,0.005501718547540971,
0.07077306733167082,0.0021901104705828118,
0.07082294264339152,0.005958501587005347,
0.07087281795511222,-0.00656270824185807,
0.07092269326683291,0.022725084314623424,
0.07097256857855362,0.005147052959960549,
0.07102244389027432,0.01595990158482747,
0.07107231920199501,-0.04056099004560434,
0.07112219451371571,-0.027432512443434684,
0.0711720698254364,-0.004844987078068115,
0.07122194513715711,-0.0004528096799775224,
0.07127182044887781,-0.02005032307158137,
0.0713216957605985,-0.014705606354796917,
0.0713715710723192,-0.015792001250459906,
0.0714214463840399,-0.01916536714454635,
0.07147132169576059,0.015580001484072879,
0.0715211970074813,-0.032725951257448135,
0.071571072319202,0.003183558766574052,
0.0716209476309227,-0.019354214741986665,
0.07167082294264339,-0.028921588680418667,
0.07172069825436408,-0.0112431078305908,
0.0717705735660848,-0.02004278357532189,
0.07182044887780549,-0.022149063430495677,
0.07187032418952619,0.014473785670929211,
0.07192019950124688,-0.006240151852428523,
0.07197007481296758,-0.005955264934023137,
0.07201995012468827,0.009563403774173971,
0.07206982543640898,0.005333975677832451,
0.07211970074812968,0.001460580046011106,
0.07216957605985037,-0.05571903531654058,
0.07221945137157107,-0.006489749183594952,
0.07226932668329177,0.005720659314006896,
0.07231920199501247,-0.009280439285301187,
0.07236907730673317,-0.019023229055349353,
0.07241895261845387,-0.014638175556733555,
0.07246882793017456,-0.011275006434815547,
0.07251870324189526,-0.013500374290834297,
0.07256857855361595,-0.012478391015388043,
0.07261845386533666,-0.012154719783431366,
0.07266832917705736,-0.004890631499500997,
0.07271820448877805,0.0002783642038788302,
0.07276807980049875,-0.01981850110735698,
0.07281795511221945,-0.035070521566248423,
0.07286783042394016,0.002565959041151422,
0.07291770573566085,0.014666352546811322,
0.07296758104738155,0.02250951646083052,
0.07301745635910224,-0.029035324120841522,
0.07306733167082294,-0.016430939483296648,
0.07311720698254365,-0.004053255193743062,
0.07316708229426434,-0.0019048507606374866,
0.07321695760598504,0.00013700691495001534,
0.07326683291770573,0.001454798274730544,
0.07331670822942643,-0.02389852878566732,
0.07336658354114713,0.006416438027922137,
0.07341645885286784,-0.005998136159169871,
0.07346633416458853,-0.01657366725240811,
0.07351620947630923,-0.00324007296323673,
0.07356608478802992,-0.005790365206883695,
0.07361596009975062,0.008772155287202675,
0.07366583541147133,-0.0030395530302943577,
0.07371571072319202,-0.02170495093909937,
0.07376558603491272,-0.009593982787833797,
0.07381546134663342,-0.025339255899446224,
0.07386533665835411,0.016937810530824677,
0.0739152119700748,-0.022311501119357795,
0.07396508728179552,-0.02516463309041661,
0.07401496259351621,-0.023564282174349048,
0.07406483790523691,-0.02091512043347477,
0.0741147132169576,-0.0035227139241213058,
0.0741645885286783,-0.03469563857093014,
0.07421446384039901,0.001250092597539429,
0.0742643391521197,-0.014933432479022719,
0.0743142144638404,0.002267853193055492,
0.0743640897755611,-0.028934128928716114,
0.07441396508728179,0.004558616156128575,
0.07446384039900249,-0.002750784034893672,
0.0745137157107232,-0.0031367845933974944,
0.07456359102244389,-0.003068170866596937,
0.07461346633416459,-0.014035833873512656,
0.07466334164588528,-0.023875206569630835,
0.07471321695760598,-0.01599287339557039,
0.07476309226932669,-0.014405931965038815,
0.07481296758104738,-0.006413400368330963,
0.07486284289276808,-0.01232779806688373,
0.07491271820448878,0.0035532784536421134,
0.07496259351620947,-0.0296264428258593,
0.07501246882793017,-3.8322810693368695e-05,
0.07506234413965088,-0.029874080795243032,
0.07511221945137157,-0.01806737820093703,
0.07516209476309227,-0.002637791985099976,
0.07521197007481296,-0.017479395227722405,
0.07526184538653366,-0.012995569356458294,
0.07531172069825437,-0.04534129356123898,
0.07536159600997507,0.0038140548015343344,
0.07541147132169576,-0.013690753110299523,
0.07546134663341646,0.008688176359050458,
0.07551122194513715,-0.005108205711546747,
0.07556109725685786,-0.01023788948217183,
0.07561097256857856,-0.026631934447288876,
0.07566084788029925,-0.01566296730396478,
0.07571072319201995,-0.03297565320892408,
0.07576059850374064,-0.0016344446843496677,
0.07581047381546134,-0.004227857355625836,
0.07586034912718205,-0.03506765237647159,
0.07591022443890275,-0.0027430464510256845,
0.07596009975062344,0.0022003586161989247,
0.07600997506234414,0.010388636483583409,
0.07605985037406483,-0.008539332254068572,
0.07610972568578554,0.0014690848122354064,
0.07615960099750624,-0.0035919505866869013,
0.07620947630922693,0.008477750932337986,
0.07625935162094763,-0.01653988388734217,
0.07630922693266833,-0.01428360897268446,
0.07635910224438902,-0.0032165035914239123,
0.07640897755610973,0.019266066426111096,
0.07645885286783043,-0.00939085125791532,
0.07650872817955112,-0.017177545007271873,
0.07655860349127182,-0.016737018353527495,
0.07660847880299251,-0.003649392949991074,
0.07665835411471322,-0.02785584095295593,
0.07670822942643392,-0.008359189613915647,
0.07675810473815461,0.007464345987926523,
0.07680798004987531,-0.011188019871160197,
0.076857855361596,-0.008588657441384885,
0.0769077306733167,-0.016347748812723176,
0.07695760598503741,-0.02897442380093713,
0.0770074812967581,0.016368075582753258,
0.0770573566084788,-0.021972662130540655,
0.0771072319201995,0.007789948668581693,
0.0771571072319202,-0.010784466991156191,
0.0772069825436409,0.012141573488821233,
0.0772568578553616,-0.024233627434068296,
0.0773067331670823,-0.0012796185606748045,
0.07735660847880299,-0.0017542629222609021,
0.07740648379052369,-0.0005924979144102489,
0.0774563591022444,-0.023926807545721254,
0.07750623441396509,-0.024492508396369687,
0.07755610972568579,-0.0010026399684469026,
0.07760598503740648,0.008304377654804575,
0.07765586034912718,0.008806774557119056,
0.07770573566084787,-0.010589302674316816,
0.07775561097256858,-0.00396460322138318,
0.07780548628428928,-0.01062673553843619,
0.07785536159600998,-0.014074885005463316,
0.07790523690773067,-0.0022903960822128902,
0.07795511221945137,-0.0042881564237795475,
0.07800498753117208,0.015920049477658953,
0.07805486284289277,-0.016573805081479005,
0.07810473815461347,0.00047227959241069687,
0.07815461346633416,-0.010038644267095954,
0.07820448877805486,0.009992296210900701,
0.07825436408977555,-0.007663287969948792,
0.07830423940149626,-0.017481447421062765,
0.07835411471321696,-0.003423278498295269,
0.07840399002493766,-0.02568504572253069,
0.07845386533665835,-0.007002050509778334,
0.07850374064837905,-0.0039424487095237335,
0.07855361596009976,0.003589850518338176,
0.07860349127182045,0.009460649609318222,
0.07865336658354115,-0.022572147983689304,
0.07870324189526184,0.011626410213141869,
0.07875311720698254,0.005749242247016013,
0.07880299251870324,0.017752775610225306,
0.07885286783042394,0.00428265531210607,
0.07890274314214464,0.006256446077686563,
0.07895261845386534,-0.01922366481268188,
0.07900249376558603,0.017035254419465275,
0.07905236907730673,-0.00436543158906694,
0.07910224438902744,-0.00980005719785152,
0.07915211970074813,-0.031971668813556266,
0.07920199501246883,0.001299066462170522,
0.07925187032418952,0.013763056161306533,
0.07930174563591022,0.026855986525112438,
0.07935162094763092,0.005079156446367691,
0.07940149625935163,-0.002655915958345946,
0.07945137157107232,0.013538264316320069,
0.07950124688279302,0.025070857030114295,
0.07955112219451371,0.02208991936373944,
0.07960099750623441,0.018826937263784416,
0.07965087281795512,-0.014369192264455983,
0.07970074812967581,0.006827365311096412,
0.07975062344139651,0.00765734730245849,
0.0798004987531172,0.012616057159037082,
0.0798503740648379,0.0174914874442658,
0.07990024937655861,0.02126962988662235,
0.0799501246882793,-0.008894724511975271,
0.08,0.0014708178806403464,
0.0800498753117207,0.03794129870669239,
0.0800997506234414,0.012720907075533435,
0.08014962593516209,0.0020717354138324352,
0.0801995012468828,0.010042646001348349,
0.0802493765586035,0.017863136632280438,
0.08029925187032419,0.026840817047831818,
0.08034912718204489,0.01765513684565569,
0.08039900249376558,-0.003579775931833628,
0.08044887780548629,0.006834532488098078,
0.08049875311720699,0.017671928339212738,
0.08054862842892768,0.002257277312798546,
0.08059850374064838,0.037588939042626425,
0.08064837905236907,0.028392742278139177,
0.08069825436408977,0.026263123249469895,
0.08074812967581048,-0.0192750243185228,
0.08079800498753117,-0.0013144187678655397,
0.08084788029925187,0.017068285478802358,
0.08089775561097257,0.017959954794907453,
0.08094763092269326,0.01690871482755215,
0.08099750623441397,0.040906365331184816,
0.08104738154613467,0.026653662070908933,
0.08109725685785536,0.004822500603567308,
0.08114713216957606,0.026283746533130845,
0.08119700748129675,0.01848529330413924,
0.08124688279301745,0.005156863570533771,
0.08129675810473816,0.013309533339971872,
0.08134663341645886,0.03004102910307966,
0.08139650872817955,0.02721669740042101,
0.08144638403990025,0.01935403621798972,
0.08149625935162094,0.004695465112642176,
0.08154613466334165,-0.0011960431528974282,
0.08159600997506235,0.0022433945924430175,
0.08164588528678304,0.031912881913961876,
0.08169576059850374,0.01677272884663866,
0.08174563591022443,0.008848925176115097,
0.08179551122194513,0.017728203954292428,
0.08184538653366584,-0.0006759026519472175,
0.08189526184538654,-0.0055707505051126975,
0.08194513715710723,0.02586723428426123,
0.08199501246882793,0.01895749723809966,
0.08204488778054862,0.007261359150600399,
0.08209476309226933,0.01296274139306306,
0.08214463840399003,0.052754524311468834,
0.08219451371571072,0.014751063220914889,
0.08224438902743142,-0.0058911062455264986,
0.08229426433915212,0.013952089681251756,
0.08234413965087282,0.029653296276416764,
0.08239401496259352,0.0010684624835665714,
0.08244389027431422,0.021437860142716824,
0.08249376558603491,0.01485356176776038,
0.08254364089775561,0.040670484702260645,
0.0825935162094763,0.03578681307548733,
0.08264339152119701,0.010190333742086048,
0.08269326683291771,-0.0011556023425467014,
0.0827431421446384,0.010195061685450193,
0.0827930174563591,0.01776152242861905,
0.0828428927680798,0.04470525903973993,
0.0828927680798005,0.021545532601409505,
0.0829426433915212,0.01842234904246242,
0.0829925187032419,0.02567739670758587,
0.08304239401496259,0.06753085709594567,
0.08309226932668329,0.04007157114157405,
0.08314214463840398,0.03303573133554498,
0.0831920199501247,0.0073562584140796534,
0.08324189526184539,0.06393569851614307,
0.08329177057356608,0.04196484063742857,
0.08334164588528678,0.030672457941168237,
0.08339152119700748,0.009723690405366903,
0.08344139650872819,0.003075928631704833,
0.08349127182044888,0.004663213903599254,
0.08354114713216958,0.012215120179204968,
0.08359102244389027,0.007726547649161038,
0.08364089775561097,0.030570669976227757,
0.08369077306733166,0.037957848559993734,
0.08374064837905237,0.012251934444396028,
0.08379052369077307,0.039418483697126264,
0.08384039900249377,0.016751431702092756,
0.08389027431421446,0.006551686567266839,
0.08394014962593516,0.008893506827027935,
0.08399002493765587,0.029818077403394684,
0.08403990024937656,0.033967461679655656,
0.08408977556109726,0.021488030787473796,
0.08413965087281795,0.029205785029298544,
0.08418952618453865,0.0145974677369689,
0.08423940149625936,0.005311746831973774,
0.08428927680798005,0.02784305794357681,
0.08433915211970075,0.026087795828521353,
0.08438902743142145,0.03268137892198111,
0.08443890274314214,0.0005935978062516431,
0.08448877805486284,0.02868426837584289,
0.08453865336658355,0.044292805633302235,
0.08458852867830424,0.01417221136454276,
0.08463840399002494,0.0030220304646454074,
0.08468827930174563,0.022603568517938648,
0.08473815461346633,0.014718751567777208,
0.08478802992518704,0.022453817769476078,
0.08483790523690773,0.04157010113363059,
0.08488778054862843,0.029360456022185965,
0.08493765586034913,0.03991568059251222,
0.08498753117206982,0.04677152859865473,
0.08503740648379052,0.021609968967140455,
0.08508728179551123,0.01117887936332182,
0.08513715710723192,0.06438799672557734,
0.08518703241895262,0.047090881416488345,
0.08523690773067331,0.028751119269679527,
0.08528678304239401,0.040623828818446284,
0.08533665835411472,0.03127845719261847,
0.08538653366583542,-0.0037571264109867927,
0.08543640897755611,0.017176793378376673,
0.0854862842892768,0.020956077480724547,
0.0855361596009975,0.0492224910204244,
0.0855860349127182,0.016428044094395616,
0.08563591022443891,0.023887983464553415,
0.0856857855361596,0.01626066644465317,
0.0857356608478803,0.010279807129555646,
0.085785536159601,0.007411904162201204,
0.08583541147132169,0.024608311648640267,
0.0858852867830424,-0.001364286448403737,
0.0859351620947631,0.04389192665830169,
0.08598503740648379,0.015138806892547308,
0.08603491271820449,0.033178964138644976,
0.08608478802992518,0.012151799877203936,
0.08613466334164588,0.021688239961488612,
0.08618453865336659,0.03403536045533364,
0.08623441396508728,0.007716199186548731,
0.08628428927680798,0.027463355349116418,
0.08633416458852868,0.01732353684276284,
0.08638403990024937,0.02687368052984502,
0.08643391521197008,0.0017093645548085443,
0.08648379052369078,0.008016390247910338,
0.08653366583541147,-0.0004898645777131026,
0.08658354114713217,-0.00984910769739505,
0.08663341645885286,0.019565169919213806,
0.08668329177057357,0.008804779947502436,
0.08673316708229427,0.00010104648232139163,
0.08678304239401496,0.04809995863388486,
0.08683291770573566,0.023021037566751522,
0.08688279301745636,0.042007805393493455,
0.08693266832917705,-0.010909693131852232,
0.08698254364089776,0.009381311464388233,
0.08703241895261846,0.026798852281084445,
0.08708229426433915,0.026094414970358828,
0.08713216957605985,0.019848572412450333,
0.08718204488778054,0.01586147981606645,
0.08723192019950125,0.012138206059503446,
0.08728179551122195,0.018006788998436763,
0.08733167082294264,0.0002809934702491662,
0.08738154613466334,0.034854271371276585,
0.08743142144638404,0.04145832091643567,
0.08748129675810473,0.025843748221330745,
0.08753117206982544,0.021004587293299955,
0.08758104738154614,-0.018345545685442027,
0.08763092269326683,0.009216046253172318,
0.08768079800498753,0.006272308367931351,
0.08773067331670822,0.0014434420819268053,
0.08778054862842893,0.016077190239172458,
0.08783042394014963,0.010903099604262256,
0.08788029925187033,0.030920118462909416,
0.08793017456359102,0.010723551458469855,
0.08798004987531172,0.002129982823225544,
0.08802992518703241,0.01888797730697757,
0.08807980049875312,0.025024413440736956,
0.08812967581047382,0.017597503243412027,
0.08817955112219451,0.002471935965312314,
0.08822942643391521,-0.0016386845000805079,
0.0882793017456359,-0.008765016391595309,
0.08832917705735661,0.007459968250781232,
0.08837905236907731,0.003760578470405598,
0.088428927680798,0.025801555564731897,
0.0884788029925187,-0.0014740640960548227,
0.0885286783042394,0.028170877963624965,
0.0885785536159601,0.0032827706689903917,
0.0886284289276808,0.02007185362981894,
0.0886783042394015,0.007941580174732565,
0.0887281795511222,0.039658354011070006,
0.08877805486284289,0.007724855328712085,
0.08882793017456359,0.029602540695702225,
0.0888778054862843,-0.007339423510300868,
0.08892768079800499,-0.007152205079625577,
0.08897755610972569,-0.018006406132272237,
0.08902743142144638,0.020361686448340764,
0.08907730673316708,0.017436158120339385,
0.08912718204488779,0.020605428022924012,
0.08917705735660848,0.00314401315342242,
0.08922693266832918,0.010078406268456932,
0.08927680798004987,0.020680803080562672,
0.08932668329177057,0.016442666533343735,
0.08937655860349127,0.007378537597288782,
0.08942643391521198,0.002764610381258417,
0.08947630922693267,-0.011160647059902454,
0.08952618453865337,0.004317114134833646,
0.08957605985037406,-0.013728525578383721,
0.08962593516209476,0.017192510399071388,
0.08967581047381547,0.012903321575471423,
0.08972568578553616,0.016889308733621787,
0.08977556109725686,0.0010509232478441708,
0.08982543640897755,0.003481193628347345,
0.08987531172069825,0.019874204891111993,
0.08992518703241895,-0.006451486922617862,
0.08997506234413966,-0.004226409173677066,
0.09002493765586035,-0.006932603475429752,
0.09007481296758105,0.0038526870643592333,
0.09012468827930174,0.003916625994442004,
0.09017456359102244,0.015474280013297328,
0.09022443890274315,-0.012948653448590185,
0.09027431421446384,-0.010872939327850072,
0.09032418952618454,0.007620776530374189,
0.09037406483790524,0.00308819144744237,
0.09042394014962593,-0.008523712180312747,
0.09047381546134663,-0.007966050375429957,
0.09052369077306734,-0.014720971292412484,
0.09057356608478803,-0.011961871610183767,
0.09062344139650873,-0.007176106250513987,
0.09067331670822942,0.0028246021952982097,
0.09072319201995012,-0.011469941211859503,
0.09077306733167083,-0.008810375924386115,
0.09082294264339152,-0.03404291173912756,
0.09087281795511222,0.013279646152911901,
0.09092269326683292,-0.020241863832363052,
0.09097256857855361,-0.02162175293029879,
0.09102244389027432,0.006288958300569624,
0.09107231920199502,0.0013104021125779283,
0.09112219451371571,0.009427250229486345,
0.09117206982543641,0.012121787543560844,
0.0912219451371571,0.009703983333116405,
0.0912718204488778,-0.022880602631445528,
0.09132169576059851,-0.013480900241782716,
0.0913715710723192,-0.00665960609904805,
0.0914214463840399,0.017616887227326787,
0.0914713216957606,-0.007157073707533031,
0.09152119700748129,-0.004468947383470893,
0.091571072319202,-0.015063642580948777,
0.0916209476309227,0.03146247194585205,
0.09167082294264339,0.015601175904052474,
0.09172069825436409,-0.012158651038885143,
0.09177057356608478,0.007390949366965455,
0.09182044887780548,0.00017583611015984692,
0.09187032418952619,0.008356428436149782,
0.09192019950124689,-0.017816576068622907,
0.09197007481296758,0.00869528739653094,
0.09201995012468828,-0.008192459355078958,
0.09206982543640897,-0.029411717296557584,
0.09211970074812968,-0.009355859313239392,
0.09216957605985038,-0.024119068399169122,
0.09221945137157107,-0.018263436898541943,
0.09226932668329177,0.003010336069988096,
0.09231920199501246,-0.03319927251650055,
0.09236907730673316,-0.028148223556462106,
0.09241895261845387,-0.027660364996056185,
0.09246882793017457,0.0018119874078488859,
0.09251870324189526,-0.015872280351646763,
0.09256857855361596,-0.018438636616043294,
0.09261845386533665,-0.00442255859662188,
0.09266832917705736,-0.01931278549457874,
0.09271820448877806,0.001876025870127097,
0.09276807980049875,-0.015296834053916474,
0.09281795511221945,0.0008790134606112242,
0.09286783042394015,0.0035523817049064373,
0.09291770573566084,-0.015440810731476004,
0.09296758104738155,-0.026215177467413038,
0.09301745635910225,-0.037769010156643516,
0.09306733167082294,0.013393901884003093,
0.09311720698254364,0.0020152363284171217,
0.09316708229426433,0.009016577672111354,
0.09321695760598504,-0.0011209226235267926,
0.09326683291770574,-0.018844582392900627,
0.09331670822942643,-0.013905434683405419,
0.09336658354114713,-0.028533849600178945,
0.09341645885286783,-0.00781617914744021,
0.09346633416458854,-0.01185101270258794,
0.09351620947630923,-0.02698195007650347,
0.09356608478802993,-0.029414716145474074,
0.09361596009975062,-0.011291422821967647,
0.09366583541147132,-0.015920241007773037,
0.09371571072319201,-0.010465271128160671,
0.09376558603491272,-0.019528744279191393,
0.09381546134663342,-0.011835253080394095,
0.09386533665835411,-0.04226724023506712,
0.09391521197007481,-0.012883916119988664,
0.0939650872817955,-0.00414131270524477,
0.09401496259351622,-0.0427220424331061,
0.09406483790523691,-0.022026115144059298,
0.09411471321695761,-0.025168894149378746,
0.0941645885286783,-0.0031191178727623566,
0.094214463840399,-0.009933868050336813,
0.0942643391521197,-0.025099947046254373,
0.0943142144638404,-0.003431572913308782,
0.0943640897755611,-0.0152077474014204,
0.0944139650872818,-0.009511783726153009,
0.09446384039900249,-0.008744873756657164,
0.09451371571072319,-0.020063325152910115,
0.0945635910224439,-0.04002080756344779,
0.09461346633416459,-0.03081660389852657,
0.09466334164588529,-0.010326139520650316,
0.09471321695760598,-0.0028907255595209784,
0.09476309226932668,0.0015142046734146972,
0.09481296758104737,0.00045436551776627254,
0.09486284289276808,-0.03182374553437723,
0.09491271820448878,-0.010288831509900022,
0.09496259351620948,-0.011764678931975867,
0.09501246882793017,-0.0019480191407257354,
0.09506234413965087,-0.016089331559231024,
0.09511221945137158,-0.0007205372596441918,
0.09516209476309227,-0.010064441053375747,
0.09521197007481297,-0.011328120480744613,
0.09526184538653366,-0.0008978683586297036,
0.09531172069825436,-0.027606587990491628,
0.09536159600997507,-0.03761401948169298,
0.09541147132169576,-0.016942214810804473,
0.09546134663341646,-0.014267600629770628,
0.09551122194513716,-0.001885345143230915,
0.09556109725685785,-0.02203298607541257,
0.09561097256857855,-0.02068774392147727,
0.09566084788029926,-0.002676596070201478,
0.09571072319201995,-0.022597048508854266,
0.09576059850374065,-0.014291187872201844,
0.09581047381546134,-0.00453325929141532,
0.09586034912718204,-0.007520154511936436,
0.09591022443890275,-0.007693348044368009,
0.09596009975062345,-0.004814101559335649,
0.09600997506234414,-0.023909592664577484,
0.09605985037406484,-0.029536935845489047,
0.09610972568578553,-0.029986292773668776,
0.09615960099750623,-0.01644740019760218,
0.09620947630922694,-0.011481203866638322,
0.09625935162094763,-0.012672715437855878,
0.09630922693266833,-0.015768039746071986,
0.09635910224438902,-0.004172473561091936,
0.09640897755610972,0.01434037305726512,
0.09645885286783043,-0.028399247474066823,
0.09650872817955113,-0.023871533063535337,
0.09655860349127182,0.009579269487469401,
0.09660847880299252,-0.02992937525709136,
0.09665835411471321,-0.010197437587358889,
0.09670822942643391,-0.032884638557341445,
0.09675810473815462,-0.01584374737513915,
0.09680798004987531,-0.004703368978677242,
0.09685785536159601,-0.017882194826399543,
0.0969077306733167,-0.019355437327135544,
0.0969576059850374,-0.01414015880693897,
0.09700748129675811,-0.009705083024812535,
0.0970573566084788,-0.011309114429251463,
0.0971072319201995,-0.0269482354931621,
0.0971571072319202,-0.012695305444984593,
0.0972069825436409,0.011085815661162172,
0.09725685785536159,-0.030489903819976703,
0.0973067331670823,0.014108949605057985,
0.097356608478803,0.014110194587829571,
0.09740648379052369,0.006619714759453972,
0.09745635910224439,-0.016519398209870282,
0.09750623441396508,0.013145528882904739,
0.09755610972568579,-0.007443950223639461,
0.09760598503740649,-0.012521391682989401,
0.09765586034912718,-0.007773505899252142,
0.09770573566084788,0.009200031452699545,
0.09775561097256857,0.0208238834485688,
0.09780548628428928,0.004070890415189856,
0.09785536159600998,0.015295814664894434,
0.09790523690773068,0.015422405526156927,
0.09795511221945137,0.006892935224711753,
0.09800498753117207,-0.0185987102936995,
0.09805486284289276,0.003015027614165459,
0.09810473815461347,0.00947175256813279,
0.09815461346633417,0.010154860729191303,
0.09820448877805486,-0.0018931403621696057,
0.09825436408977556,0.018559853686290678,
0.09830423940149625,0.008378547364984472,
0.09835411471321696,0.022517870371753436,
0.09840399002493766,-0.008266119502398885,
0.09845386533665836,-0.004071076518225463,
0.09850374064837905,-0.00550233524352701,
0.09855361596009975,0.016084122934010483,
0.09860349127182044,-0.007656622831933314,
0.09865336658354115,-0.012881254674178519,
0.09870324189526185,0.011221592977595146,
0.09875311720698254,0.030485544737434395,
0.09880299251870324,0.01914678746226939,
0.09885286783042393,-0.0007514621597430691,
0.09890274314214464,-0.007355752333525333,
0.09895261845386534,0.01783488251572777,
0.09900249376558604,0.01562994138564801,
0.09905236907730673,-0.0077597752735661454,
0.09910224438902743,0.006405793128766274,
0.09915211970074812,0.0023920018701413465,
0.09920199501246883,-0.009570710244216758,
0.09925187032418953,0.016078475433997822,
0.09930174563591022,0.01769568391475733,
0.09935162094763092,0.014925276031852518,
0.09940149625935162,0.031004747059683542,
0.09945137157107233,0.011712776942883628,
0.09950124688279302,0.005748411389697077,
0.09955112219451372,0.008609381806876077,
0.09960099750623441,0.005159525657183873,
0.09965087281795511,-0.008002732532745343,
0.0997007481296758,0.01668597639465621,
0.09975062344139651,-0.012038251689845124,
0.09980049875311721,-0.023953656609323533,
0.0998503740648379,0.022006437180490585,
0.0999002493765586,0.0027249581780908003,
0.0999501246882793,0.03566272911249726,
0.1,-0.012956763187174553,
0.1000498753117207,0.004883527817652502,
0.1000997506234414,0.023196274713261317,
0.10014962593516209,0.025451041269941084,
0.10019950124688279,-0.005110428893509152,
0.1002493765586035,0.03890199728887103,
0.1002992518703242,0.005631975948574189,
0.10034912718204489,0.029358057636018734,
0.10039900249376559,-0.003550641813294734,
0.10044887780548628,0.027303955690821675,
0.10049875311720698,0.01154326274459315,
0.10054862842892769,0.0004206940964117875,
0.10059850374064838,0.008042348518006837,
0.10064837905236908,0.018298955451863566,
0.10069825436408977,0.019420954032356552,
0.10074812967581047,0.01894617995673927,
0.10079800498753118,-0.010906787929547801,
0.10084788029925187,0.05111698709357926,
0.10089775561097257,0.03429034713961193,
0.10094763092269327,0.0003092462853960705,
0.10099750623441396,0.0022456460270042986,
0.10104738154613466,0.016886211601081537,
0.10109725685785537,0.03179872097555322,
0.10114713216957606,0.042352700652355614,
0.10119700748129676,0.022895296120572232,
0.10124688279301745,0.005577142491616498,
0.10129675810473815,0.009237902315281375,
0.10134663341645886,0.030061958858692825,
0.10139650872817955,0.01784033666742033,
0.10144638403990025,0.037080374146257734,
0.10149625935162095,0.025553049983959387,
0.10154613466334164,0.033232975057366526,
0.10159600997506234,0.03489012185777489,
0.10164588528678305,0.013883218483304127,
0.10169576059850374,0.03673360569550846,
0.10174563591022444,0.0359804727570817,
0.10179551122194513,0.054229614107352775,
0.10184538653366583,0.0274330584314209,
0.10189526184538654,-0.003470338048664836,
0.10194513715710724,0.028227453379831537,
0.10199501246882793,0.016830590763388203,
0.10204488778054863,0.006700014365091829,
0.10209476309226932,0.012091935947376354,
0.10214463840399003,0.04725114599025743,
0.10219451371571073,0.04768491556841804,
0.10224438902743142,0.031965754711672845,
0.10229426433915212,0.011441188917479155,
0.10234413965087281,0.023962508433312914,
0.10239401496259351,0.038663252818287176,
0.10244389027431422,0.0368766661214839,
0.10249376558603492,-0.004341114077182483,
0.10254364089775561,-0.0023984720789857056,
0.10259351620947631,0.011999180531416617,
0.102643391521197,0.03478825346535071,
0.10269326683291771,0.012806317116011965,
0.10274314214463841,0.021665374087085937,
0.1027930174563591,0.032287341043443184,
0.1028428927680798,0.007070818391655236,
0.1028927680798005,0.040956945185573565,
0.10294264339152119,0.016968340312804635,
0.1029925187032419,0.021027058907171364,
0.1030423940149626,0.030337196548286878,
0.10309226932668329,0.008614439514467772,
0.10314214463840399,0.028205176464777888,
0.10319201995012468,0.022192109122229756,
0.10324189526184539,0.04401839816958454,
0.10329177057356609,0.04465387219771603,
0.10334164588528678,0.002041900363897408,
0.10339152119700748,0.03586129415854647,
0.10344139650872818,0.019097069523600834,
0.10349127182044887,0.03071544742498025,
0.10354114713216958,-0.0025059039293705877,
0.10359102244389028,0.03178144302370371,
0.10364089775561097,0.026928317568603286,
0.10369077306733167,0.044694790670140004,
0.10374064837905236,0.022838242310578058,
0.10379052369077307,0.03743630609273354,
0.10384039900249377,0.021344885653122234,
0.10389027431421446,0.021724580436355008,
0.10394014962593516,0.014037484328652301,
0.10399002493765586,0.015033815802664729,
0.10403990024937655,0.005434573221679593,
0.10408977556109726,0.03712532425901224,
0.10413965087281796,-0.00568750354955759,
0.10418952618453865,0.013610910337220745,
0.10423940149625935,0.026258662306419805,
0.10428927680798004,0.036750031137404146,
0.10433915211970075,0.047197643058088636,
0.10438902743142145,0.0503592525928377,
0.10443890274314215,0.020010164177491175,
0.10448877805486284,-0.004645877637944204,
0.10453865336658354,0.033422195906960196,
0.10458852867830425,0.03624640040972195,
0.10463840399002494,-0.004897623429086256,
0.10468827930174564,0.03337189288189026,
0.10473815461346633,0.0225524734434739,
0.10478802992518703,0.03251122447571375,
0.10483790523690772,0.040705855096004426,
0.10488778054862843,0.02244482765612715,
0.10493765586034913,0.02250778071443009,
0.10498753117206983,0.027400083612474972,
0.10503740648379052,0.039272889818253366,
0.10508728179551122,0.02932421943464536,
0.10513715710723193,0.01465671091523168,
0.10518703241895262,0.028564742894585087,
0.10523690773067332,0.038464585259818516,
0.10528678304239401,0.053245902379586665,
0.10533665835411471,0.012641001158980454,
0.1053865336658354,0.012534427738865065,
0.10543640897755611,0.03856524127362284,
0.10548628428927681,0.020962703552846285,
0.1055361596009975,0.03399026313520542,
0.1055860349127182,0.03048958665171967,
0.1056359102244389,0.016668118334041686,
0.10568578553615961,0.027646994088290893,
0.1057356608478803,0.016100689960347966,
0.105785536159601,0.01760214540600557,
0.1058354114713217,0.018747286096630723,
0.10588528678304239,0.010942179043642575,
0.10593516209476309,0.030184252586881073,
0.1059850374064838,0.03368806521183194,
0.10603491271820449,0.032335644755270274,
0.10608478802992519,0.009798048531610384,
0.10613466334164588,-0.0015241507462783813,
0.10618453865336658,0.01118185380322946,
0.10623441396508729,0.05468984492941541,
0.10628428927680798,0.0077086149019128716,
0.10633416458852868,0.013476140274734668,
0.10638403990024937,0.0016559847181941457,
0.10643391521197007,0.032964432829695016,
0.10648379052369077,0.036049682248291345,
0.10653366583541148,0.02099684808682163,
0.10658354114713217,0.032748253416703677,
0.10663341645885287,0.01175138276208783,
0.10668329177057356,0.05138880691109379,
0.10673316708229426,0.014840612778412855,
0.10678304239401497,0.007636085950487837,
0.10683291770573566,0.008865471517104727,
0.10688279301745636,0.01312868687964051,
0.10693266832917706,0.01914759050531664,
0.10698254364089775,0.036729734950990314,
0.10703241895261846,-0.005782037573658971,
0.10708229426433916,0.010091380973781339,
0.10713216957605985,0.021230421569257935,
0.10718204488778055,0.007633601935462994,
0.10723192019950124,0.028596723868497216,
0.10728179551122194,-0.009905754743771717,
0.10733167082294265,0.01899026252223054,
0.10738154613466334,0.03738545182151213,
0.10743142144638404,-0.002309930479077179,
0.10748129675810474,0.011636326832462974,
0.10753117206982543,0.0023986781776550083,
0.10758104738154614,0.03096527900145462,
0.10763092269326684,-0.004394053123714912,
0.10768079800498753,0.007629296510598444,
0.10773067331670823,0.01418597103771054,
0.10778054862842892,0.019282429967707834,
0.10783042394014962,0.011075180089953063,
0.10788029925187033,0.004493651204822577,
0.10793017456359102,0.015808539943134955,
0.10798004987531172,0.006300016216983279,
0.10802992518703242,0.01807780358627677,
0.10807980049875311,-0.00038900541892252123,
0.10812967581047382,0.02712914609801604,
0.10817955112219452,0.017387556576952127,
0.10822942643391521,0.014268777179454973,
0.10827930174563591,0.017095532833207583,
0.1083291770573566,0.028854749790311572,
0.1083790523690773,0.013480947971060723,
0.10842892768079801,0.0002968587868006894,
0.1084788029925187,0.007211732613400595,
0.1085286783042394,-0.009738525316376716,
0.1085785536159601,0.009557560883953042,
0.10862842892768079,-0.009299670261179498,
0.1086783042394015,-0.015694823605955685,
0.1087281795511222,0.01106932235584255,
0.1087780548628429,0.011429066889706787,
0.10882793017456359,-0.013003001590172165,
0.10887780548628428,-0.011192718195390841,
0.108927680798005,0.01983762033966776,
0.10897755610972569,-0.0027256273350149286,
0.10902743142144639,0.019691403215055726,
0.10907730673316708,-1.8649161275488546e-05,
0.10912718204488778,0.0009364558105520275,
0.10917705735660847,0.032335699204162155,
0.10922693266832918,0.020522747771040392,
0.10927680798004988,0.0025526714237922663,
0.10932668329177057,0.003293927039717403,
0.10937655860349127,0.01213605293887249,
0.10942643391521197,0.016981073271052333,
0.10947630922693267,0.016811012140876578,
0.10952618453865337,0.01686898718953961,
0.10957605985037407,-0.00810531998417344,
0.10962593516209476,0.03246143254524918,
0.10967581047381546,-0.02505297035194834,
0.10972568578553615,0.012417514271211998,
0.10977556109725686,0.01334261976618966,
0.10982543640897756,-0.009956416490555675,
0.10987531172069825,-0.024871587383617423,
0.10992518703241895,0.005254760871344476,
0.10997506234413965,-0.008252594958615713,
0.11002493765586036,0.0101813475629314,
0.11007481296758105,0.0011011207017962014,
0.11012468827930175,-0.007579441466589338,
0.11017456359102244,0.009966900143485433,
0.11022443890274314,0.023987194931519247,
0.11027431421446383,-0.012616880474464747,
0.11032418952618454,0.00943319643733196,
0.11037406483790524,0.0044183953910951115,
0.11042394014962593,0.015781914496652345,
0.11047381546134663,0.011150953541526776,
0.11052369077306733,-0.013075482374137854,
0.11057356608478804,-0.014082083717886886,
0.11062344139650873,-0.003337647391550414,
0.11067331670822943,-0.012879395239671413,
0.11072319201995012,0.02147151087081873,
0.11077306733167082,0.015408819421252822,
0.11082294264339151,-0.00483527023783278,
0.11087281795511222,-0.018770237133608283,
0.11092269326683292,-0.0013584235817263913,
0.11097256857855362,-0.02535268334810304,
0.11102244389027431,-0.012055438486060943,
0.111072319201995,0.0030006217018162173,
0.11112219451371572,0.006083735458215882,
0.11117206982543641,0.011177019440838796,
0.11122194513715711,-0.0005140519016815464,
0.1112718204488778,0.005693800925230535,
0.1113216957605985,0.010075577753657554,
0.11137157107231921,-0.007293170766826866,
0.1114214463840399,0.020624580099901993,
0.1114713216957606,-0.0341811351564361,
0.1115211970074813,-0.013566133186965115,
0.11157107231920199,-0.008025281442513889,
0.11162094763092269,-0.01558442836155438,
0.1116708229426434,-0.006464677184151524,
0.11172069825436409,0.004888273285795901,
0.11177057356608479,-0.03925193228603496,
0.11182044887780548,0.0034790507312501794,
0.11187032418952618,0.0034829095940995362,
0.11192019950124689,-0.014922596931522442,
0.11197007481296758,-0.010978927295279758,
0.11201995012468828,-0.007908534920729321,
0.11206982543640898,-0.013382537826161186,
0.11211970074812967,0.004872491293249997,
0.11216957605985037,-0.005873133220762033,
0.11221945137157108,-0.003967516525376545,
0.11226932668329177,-0.00636874028530331,
0.11231920199501247,-0.016171596352138506,
0.11236907730673316,-0.014599974031053373,
0.11241895261845386,-0.047627652451654706,
0.11246882793017457,-0.0029665525434535165,
0.11251870324189527,-0.008195901069188799,
0.11256857855361596,-0.006869707250194404,
0.11261845386533666,0.01681688620439568,
0.11266832917705735,-0.005701008515876111,
0.11271820448877805,-0.01023063042581442,
0.11276807980049876,-0.041470085415519026,
0.11281795511221945,-0.0011686313454079694,
0.11286783042394015,0.023516736593922415,
0.11291770573566084,-0.01417309856719078,
0.11296758104738154,-0.010695151392036372,
0.11301745635910225,-0.022758772911109712,
0.11306733167082295,0.013282737164200717,
0.11311720698254364,-0.017808981415887125,
0.11316708229426434,0.02127516004637913,
0.11321695760598503,-0.010451892337610885,
0.11326683291770574,-0.027461361417799306,
0.11331670822942644,-0.011162182090543251,
0.11336658354114713,0.006935963337388355,
0.11341645885286783,-0.008693011253531883,
0.11346633416458853,-0.016480007016149864,
0.11351620947630922,-0.007176584452449459,
0.11356608478802993,-0.007695874462835331,
0.11361596009975063,-0.02859019848953092,
0.11366583541147132,0.004366509128309912,
0.11371571072319202,-0.016188317398056793,
0.11376558603491271,-0.031191635044377802,
0.11381546134663342,-0.025896419252910533,
0.11386533665835412,-0.0018024875171838341,
0.11391521197007481,-0.0021479841927114097,
0.11396508728179551,-0.008740565715173714,
0.1140149625935162,-0.010647866148606517,
0.1140648379052369,-0.009300247701827717,
0.11411471321695761,0.001227930692717219,
0.1141645885286783,-0.02198330237793201,
0.114214463840399,-0.030747159137281897,
0.1142643391521197,-0.02371694728635157,
0.1143142144638404,-0.007876271927316849,
0.1143640897755611,-0.013376227798299162,
0.1144139650872818,-0.0083144319561772,
0.1144638403990025,0.004216617243334034,
0.11451371571072319,-0.014116510804921965,
0.11456359102244389,-0.004574127127612821,
0.11461346633416458,-0.036476790789474633,
0.11466334164588529,-0.014824137412737224,
0.11471321695760599,-0.010274008059427638,
0.11476309226932668,0.004246411234542212,
0.11481296758104738,-0.02621441177634603,
0.11486284289276807,0.021866284431027786,
0.11491271820448878,-0.003621007551136201,
0.11496259351620948,-0.010969859721382437,
0.11501246882793018,-0.00979879511397613,
0.11506234413965087,-0.006996117717929116,
0.11511221945137157,-0.011144352731971518,
0.11516209476309226,-0.010386991083934111,
0.11521197007481297,-0.00954423610253584,
0.11526184538653367,0.0056538211321158095,
0.11531172069825436,-0.007990210410462488,
0.11536159600997506,-0.010659468651802655,
0.11541147132169575,-0.011737161084155751,
0.11546134663341646,-0.009935295263999725,
0.11551122194513716,0.009417887157216923,
0.11556109725685786,0.0008827709677432741,
0.11561097256857855,0.016969731203333692,
0.11566084788029925,0.010702499583648398,
0.11571072319201996,-0.025556710514112457,
0.11576059850374065,-0.0012756847662096747,
0.11581047381546135,0.019655898923086702,
0.11586034912718204,-0.013421709528256345,
0.11591022443890274,0.002939749433496539,
0.11596009975062344,0.009593483465520976,
0.11600997506234415,0.012077129449669504,
0.11605985037406484,-0.012800954226648828,
0.11610972568578554,-0.026506084505740903,
0.11615960099750623,-0.002788125931290019,
0.11620947630922693,0.010176967664745691,
0.11625935162094764,-0.0018905439942378428,
0.11630922693266833,-0.012499364546866194,
0.11635910224438903,-0.0272706641174254,
0.11640897755610972,0.011524632789469224,
0.11645885286783042,-0.019459045370395944,
0.11650872817955112,0.004818200676735931,
0.11655860349127183,-0.017217699325216624,
0.11660847880299252,0.004602923740707584,
0.11665835411471322,-0.02343977242282696,
0.11670822942643391,-0.0065789341590861364,
0.11675810473815461,-0.018677736760771186,
0.11680798004987532,-0.0028845368904283873,
0.11685785536159601,-0.031290091562493766,
0.11690773067331671,0.014516226170626824,
0.1169576059850374,0.0017842813832607014,
0.1170074812967581,-0.011049414716951677,
0.1170573566084788,-0.010618389298836364,
0.1171072319201995,-0.003774302476474087,
0.1171571072319202,-0.006966427852739436,
0.1172069825436409,0.011326781006032466,
0.1172568578553616,-0.01938023947420687,
0.11730673316708229,-0.005081128827676009,
0.117356608478803,-0.022158054380047802,
0.1174064837905237,0.005217646794969009,
0.11745635910224439,-0.0336639851838109,
0.11750623441396509,-0.011036769337949004,
0.11755610972568578,-0.010945104671636873,
0.11760598503740648,-0.011776491317607291,
0.11765586034912719,0.01417819745497848,
0.11770573566084788,-0.0021917218344647193,
0.11775561097256858,0.006398566257185076,
0.11780548628428927,-0.005907548522977641,
0.11785536159600997,-0.006874655444423945,
0.11790523690773068,-0.0062106787284139965,
0.11795511221945137,-0.008886496278323917,
0.11800498753117207,0.0205322599159547,
0.11805486284289277,0.0009749667022538727,
0.11810473815461346,0.014802673277153082,
0.11815461346633417,-0.015618031257734168,
0.11820448877805487,-0.010679577627413346,
0.11825436408977556,0.005388048808926461,
0.11830423940149626,0.007129457504719911,
0.11835411471321695,0.010632515775118784,
0.11840399002493765,-0.013472311116742564,
0.11845386533665836,-0.0017607515587127745,
0.11850374064837906,0.0037227982439063077,
0.11855361596009975,0.006244968997470138,
0.11860349127182045,-0.0032760353236336096,
0.11865336658354114,-0.02472388339114464,
0.11870324189526185,-0.005466802083930135,
0.11875311720698255,0.015510129214110829,
0.11880299251870324,0.016971299984482893,
0.11885286783042394,0.017509915233664346,
0.11890274314214463,0.03817723635034708,
0.11895261845386533,-0.019954881748521024,
0.11900249376558604,0.008768114466296356,
0.11905236907730674,0.012622267706663153,
0.11910224438902743,-0.01433420532177764,
0.11915211970074813,-0.008520853145938033,
0.11920199501246882,0.010358061100830599,
0.11925187032418953,0.007160535117499865,
0.11930174563591023,0.007980811416186735,
0.11935162094763092,0.010753334462073464,
0.11940149625935162,0.03202515205334049,
0.11945137157107232,-0.009601430900469506,
0.11950124688279301,0.015189491729968974,
0.11955112219451372,0.011900315227412772,
0.11960099750623442,0.0030888015561526573,
0.11965087281795511,-0.01648233376259808,
0.11970074812967581,0.004941023563762931,
0.1197506234413965,0.03067249497392071,
0.11980049875311721,-0.011559542351350607,
0.11985037406483791,-0.004714523979661402,
0.1199002493765586,-0.01388583521695922,
0.1199501246882793,0.011966425297947152,
0.12,0.03311769853267617,
0.1200498753117207,0.0275552576674908,
0.1200997506234414,-0.00041531871333413614,
0.1201496259351621,0.014443326343507907,
0.12019950124688279,0.03650640321333218,
0.12024937655860349,0.02218101150593984,
0.12029925187032418,0.013923841106273387,
0.1203491271820449,0.025897765808723477,
0.12039900249376559,0.016492916392865344,
0.12044887780548628,0.02115180653585873,
0.12049875311720698,0.018488515105156773,
0.12054862842892768,0.018551311141419335,
0.12059850374064839,-0.003800314855147636,
0.12064837905236908,0.02070191029439349,
0.12069825436408978,0.005918662951550574,
0.12074812967581047,0.033415978196256836,
0.12079800498753117,0.029762456086292563,
0.12084788029925186,-0.008061755033646211,
0.12089775561097257,0.02328892064250206,
0.12094763092269327,-0.006225461327698412,
0.12099750623441397,0.016273989322333884,
0.12104738154613466,0.0248633664980788,
0.12109725685785536,-0.007128052076909273,
0.12114713216957607,0.01225994922967807,
0.12119700748129676,0.03608939482280832,
0.12124688279301746,0.030863676442373932,
0.12129675810473815,0.020531258407690087,
0.12134663341645885,0.013936731183704065,
0.12139650872817954,0.038036814358495596,
0.12144638403990025,0.022864004187909494,
0.12149625935162095,0.028476165418147428,
0.12154613466334165,0.03518446631861448,
0.12159600997506234,0.027110507146202986,
0.12164588528678304,0.00740412866888189,
0.12169576059850375,0.03088608517052292,
0.12174563591022444,0.008751055542980916,
0.12179551122194514,0.01854542539212709,
0.12184538653366583,-0.002224628840285143,
0.12189526184538653,0.05114941561807324,
0.12194513715710723,0.032119785194715735,
0.12199501246882793,0.04167955936605805,
0.12204488778054863,-0.0004488540963429877,
0.12209476309226933,0.021755277224197365,
0.12214463840399002,0.013659607017404774,
0.12219451371571072,0.02738888719506546,
0.12224438902743143,0.021499164532568945,
0.12229426433915212,0.014887164880367981,
0.12234413965087282,0.030585371730187424,
0.12239401496259351,0.021286708049697903,
0.12244389027431421,0.022368324959990114,
0.12249376558603492,0.01287675699535383,
0.12254364089775562,0.04401967517792431,
0.12259351620947631,0.030226956488698397,
0.122643391521197,-0.0033245779508948373,
0.1226932668329177,0.06161525940878574,
0.1227431421446384,0.03018945825266735,
0.12279301745635911,0.02281919003308001,
0.1228428927680798,0.03748903483558794,
0.1228927680798005,0.02596748771363111,
0.1229426433915212,0.03486189083256904,
0.12299251870324189,0.03037978822331979,
0.1230423940149626,0.04899610530002154,
0.1230922693266833,0.03901033128456598,
0.12314214463840399,0.023458124429652557,
0.12319201995012469,0.03485995744707,
0.12324189526184538,0.030585760577635037,
0.12329177057356608,0.02845347034554141,
0.12334164588528679,0.02352267096680815,
0.12339152119700748,0.019639086320644813,
0.12344139650872818,0.004509999323966521,
0.12349127182044888,0.010932347234575018,
0.12354114713216957,0.07363863351718927,
0.12359102244389028,0.02394085823371936,
0.12364089775561098,0.030812203849974594,
0.12369077306733167,0.054301749206484506,
0.12374064837905237,0.03737376876177077,
0.12379052369077306,0.015517338800447667,
0.12384039900249376,0.02708599690031986,
0.12389027431421447,0.037172821305588355,
0.12394014962593516,0.0240011303955058,
0.12399002493765586,0.028504271739254315,
0.12403990024937656,0.018083024707366807,
0.12408977556109725,0.03602468494549959,
0.12413965087281796,0.02343185532950705,
0.12418952618453866,0.020363149586455645,
0.12423940149625935,0.008184990704628643,
0.12428927680798005,0.024145735599556246,
0.12433915211970074,0.022819631727138856,
0.12438902743142144,0.009266250302792007,
0.12443890274314215,0.02042072926373719,
0.12448877805486284,0.02523315758890477,
0.12453865336658354,0.04210075879092043,
0.12458852867830424,0.037374772739703806,
0.12463840399002493,0.03452036928848744,
0.12468827930174564,0.03855639335771237,
0.12473815461346634,0.02742469061402638,
0.12478802992518703,0.01559099131406926,
0.12483790523690773,0.05045062433136546,
0.12488778054862842,0.030454091099513275,
0.12493765586034913,0.039280177077899145,
0.12498753117206983,0.03648238386332205,
0.12503740648379053,0.011595353977409219,
0.12508728179551123,0.023323629808332802,
0.12513715710723192,0.008130687797736735,
0.12518703241895263,0.009360447339653029,
0.1252369077306733,0.03787507340483624,
0.12528678304239402,0.04567712893020172,
0.1253366583541147,0.023180769754362562,
0.1253865336658354,0.011096028688268585,
0.12543640897755612,0.020172651187160016,
0.1254862842892768,-0.005694354945786698,
0.1255361596009975,0.0294288141544168,
0.1255860349127182,0.027236958128161678,
0.1256359102244389,0.023124171786588196,
0.1256857855361596,0.0350235872785435,
0.1257356608478803,0.02497496038538316,
0.125785536159601,0.03132061058929484,
0.12583541147132168,0.03991785963590009,
0.1258852867830424,0.022175786393884542,
0.1259351620947631,0.024545996784728512,
0.12598503740648379,-0.006856846652476323,
0.1260349127182045,0.01655919486420466,
0.12608478802992518,0.005676610988428029,
0.1261346633416459,0.0515695551419528,
0.1261845386533666,0.02262148631381207,
0.12623441396508728,0.03212286857120743,
0.126284289276808,0.011433061965187142,
0.12633416458852867,0.02600584542199524,
0.12638403990024938,0.026642790374953693,
0.1264339152119701,0.02473082185491438,
0.12648379052369077,0.037216351677278846,
0.12653366583541148,0.024115901149260807,
0.12658354114713216,0.0012713519034711872,
0.12663341645885287,0.005239328188738845,
0.12668329177057355,0.0365812173763521,
0.12673316708229426,0.031037744982129637,
0.12678304239401497,0.018593642726385716,
0.12683291770573565,0.04459813016453513,
0.12688279301745636,0.011021095564035995,
0.12693266832917705,0.011727482332682317,
0.12698254364089775,-0.009345153397390806,
0.12703241895261846,0.04405607520139532,
0.12708229426433915,0.0012465857054831837,
0.12713216957605986,0.018526704268898943,
0.12718204488778054,0.014374582808884914,
0.12723192019950125,0.015071724416813032,
0.12728179551122196,0.039867296813106176,
0.12733167082294264,0.024593772466104447,
0.12738154613466335,0.026402374121884276,
0.12743142144638403,-0.0024338930758711595,
0.12748129675810474,0.032947097365051206,
0.12753117206982545,0.014382897794152642,
0.12758104738154613,0.020932954691931963,
0.12763092269326684,0.015736531565242223,
0.12768079800498752,0.015776909169168785,
0.12773067331670823,-0.0011629302329126505,
0.1277805486284289,0.016026230140154203,
0.12783042394014962,0.04344205724666847,
0.12788029925187033,-0.0031252426823258767,
0.12793017456359101,0.02643089530902626,
0.12798004987531172,0.00665502712587961,
0.1280299251870324,0.03985677612683791,
0.12807980049875312,0.006808138911064653,
0.12812967581047383,0.01818799470448781,
0.1281795511221945,0.005103752453042655,
0.12822942643391522,0.019436576223942837,
0.1282793017456359,-0.006521343992055242,
0.1283291770573566,0.008221302104372302,
0.12837905236907732,0.047366953866949967,
0.128428927680798,0.006376758310723544,
0.1284788029925187,0.027276511544213095,
0.1285286783042394,0.04497106187996314,
0.1285785536159601,0.028243136066702083,
0.1286284289276808,0.00474772139660027,
0.1286783042394015,0.001607163826095907,
0.1287281795511222,0.006440336108543095,
0.12877805486284288,0.009907468678265361,
0.1288279301745636,-0.006837355039592995,
0.1288778054862843,0.01848297998460456,
0.12892768079800498,0.015324243753004757,
0.1289775561097257,-0.004630447062364252,
0.12902743142144638,0.0354491018554343,
0.12907730673316709,0.006278118596786269,
0.12912718204488777,-0.0080615105658937,
0.12917705735660848,0.03346281070871644,
0.1292269326683292,0.000881093510363533,
0.12927680798004987,0.012053274168302288,
0.12932668329177058,-0.0035336748464892404,
0.12937655860349126,0.005946842770085455,
0.12942643391521197,-0.020724500228127125,
0.12947630922693268,0.0329517413760853,
0.12952618453865336,-0.02631642759765182,
0.12957605985037407,-0.0057656562049643485,
0.12962593516209475,0.021739394268874678,
0.12967581047381546,0.008279205544737538,
0.12972568578553617,0.0038845914692902978,
0.12977556109725685,0.009676127322096353,
0.12982543640897756,-0.006690765247293473,
0.12987531172069824,0.036494257748069595,
0.12992518703241895,0.015402369411133102,
0.12997506234413966,0.011536382862554245,
0.13002493765586035,0.0017013575840764013,
0.13007481296758105,-0.00806817408571935,
0.13012468827930174,0.00204567630610983,
0.13017456359102245,-0.019205818516443252,
0.13022443890274316,0.032607462133942014,
0.13027431421446384,-0.006118847434884022,
0.13032418952618455,0.0169380497362955,
0.13037406483790523,0.003203531811489366,
0.13042394014962594,0.015173774528705717,
0.13047381546134662,0.0017577294191433827,
0.13052369077306733,0.018459048754369534,
0.13057356608478804,0.015237396227837017,
0.13062344139650872,0.027181678006430728,
0.13067331670822943,0.016003041759740752,
0.1307231920199501,-0.0037361033264796976,
0.13077306733167082,-0.012699365869225786,
0.13082294264339153,-0.007108893052257072,
0.13087281795511221,0.05015564016588897,
0.13092269326683292,0.013341016926784762,
0.1309725685785536,-0.05369516896249893,
0.13102244389027431,0.002334023114782066,
0.13107231920199502,-0.009277217370884626,
0.1311221945137157,0.015048382015399377,
0.13117206982543642,-0.015506271437203758,
0.1312219451371571,-0.005138074249259017,
0.1312718204488778,0.015988708752743407,
0.13132169576059852,-0.006326396242668409,
0.1313715710723192,0.016370672885988195,
0.1314214463840399,-0.013374156591292034,
0.1314713216957606,0.0014901757902248593,
0.1315211970074813,-0.0045128298155910265,
0.13157107231920198,0.021503778208540256,
0.1316209476309227,-0.024418438604530045,
0.1316708229426434,-0.01671488043939707,
0.13172069825436408,0.001224416415534381,
0.1317705735660848,-0.01442772809299386,
0.13182044887780547,-0.014108264979877206,
0.13187032418952618,-0.015282418145229447,
0.1319201995012469,-0.0007395346508030799,
0.13197007481296757,0.0006401208890107462,
0.13201995012468828,0.0046086446504740725,
0.13206982543640897,-0.0015325674410453186,
0.13211970074812968,-0.004748787220851423,
0.13216957605985039,-0.02032816388022471,
0.13221945137157107,-0.010393210145040011,
0.13226932668329178,-0.03717424157270241,
0.13231920199501246,-0.0017661422313392725,
0.13236907730673317,-0.010681019511781126,
0.13241895261845388,-0.025775712074495617,
0.13246882793017456,-0.014529488051746062,
0.13251870324189527,-0.011226958073406358,
0.13256857855361595,-0.012773578592199297,
0.13261845386533666,-0.01367319473319293,
0.13266832917705737,0.012184857911855255,
0.13271820448877805,-0.013775056102707035,
0.13276807980049876,0.00024593868509644595,
0.13281795511221944,0.012076352195848886,
0.13286783042394015,-0.00335851630366606,
0.13291770573566083,-0.018054203861614757,
0.13296758104738154,-0.02296999527328743,
0.13301745635910225,-0.0045222604667388075,
0.13306733167082294,-0.028428957140501955,
0.13311720698254365,0.00217804430477196,
0.13316708229426433,-0.012978412733260175,
0.13321695760598504,-0.008419451257534816,
0.13326683291770575,-0.025528304498749287,
0.13331670822942643,0.008828421325773234,
0.13336658354114714,0.008190260209139516,
0.13341645885286782,0.0004615809151627074,
0.13346633416458853,-0.01763525492455927,
0.13351620947630924,-0.029550071292398283,
0.13356608478802992,-0.004077551218923475,
0.13361596009975063,-0.007636389134090362,
0.1336658354114713,-0.013340454005896875,
0.13371571072319202,-0.010440765832432886,
0.13376558603491273,-0.02768382019943114,
0.1338154613466334,-0.013276599917767225,
0.13386533665835412,-0.010753050916974862,
0.1339152119700748,0.011050503435055111,
0.13396508728179551,0.00151001746151979,
0.1340149625935162,-0.0029845359061419947,
0.1340648379052369,-0.011528209186222096,
0.13411471321695762,0.004082998807934531,
0.1341645885286783,-0.022638001339574644,
0.134214463840399,-0.01140171605803798,
0.1342643391521197,0.004217666722635537,
0.1343142144638404,0.011351219019014104,
0.1343640897755611,0.018206385225419723,
0.1344139650872818,-0.009663135078954398,
0.1344638403990025,-0.03899836923500295,
0.13451371571072318,-0.009138882152584606,
0.1345635910224439,-0.024254778677596317,
0.1346134663341646,-0.012717318244585125,
0.13466334164588528,-0.01327120902828533,
0.134713216957606,-0.014744506192501766,
0.13476309226932667,-0.020142762971616317,
0.13481296758104738,-0.028294556334157096,
0.1348628428927681,-0.04663303874247433,
0.13491271820448877,-0.025044561586605056,
0.13496259351620948,-0.0007717398271880893,
0.13501246882793017,0.001868937653241155,
0.13506234413965088,-0.035826012691844746,
0.13511221945137158,0.020192734326542835,
0.13516209476309227,0.009470676355100875,
0.13521197007481298,-0.0023006999577552508,
0.13526184538653366,-0.016203560268012018,
0.13531172069825437,-0.03463816505249123,
0.13536159600997505,-0.020127271374874377,
0.13541147132169576,0.02795039442065974,
0.13546134663341647,0.0037542416931535174,
0.13551122194513715,-0.02810614520462746,
0.13556109725685786,-0.03177209856720607,
0.13561097256857854,-0.023137048938676123,
0.13566084788029925,0.0008473067408017801,
0.13571072319201996,-0.012068653705447834,
0.13576059850374064,0.013015055444168564,
0.13581047381546135,-0.013974190848015846,
0.13586034912718203,-0.018125310264415273,
0.13591022443890274,-0.018460278754730452,
0.13596009975062345,-0.014108307589700123,
0.13600997506234414,-0.007280452225085896,
0.13605985037406484,-0.006947988444738784,
0.13610972568578553,0.006434279765924606,
0.13615960099750624,0.00494430330092196,
0.13620947630922695,0.005289118866777786,
0.13625935162094763,0.001247675628166879,
0.13630922693266834,-0.00037101772215766913,
0.13635910224438902,0.006385539389790461,
0.13640897755610973,0.009893716367383475,
0.1364588528678304,-0.03349921482458683,
0.13650872817955112,-0.014940845611949022,
0.13655860349127183,0.021777038403247264,
0.1366084788029925,-0.03158957141914992,
0.13665835411471322,0.009581411229761935,
0.1367082294264339,0.025603076557416726,
0.1367581047381546,0.023051761965553343,
0.13680798004987532,0.006000752568761744,
0.136857855361596,0.03102074028519483,
0.1369077306733167,-0.01826734011987978,
0.1369576059850374,-0.030316505716878946,
0.1370074812967581,-0.011697800648861613,
0.13705735660847881,-0.0004408471470733038,
0.1371072319201995,-0.00326035987305909,
0.1371571072319202,0.01057130533992622,
0.1372069825436409,0.016574845915379964,
0.1372568578553616,0.00995953140342892,
0.1373067331670823,-0.011142254081984514,
0.137356608478803,0.01641825735353447,
0.1374064837905237,-0.012921403535580163,
0.13745635910224438,-0.00994311018996098,
0.1375062344139651,0.00021188066311674458,
0.1375561097256858,0.010507588509378859,
0.13760598503740648,-0.013520285595494562,
0.1376558603491272,0.03258036960215256,
0.13770573566084787,0.04330102951026844,
0.13775561097256858,0.004371480317314131,
0.13780548628428926,-0.013265150226144547,
0.13785536159600997,0.026555248505202966,
0.13790523690773068,0.027543530378739335,
0.13795511221945136,0.004220469229419929,
0.13800498753117207,-0.01665715705872595,
0.13805486284289276,0.0093392746622745,
0.13810473815461347,0.012366217423603772,
0.13815461346633418,0.018072071313368982,
0.13820448877805486,-0.01234142244224188,
0.13825436408977557,0.0015987044862823224,
0.13830423940149625,0.020077792700388,
0.13835411471321696,0.013450111739169351,
0.13840399002493767,0.013298073133212542,
0.13845386533665835,0.006679278912654277,
0.13850374064837906,0.027925967012473584,
0.13855361596009974,-0.007387861653456328,
0.13860349127182045,0.01468871590358074,
0.13865336658354116,0.0046953748307187165,
0.13870324189526184,0.010029266492594004,
0.13875311720698255,0.011486044821773555,
0.13880299251870323,0.007487498879145751,
0.13885286783042394,0.017261746084178443,
0.13890274314214462,0.021151433787568022,
0.13895261845386533,0.00035648358138133315,
0.13900249376558604,0.021381689190485057,
0.13905236907730673,0.00826078304393868,
0.13910224438902744,0.016104670467635758,
0.13915211970074812,-0.03062215037098029,
0.13920199501246883,0.030116454891374028,
0.13925187032418954,0.007891891758073116,
0.13930174563591022,0.02290672785730581,
0.13935162094763093,0.009429274700669638,
0.1394014962593516,-0.006602727550242641,
0.13945137157107232,0.017182016151182193,
0.13950124688279303,-0.002127277653276319,
0.1395511221945137,0.00897523299693242,
0.13960099750623442,0.007195614697410725,
0.1396508728179551,0.015731472026444326,
0.1397007481296758,0.0004109757671256417,
0.13975062344139652,0.012926896906518007,
0.1398004987531172,0.0033396526368549666,
0.1398503740648379,-0.000983335205603118,
0.1399002493765586,0.023449722764308775,
0.1399501246882793,0.018039429582526162,
0.14,0.02323580578055401,
0.1400498753117207,0.020577804858431258,
0.1400997506234414,0.02352141891158567,
0.1401496259351621,-0.0018342241439570917,
0.1401995012468828,0.02859900724959564,
0.14024937655860348,-0.007118816548233084,
0.1402992518703242,0.012833555341008947,
0.1403491271820449,0.02153675490174946,
0.14039900249376558,0.03936726457423855,
0.1404488778054863,-0.009486277267927116,
0.14049875311720697,0.010073994718604543,
0.14054862842892768,0.004109708312085068,
0.1405985037406484,0.025947674379416887,
0.14064837905236907,0.021285118400960652,
0.14069825436408978,0.01725041993744955,
0.14074812967581046,0.01013568060835874,
0.14079800498753117,0.026506844180850468,
0.14084788029925188,0.03376193857120848,
0.14089775561097256,-0.0038987325926848754,
0.14094763092269327,0.02088285852082975,
0.14099750623441396,0.008042752217523328,
0.14104738154613466,0.018305443492390133,
0.14109725685785537,0.015403779921492593,
0.14114713216957606,0.005094643887686632,
0.14119700748129677,0.01843488292526574,
0.14124688279301745,0.03234665348777602,
0.14129675810473816,0.03340170826618728,
