time,amplitude,label
0.0,0.013343040941118007,
4.987531172069826e-05,0.03614383563482193,
9.975062344139652e-05,-0.0016956217524772502,
0.00014962593516209475,0.02094178511776741,
0.00019950124688279303,0.03582635165548113,
0.00024937655860349125,0.04085332009677552,
0.0002992518703241895,-0.0041017881393485,
0.00034912718204488776,0.026354349763120028,
0.00039900249376558606,-0.0038699803216588856,
0.0004488778054862843,0.003574132851404198,
0.0004987531172069825,-0.022547369966564333,
0.0005486284289276808,0.014406538518663727,
0.000598503740648379,0.019198009943935834,
0.0006483790523690773,0.017611435315965533,
0.0006982543640897755,0.008763197906088692,
0.0007481296758104738,0.005506278689300817,
0.0007980049875311721,0.034335648998082016,
0.0008478802992518703,0.027977188326058534,
0.0008977556109725686,0.0237207298429768,
0.0009476309226932668,0.011958603444293264,
0.000997506234413965,0.02345036993591999,
0.0010473815461346633,0.0038743434923647372,
0.0010972568578553616,-0.009112593097441645,
0.00114713216957606,0.015072813663094098,
0.001197007481296758,0.00040948587693275147,
0.0012468827930174563,-0.0060081140973789575,
0.0012967581047381546,0.007459516725243788,
0.001346633416458853,-0.012174309978156144,
0.001396508728179551,0.0364786009329327,
0.0014463840399002493,0.00040763535701170226,
0.0014962593516209476,0.024491111432570718,
0.001546134663341646,0.007309959691423406,
0.0015960099750623442,0.009171970030985365,
0.0016458852867830423,0.005755578312602658,
0.0016957605985037406,-0.0047199881683431645,
0.001745635910224439,0.03029445334111946,
0.0017955112219451373,-0.02303568401694447,
0.0018453865336658353,-0.0314999471259675,
0.0018952618453865336,0.024787159012931242,
0.001945137157107232,0.011852729421131917,
0.00199501246882793,-0.018105502403288842,
0.0020448877805486283,0.013035897131868465,
0.0020947630922693266,0.0009970118965810328,
0.002144638403990025,-0.010496200879494957,
0.0021945137157107233,0.002434127457530159,
0.0022443890274314216,0.00960593352759674,
0.00229426433915212,-0.030113458475575734,
0.0023441396508728177,-0.006736970570649892,
0.002394014962593516,-0.02069619474431061,
0.0024438902743142144,0.04788992628620113,
0.0024937655860349127,-0.008747584225238863,
0.002543640897755611,-0.007017555816917364,
0.0025935162094763093,-0.015136231707298017,
0.0026433915211970076,-0.014857207404478068,
0.002693266832917706,0.001105051019520187,
0.002743142144638404,0.01588085104341195,
0.002793017456359102,0.008224733934482685,
0.0028428927680798004,-0.01552363552018554,
0.0028927680798004987,-0.009794244985219643,
0.002942643391521197,0.0019622969375770673,
0.0029925187032418953,-0.029120296715979353,
0.0030423940149625936,-0.0006213675029686618,
0.003092269326683292,0.00082434187852614,
0.00314214463840399,0.0014865467577117259,
0.0031920199501246885,0.003864724000025358,
0.0032418952618453864,0.0021076405983774006,
0.0032917705735660847,-0.009630801767807565,
0.003341645885286783,-0.030658581328242826,
0.0033915211970074813,-0.006512438394143148,
0.0034413965087281796,0.007307675357069698,
0.003491271820448878,-0.014489950395406997,
0.003541147132169576,-0.006294145051020947,
0.0035910224438902745,-0.02861694596129503,
0.0036408977556109724,-0.006923099755853821,
0.0036907730673316707,-0.016480437307132237,
0.003740648379052369,-0.015036863466970942,
0.0037905236907730673,0.0047598912980479045,
0.0038403990024937656,-0.012759725950452445,
0.003890274314214464,0.02325844619325234,
0.003940149625935162,-0.007279639280631873,
0.00399002493765586,-0.04018255224825491,
0.004039900249376558,0.005921909588277948,
0.004089775561097257,-0.02016433448084915,
0.004139650872817955,-0.0176454705923961,
0.004189526184538653,0.008019346741209875,
0.004239401496259352,-0.01601321930394975,
0.00428927680798005,-0.020607981340849957,
0.004339152119700748,-0.009885191338301267,
0.0043890274314214465,-0.02542604671263539,
0.004438902743142145,-0.046041118948563296,
0.004488778054862843,-0.013463795433545459,
0.004538653366583541,-0.02217984778163909,
0.00458852867830424,0.01310488179316672,
0.004638403990024938,0.0195775261939433,
0.0046882793017456355,0.0007001667084138834,
0.004738154613466334,0.0054440373495063515,
0.004788029925187032,-0.009744665215095347,
0.00483790523690773,-0.015377359865951163,
0.004887780548628429,-0.008663056616783946,
0.004937655860349127,-0.0049801913785688726,
0.004987531172069825,-0.03694612385084438,
0.005037406483790524,-0.021300249653737745,
0.005087281795511222,0.006750993342720111,
0.00513715710723192,-0.010168034267396715,
0.0051870324189526185,-0.015375518981307401,
0.005236907730673317,-0.03051241979418882,
0.005286783042394015,-0.02490337699190965,
0.0053366583541147134,-0.035190285236074065,
0.005386533665835412,-0.03656497569513813,
0.00543640897755611,-0.018445299546878555,
0.005486284289276808,-0.03179648243245015,
0.005536159600997507,-0.04955230378340687,
0.005586034912718204,-0.019266378037700413,
0.005635910224438902,-0.013302065540989963,
0.005685785536159601,-0.01296214984500413,
0.005735660847880299,0.0019370252268789273,
0.005785536159600997,-0.017349058824293693,
0.005835411471321696,0.01643142575314935,
0.005885286783042394,-0.012228819470172667,
0.005935162094763092,-0.03489372617580843,
0.0059850374064837905,0.015558945154498169,
0.006034912718204489,-0.024782303227978204,
0.006084788029925187,-0.0029537417550667706,
0.0061346633416458855,-0.019421607053328637,
0.006184538653366584,-0.0155476336604473,
0.006234413965087282,0.0013174409493738014,
0.00628428927680798,-0.01980222032890172,
0.006334164588528679,-0.029237582462504536,
0.006384039900249377,-0.01765441150282643,
0.006433915211970074,-0.019087708223052446,
0.006483790523690773,-0.011249247397217357,
0.006533665835411471,-0.01881080254867447,
0.006583541147132169,-0.019440673454473152,
0.006633416458852868,-0.042449823398723684,
0.006683291770573566,0.001669098576909736,
0.006733167082294264,-0.01564840571271278,
0.0067830423940149626,-0.004442514253390466,
0.006832917705735661,-0.0026017727194103425,
0.006882793017456359,-0.02193110905500486,
0.0069326683291770575,-0.021664301410018804,
0.006982543640897756,-0.005581492863279873,
0.007032418952618454,-0.013497606318991058,
0.007082294264339152,-0.03554834571740651,
0.007132169576059851,-0.016185262889286237,
0.007182044887780549,-0.01541446594444803,
0.007231920199501247,0.0023101823113359995,
0.007281795511221945,-0.01872429910848092,
0.007331670822942643,-0.032644572059364343,
0.007381546134663341,-0.011002009650902155,
0.00743142144638404,-0.007100615320231702,
0.007481296758104738,0.00031229032536948115,
0.007531172069825436,-0.0476468165629328,
0.007581047381546135,-0.026579871029516117,
0.007630922693266833,-0.006502063152704945,
0.007680798004987531,-0.019665711748170663,
0.0077306733167082295,-0.030570758580681284,
0.007780548628428928,-0.01276606218703856,
0.007830423940149626,-0.06032411989930525,
0.007880299251870324,-0.02923515338313452,
0.007930174563591023,-0.028481867331421634,
0.00798004987531172,-0.012495553979989985,
0.00802992518703242,0.009928274666162529,
0.008079800498753117,-0.0035274905721934657,
0.008129675810473816,-0.022742478987852824,
0.008179551122194513,-0.025552350912717178,
0.008229426433915213,0.0030660528211721196,
0.00827930174563591,-0.03508505454713242,
0.00832917705735661,-0.013881144303956958,
0.008379052369077307,-0.019639046223436197,
0.008428927680798006,-0.002979930211471098,
0.008478802992518703,-0.03495960879152874,
0.0085286783042394,-0.033707048714371454,
0.0085785536159601,-0.031052893974778922,
0.008628428927680797,-0.008115259906158072,
0.008678304239401496,-0.009675799916047558,
0.008728179551122194,-0.001605356732299612,
0.008778054862842893,-0.01817259509141742,
0.00882793017456359,-0.0022764684791728874,
0.00887780548628429,-0.030315332063079077,
0.008927680798004987,-0.018766796978582006,
0.008977556109725686,-0.022664682177337508,
0.009027431421446384,-0.03613898907475995,
0.009077306733167083,-0.02794340690028534,
0.00912718204488778,-0.03546927287043701,
0.00917705735660848,-0.013803475437748252,
0.009226932668329177,-0.026281703409430757,
0.009276807980049876,-0.02587356954419493,
0.009326683291770574,-0.020939583283543728,
0.009376558603491271,-0.006085622975913188,
0.00942643391521197,-0.022412705237548163,
0.009476309226932668,-0.027254367017051636,
0.009526184538653367,-0.025808777672578602,
0.009576059850374064,-0.02070142513572619,
0.009625935162094763,-0.04172663233376404,
0.00967581047381546,-0.01864489017902102,
0.00972568578553616,0.004770227712832743,
0.009775561097256857,-0.024586158291913428,
0.009825436408977557,-0.032919030408955025,
0.009875311720698254,0.0023927036406690954,
0.009925187032418953,0.005367960099131458,
0.00997506234413965,-0.007414522243484539,
0.01002493765586035,-0.01928198615900206,
0.010074812967581047,-0.011087891577724423,
0.010124688279301746,-0.02210567251005021,
0.010174563591022444,0.006483865820145294,
0.010224438902743141,-0.02043456720142951,
0.01027431421446384,-0.01977594974251224,
0.010324189526184538,-0.016155106173486602,
0.010374064837905237,-0.03686794483442115,
0.010423940149625935,0.007203151346501228,
0.010473815461346634,0.0040096088466308796,
0.010523690773067331,0.005887955395231119,
0.01057356608478803,-0.0545007978088023,
0.010623441396508728,-0.005374836087979589,
0.010673316708229427,-0.02125338600161917,
0.010723192019950124,0.0033006945731090635,
0.010773067331670824,-0.018148180958711308,
0.010822942643391521,0.02825037858554285,
0.01087281795511222,-0.0038968657678272074,
0.010922693266832918,-0.009625511243980481,
0.010972568578553617,0.005933588561604,
0.011022443890274314,-0.004935855834348136,
0.011072319201995013,0.005642942239904832,
0.01112219451371571,-0.009142084912654763,
0.011172069825436408,-0.0014917312385856873,
0.011221945137157107,-0.00447036693574802,
0.011271820448877805,-0.01089348421773623,
0.011321695760598504,-0.002456503873159069,
0.011371571072319201,-0.013182063717818049,
0.0114214463840399,-0.021020669809266295,
0.011471321695760598,-0.025764736095404157,
0.011521197007481297,-0.014020478574692942,
0.011571072319201995,0.0030949539988020143,
0.011620947630922694,-0.0038025417633299496,
0.011670822942643391,-0.0010143987654422063,
0.01172069825436409,-0.0156482995206995,
0.011770573566084788,0.007309727451039777,
0.011820448877805487,-0.007535635846767672,
0.011870324189526184,0.003605591883058321,
0.011920199501246884,0.009340550346644608,
0.011970074812967581,-0.008220262477349447,
0.012019950124688279,-0.00912916344276191,
0.012069825436408978,0.014465689076594226,
0.012119700748129675,0.018036290094902832,
0.012169576059850374,-0.00028562437124557926,
0.012219451371571072,0.016082715532955254,
0.012269326683291771,-0.01337487096210946,
0.012319201995012468,0.016456718383006556,
0.012369077306733168,0.007613606207350539,
0.012418952618453865,0.009179329227588781,
0.012468827930174564,-0.02432770080469336,
0.012518703241895262,0.018128582093584554,
0.01256857855361596,0.016051578772024858,
0.012618453865336658,0.023527536557608274,
0.012668329177057357,-0.0035605281884820146,
0.012718204488778055,0.01758930095371266,
0.012768079800498754,0.016371337930854917,
0.012817955112219451,-0.0013017096764709373,
0.012867830423940149,0.007730188928643571,
0.012917705735660848,-0.03532964458413812,
0.012967581047381545,-0.006478777426322784,
0.013017456359102245,-0.011311358117952735,
0.013067331670822942,0.00900149680768059,
0.013117206982543641,-0.0010241325939383088,
0.013167082294264339,0.021177154467827905,
0.013216957605985038,0.026917786847696832,
0.013266832917705735,0.021708435315753682,
0.013316708229426434,0.01847492924851814,
0.013366583541147132,0.0018415724513344651,
0.013416458852867831,0.015319588804650293,
0.013466334164588529,-0.024754822518968052,
0.013516209476309228,0.017897587578629456,
0.013566084788029925,0.019663132509653333,
0.013615960099750624,0.015569328893959898,
0.013665835411471322,0.028225908492386164,
0.01371571072319202,0.021893610566193558,
0.013765586034912718,0.017926700304401307,
0.013815461346633416,0.02609760727661893,
0.013865336658354115,0.0034368644934388033,
0.013915211970074812,0.0008575819615839805,
0.013965087281795512,0.0022858552014505644,
0.014014962593516209,0.02307964627663132,
0.014064837905236908,-0.005333108518320955,
0.014114713216957606,0.007824097000285484,
0.014164588528678305,0.014735129527943366,
0.014214463840399002,0.013706063415893595,
0.014264339152119701,0.003241082510493331,
0.014314214463840399,-0.016088496656672356,
0.014364089775561098,0.009106584137510886,
0.014413965087281795,-0.003898571883044117,
0.014463840399002495,0.02707882034015128,
0.014513715710723192,0.019355792591644935,
0.01456359102244389,0.024563111625358895,
0.014613466334164589,0.010011584758590986,
0.014663341645885286,-0.010057967571259083,
0.014713216957605985,0.021626036116870882,
0.014763092269326683,-0.005796038152786983,
0.014812967581047382,0.02634375215620887,
0.01486284289276808,0.029370560078881565,
0.014912718204488778,0.025262359141999206,
0.014962593516209476,0.03103639483000673,
0.015012468827930175,0.03872543873962016,
0.015062344139650873,0.025946825401280387,
0.015112219451371572,0.014518517421189602,
0.01516209476309227,-0.004380966010610277,
0.015211970074812968,0.026593466892393943,
0.015261845386533666,0.016182899086408024,
0.015311720698254365,0.0033705578605698356,
0.015361596009975062,-0.02303550401613587,
0.01541147132169576,0.021928627970331765,
0.015461346633416459,-0.00568755425672781,
0.015511221945137156,0.02327903204650599,
0.015561097256857856,0.057460624925836895,
0.015610972568578553,0.01634917728744972,
0.015660847880299252,0.0006184882376268526,
0.01571072319201995,0.023513240575437994,
0.015760598503740647,0.01845432209426446,
0.015810473815461346,0.0021451609042914856,
0.015860349127182045,0.03942109918427009,
0.015910224438902745,0.015369161014996285,
0.01596009975062344,0.029746350649475367,
0.01600997506234414,0.022030293380578138,
0.01605985037406484,0.03864009758665611,
0.016109725685785538,0.031073912867920668,
0.016159600997506234,0.025964884934060975,
0.016209476309226933,0.01443513812240021,
0.016259351620947632,0.019615719773576144,
0.016309226932668328,0.04717157568931747,
0.016359102244389027,0.0009826527274552459,
0.016408977556109726,0.03299020176712512,
0.016458852867830425,0.03853638556963071,
0.01650872817955112,0.04558364289815349,
0.01655860349127182,0.01812244837843634,
0.01660847880299252,-0.0029378742152274956,
0.01665835411471322,0.02496229290044997,
0.016708229426433914,0.014103754366201694,
0.016758104738154613,0.048098247458505675,
0.016807980049875312,0.022364535026374623,
0.01685785536159601,-0.014491823436329637,
0.016907730673316707,0.026737683843278157,
0.016957605985037406,0.027957067933118616,
0.017007481296758106,0.030602628840462127,
0.0170573566084788,-0.01723443535477205,
0.0171072319201995,-0.005638526777629181,
0.0171571072319202,0.03666929245923416,
0.0172069825436409,0.032276354330743176,
0.017256857855361595,0.044851142654225795,
0.017306733167082294,0.038413994146088315,
0.017356608478802993,0.027817516038064073,
0.017406483790523692,0.016326864102359118,
0.017456359102244388,0.012735397531692741,
0.017506234413965087,0.03423805011905338,
0.017556109725685786,0.02823252850381782,
0.017605985037406485,0.01358649936891447,
0.01765586034912718,0.0020208339199897646,
0.01770573566084788,0.0265902259914627,
0.01775561097256858,0.021694307976308728,
0.01780548628428928,0.01873015056807939,
0.017855361596009974,0.03049531661602837,
0.017905236907730673,0.01329572717104938,
0.017955112219451373,0.047680695505006726,
0.018004987531172068,-0.012983346599551901,
0.018054862842892767,0.02861990817127978,
0.018104738154613467,0.031184460109909298,
0.018154613466334166,0.022580072730468213,
0.01820448877805486,0.02378067698607395,
0.01825436408977556,0.009518313954562868,
0.01830423940149626,-0.0015165713897844907,
0.01835411471321696,-0.011358535700106108,
0.018403990024937655,0.016885100623203225,
0.018453865336658354,-0.01481224860135947,
0.018503740648379053,0.0197739052512789,
0.018553615960099752,0.012978963499964465,
0.018603491271820448,0.029555203605745373,
0.018653366583541147,0.017372958135365196,
0.018703241895261846,0.014741975447156646,
0.018753117206982542,0.0007872820472771755,
0.01880299251870324,0.009290952289663503,
0.01885286783042394,0.028381410700718396,
0.01890274314214464,0.03469077499791652,
0.018952618453865335,0.0209932880977423,
0.019002493765586034,0.01926669106265728,
0.019052369077306733,0.022831867824206546,
0.019102244389027433,0.03885811845317163,
0.01915211970074813,0.009532174682693214,
0.019201995012468828,0.021496475328245935,
0.019251870324189527,0.02218028309118019,
0.019301745635910226,0.002500310739852846,
0.01935162094763092,0.0031399088038960195,
0.01940149625935162,-0.019104110134028327,
0.01945137157107232,0.0037750423121705925,
0.01950124688279302,-0.004036839488417147,
0.019551122194513715,-0.0283660181768715,
0.019600997506234414,0.009114697609495633,
0.019650872817955113,0.00036860867551494203,
0.01970074812967581,-0.009494367559915368,
0.019750623441396508,0.026814783950121386,
0.019800498753117207,0.04228715994772153,
0.019850374064837906,0.030097083871810183,
0.019900249376558602,0.028493028766426013,
0.0199501246882793,0.03137704150200184,
0.02,0.0341980436470082,
0.0200498753117207,0.031618900972607805,
0.020099750623441395,0.02558772465229315,
0.020149625935162094,0.035428568131447485,
0.020199501246882794,0.021534051143663416,
0.020249376558603493,0.004127172442039551,
0.02029925187032419,-0.004061878019932189,
0.020349127182044888,0.010612453862504327,
0.020399002493765587,0.03235337506715477,
0.020448877805486283,0.034525250455150217,
0.02049875311720698,0.02351254432752988,
0.02054862842892768,0.004465589563392739,
0.02059850374064838,-0.000955861622303671,
0.020648379052369076,-0.0008020099053305009,
0.020698254364089775,-0.005814045537317715,
0.020748129675810474,0.012598807654063918,
0.020798004987531173,0.028632005903119137,
0.02084788029925187,0.010033962824147197,
0.020897755610972568,0.010024919569048234,
0.020947630922693267,0.000636747930431579,
0.020997506234413967,-0.01353861749892097,
0.021047381546134662,-0.008724676541218947,
0.02109725685785536,0.038046431704784736,
0.02114713216957606,-0.013736805303642902,
0.02119700748129676,0.014808974863491926,
0.021246882793017455,0.03258234265845608,
0.021296758104738155,0.025455448201403413,
0.021346633416458854,0.010026171190010705,
0.02139650872817955,-0.0017081967443423624,
0.02144638403990025,-0.012197057699158218,
0.021496259351620948,0.011850877630713392,
0.021546134663341647,-0.01209682321021566,
0.021596009975062343,0.01396676682901278,
0.021645885286783042,-0.005729435463848071,
0.02169576059850374,0.004001205322836149,
0.02174563591022444,-0.019583396860170896,
0.021795511221945136,-0.017244991864005597,
0.021845386533665835,-0.004987716201480485,
0.021895261845386534,0.03100562059726435,
0.021945137157107233,0.003848962746470735,
0.02199501246882793,-0.015232000229584118,
0.02204488778054863,0.03415492742012695,
0.022094763092269327,-0.0010833962063820177,
0.022144638403990027,-0.0056061116650874465,
0.022194513715710722,0.0021322672525635284,
0.02224438902743142,-0.002403853810180588,
0.02229426433915212,0.03702469833361048,
0.022344139650872816,0.009417994938757952,
0.022394014962593516,0.0032771359460266715,
0.022443890274314215,-0.005285610029617936,
0.022493765586034914,0.01874348716895423,
0.02254364089775561,-0.005314353062120524,
0.02259351620947631,0.019816246691173312,
0.022643391521197008,-0.0054096657045906785,
0.022693266832917707,-0.004317477997666,
0.022743142144638403,-0.020663030512940262,
0.022793017456359102,-0.01307397362107882,
0.0228428927680798,-0.021966729042173054,
0.0228927680798005,0.006894687386530582,
0.022942643391521196,-0.015021936969954222,
0.022992518703241895,-0.03355815221183985,
0.023042394014962594,-0.014274909990139346,
0.02309226932668329,0.008839085960624214,
0.02314214463840399,-0.022074087125610722,
0.02319201995012469,0.0017480929662510563,
0.023241895261845388,-0.03627398783078692,
0.023291770573566083,-0.012706399627050372,
0.023341645885286783,-0.016520008181559666,
0.02339152119700748,-0.020679258651171588,
0.02344139650872818,-0.0015375482461390659,
0.023491271820448877,-0.01721094518000827,
0.023541147132169576,-0.020942177269898558,
0.023591022443890275,-0.003933533298084629,
0.023640897755610974,-0.008166749171428086,
0.02369077306733167,-0.007545417923932819,
0.02374064837905237,-0.010438998982003846,
0.023790523690773068,0.006611452015312102,
0.023840399002493767,-0.010407683873469055,
0.023890274314214463,-0.005427768063657983,
0.023940149625935162,0.0008421958503650254,
0.02399002493765586,-0.04011540926864037,
0.024039900249376557,-0.01730737173123987,
0.024089775561097256,-0.01884706546892695,
0.024139650872817955,-0.0212521780615694,
0.024189526184538655,-0.01655533425203477,
0.02423940149625935,0.0022971199312084457,
0.02428927680798005,-0.03295836711233599,
0.02433915211970075,-0.008371979550191094,
0.024389027431421448,-0.011985211864600475,
0.024438902743142144,-0.0027279792704127098,
0.024488778054862843,0.0036590222206189134,
0.024538653366583542,-0.003646156475030503,
0.02458852867830424,-0.012568768902896545,
0.024638403990024937,-0.017001395797347853,
0.024688279301745636,-0.017331536239800112,
0.024738154613466335,0.013167595973010442,
0.02478802992518703,-0.0032158815286657,
0.02483790523690773,-0.01969349597626286,
0.02488778054862843,-0.03132145878568065,
0.02493765586034913,-0.026729268396182018,
0.024987531172069824,0.01092471733457191,
0.025037406483790523,0.0017450164022813248,
0.025087281795511222,-0.02777605176447574,
0.02513715710723192,0.014304511506926418,
0.025187032418952617,-0.010326977519490578,
0.025236907730673316,-0.008905667243273168,
0.025286783042394016,-0.03289732308431765,
0.025336658354114715,-0.00406937031720233,
0.02538653366583541,-0.010207411395683545,
0.02543640897755611,-0.026848946996881173,
0.02548628428927681,-0.012212950019033423,
0.025536159600997508,0.0031597178629147356,
0.025586034912718204,-0.032006690630660264,
0.025635910224438903,-0.010129759215499825,
0.025685785536159602,-0.009612231205357327,
0.025735660847880298,-0.005818033314297116,
0.025785536159600997,0.008707896647364956,
0.025835411471321696,-0.014462517862310093,
0.025885286783042395,-0.01572544979238623,
0.02593516209476309,-0.010758328618024775,
0.02598503740648379,-0.010105987845835699,
0.02603491271820449,-0.015173439224500897,
0.02608478802992519,-0.012119979664266744,
0.026134663341645884,0.009713849155353785,
0.026184538653366583,-0.01633970911440715,
0.026234413965087282,0.004926318185438025,
0.02628428927680798,-0.02993396607804553,
0.026334164588528677,-0.012502597871971548,
0.026384039900249377,-0.025176128651211403,
0.026433915211970076,-0.012870307939657002,
0.02648379052369077,0.016007127874276283,
0.02653366583541147,-0.03620794135309424,
0.02658354114713217,-0.021330302549952343,
0.02663341645885287,0.007957627472269548,
0.026683291770573565,-0.046279660279402335,
0.026733167082294264,-0.02389494827525245,
0.026783042394014963,-0.009344599693427196,
0.026832917705735662,0.001265267459102104,
0.026882793017456358,-0.010634581391461746,
0.026932668329177057,-0.01041967193090695,
0.026982543640897756,-0.02361765675747892,
0.027032418952618455,-0.0018799743906153209,
0.02708229426433915,-0.047419201704963485,
0.02713216957605985,-0.019365660713597604,
0.02718204488778055,-0.023252660267129684,
0.02723192019950125,0.004922823736439388,
0.027281795511221944,0.00383459728078632,
0.027331670822942643,-0.012155773209514088,
0.027381546134663343,-0.021290939057268404,
0.02743142144638404,-0.0026490814866041382,
0.027481296758104738,-0.014453657027251286,
0.027531172069825437,-0.018162073064116796,
0.027581047381546136,-0.013488963651258871,
0.02763092269326683,-0.020150970155829343,
0.02768079800498753,-0.004603561514705088,
0.02773067331670823,-0.012098399183178917,
0.02778054862842893,-0.002685338614584965,
0.027830423940149625,-0.014840985343041789,
0.027880299251870324,-0.029006976518096805,
0.027930174563591023,-0.0064475800676080264,
0.027980049875311722,-0.03391779205816019,
0.028029925187032418,-0.037977142291263075,
0.028079800498753117,-0.034727807123607936,
0.028129675810473816,-0.05844124369208165,
0.028179551122194512,0.0014186774274712738,
0.02822942643391521,0.00456252621169909,
0.02827930174563591,0.02583029555422297,
0.02832917705735661,-0.006903839204773311,
0.028379052369077305,-0.005901427637628881,
0.028428927680798004,-0.019275757418094824,
0.028478802992518704,-0.02026271058617575,
0.028528678304239403,-0.02359846236030674,
0.0285785536159601,-0.019915628635022883,
0.028628428927680798,-0.004609438537039386,
0.028678304239401497,-0.0013594437524908597,
0.028728179551122196,-0.03876628858927667,
0.02877805486284289,-0.048075075167983115,
0.02882793017456359,-0.017825954993874737,
0.02887780548628429,-0.015780663357580712,
0.02892768079800499,-0.018233054553281267,
0.028977556109725685,-0.013489827357794896,
0.029027431421446384,-0.030942394549731935,
0.029077306733167083,0.008880723442328611,
0.02912718204488778,-0.0026399714671560097,
0.029177057356608478,-0.018893568766653795,
0.029226932668329177,-0.022531148002908664,
0.029276807980049877,-0.005818923730031095,
0.029326683291770572,0.005334678151376043,
0.02937655860349127,-0.017741756794422074,
0.02942643391521197,-0.013779132854601188,
0.02947630922693267,-0.009947233957445376,
0.029526184538653365,-0.02410349039730881,
0.029576059850374065,-0.008040596767539116,
0.029625935162094764,-0.02502303656944837,
0.029675810473815463,0.01954103302463226,
0.02972568578553616,-0.009146242063322778,
0.029775561097256858,-0.025770638362692166,
0.029825436408977557,-0.00654066373099481,
0.029875311720698253,-0.002633711401797462,
0.029925187032418952,-0.02283386154879561,
0.02997506234413965,-0.031318328280037444,
0.03002493765586035,0.014422529048724446,
0.030074812967581046,0.016623509051512355,
0.030124688279301745,-0.013763550446690146,
0.030174563591022444,-0.030153747177547235,
0.030224438902743143,0.011823369945266157,
0.03027431421446384,-0.009202119357386343,
0.03032418952618454,-0.022828220788514472,
0.030374064837905237,-0.035913028122209964,
0.030423940149625937,-0.0068084336831294836,
0.030473815461346632,-0.010929355025069244,
0.03052369077306733,0.014541080756731302,
0.03057356608478803,-0.02375100884555734,
0.03062344139650873,-0.02531518696262283,
0.030673316708229426,-0.029557462599123015,
0.030723192019950125,-0.009829711750618291,
0.030773067331670824,-0.007510288195649168,
0.03082294264339152,-0.01487295331370701,
0.03087281795511222,-0.031395917392394515,
0.030922693266832918,0.011751192854930414,
0.030972568578553617,-0.017463759096811412,
0.031022443890274313,-0.009701410732882982,
0.031072319201995012,-0.023038288740731327,
0.03112219451371571,0.0088956698420825,
0.03117206982543641,0.011792313613833,
0.031221945137157106,0.009564699111785235,
0.03127182044887781,0.014091606431068746,
0.031321695760598504,0.004080329840809591,
0.0313715710723192,0.008338220922413212,
0.0314214463840399,-0.011340900320729787,
0.0314713216957606,-0.00321822057731171,
0.031521197007481294,0.01683969699555216,
0.031571072319202,-0.014460054431977634,
0.03162094763092269,-0.0036681448229467853,
0.03167082294264339,-0.0030736316116953015,
0.03172069825436409,-0.012899781420656797,
0.03177057356608479,-0.0012556302233410288,
0.03182044887780549,-0.013983885783317778,
0.031870324189526185,-0.04335459584251088,
0.03192019950124688,-0.016215627059022093,
0.03197007481296758,-0.00036666077352578866,
0.03201995012468828,0.012173227885868023,
0.032069825436408975,0.018528761861114566,
0.03211970074812968,-8.226836306749743e-05,
0.03216957605985037,-0.0048915870241025994,
0.032219451371571076,0.002228946602081587,
0.03226932668329177,-0.01607780406247739,
0.03231920199501247,0.022934333825527335,
0.03236907730673317,0.02103925036278366,
0.032418952618453865,0.00421761035925714,
0.03246882793017456,0.0010019158690817887,
0.032518703241895264,0.013593658762251132,
0.03256857855361596,0.0007783722256829739,
0.032618453865336655,0.016009531223253118,
0.03266832917705736,0.00860576386738385,
0.032718204488778053,-0.016361138836302414,
0.032768079800498756,0.007010563578294254,
0.03281795511221945,0.018903176148362233,
0.03286783042394015,0.0028273296114463497,
0.03291770573566085,0.021517430779668008,
0.032967581047381546,0.009580983781505353,
0.03301745635910224,0.007102197661799767,
0.033067331670822944,0.026864092430538257,
0.03311720698254364,0.02016754010250335,
0.03316708229426434,0.005146105595081419,
0.03321695760598504,-0.012221318131965558,
0.033266832917705734,0.0007211014968320053,
0.03331670822942644,0.020127486526247296,
0.03336658354114713,-0.0075058802135263,
0.03341645885286783,0.02167941432680235,
0.03346633416458853,0.012851113198661878,
0.033516209476309226,-0.0024873668257016698,
0.03356608478802992,0.02041729856525127,
0.033615960099750625,0.026327000095697436,
0.03366583541147132,0.0027985203930667255,
0.03371571072319202,-0.006193245751177776,
0.03376558603491272,0.02075476067870311,
0.033815461346633414,0.02593550836120926,
0.03386533665835412,0.009181435223417045,
0.03391521197007481,0.006953129979881366,
0.03396508728179551,0.004298025356638369,
0.03401496259351621,0.050012184948752654,
0.03406483790523691,0.024941870767022208,
0.0341147132169576,0.004606012557386706,
0.034164588528678305,0.015281134032838997,
0.034214463840399,0.008982049457672149,
0.034264339152119704,0.016254147960790784,
0.0343142144638404,0.007938167894148043,
0.034364089775561095,0.00809161657853361,
0.0344139650872818,0.03442374655151389,
0.03446384039900249,0.013609597368094237,
0.03451371571072319,0.03836035085380071,
0.03456359102244389,0.016201652282949085,
0.03461346633416459,-0.00809244005795926,
0.03466334164588529,0.02300650753220378,
0.034713216957605986,0.023172463834744667,
0.03476309226932668,0.011786347629691083,
0.034812967581047384,0.036433513471107126,
0.03486284289276808,0.037785609689438684,
0.034912718204488775,0.030977407488756083,
0.03496259351620948,0.03434095391121945,
0.035012468827930174,0.03264334381495468,
0.03506234413965087,0.025718660431298383,
0.03511221945137157,0.02985718404471209,
0.03516209476309227,0.008769611620233821,
0.03521197007481297,0.017800155034400654,
0.035261845386533666,1.6556502547126345e-05,
0.03531172069825436,0.021405530572102444,
0.035361596009975065,-0.00013853459055492012,
0.03541147132169576,0.008234699555247142,
0.035461346633416456,0.005229149106878512,
0.03551122194513716,0.00731326766270303,
0.035561097256857854,0.009942054736765302,
0.03561097256857856,0.0034303552275153845,
0.03566084788029925,0.018839411473792214,
0.03571072319201995,0.03359452764401529,
0.03576059850374065,0.033619305741909314,
0.03581047381546135,0.017571097443221564,
0.03586034912718204,0.012739674374224708,
0.035910224438902745,0.022210005585307644,
0.03596009975062344,0.020031317277180938,
0.036009975062344136,0.025825678979434708,
0.03605985037406484,0.02557015511593445,
0.036109725685785535,0.019376452596381044,
0.03615960099750624,0.024514544993071704,
0.03620947630922693,0.018462497726018115,
0.03625935162094763,0.03142452609558755,
0.03630922693266833,0.03704957954011933,
0.03635910224438903,0.0739447335394101,
0.03640897755610972,0.033784398684949576,
0.036458852867830426,0.0268178261836961,
0.03650872817955112,0.00431763257277485,
0.036558603491271824,-0.012023169795647354,
0.03660847880299252,0.01595510333147013,
0.036658354114713215,0.006215418955356829,
0.03670822942643392,0.004258754436151809,
0.036758104738154614,-2.1704919006621665e-05,
0.03680798004987531,0.03613629311610671,
0.03685785536159601,0.03740708716808352,
0.03690773067331671,-0.007438075944394395,
0.0369576059850374,0.0321982015692292,
0.037007481296758106,0.032654198093135696,
0.0370573566084788,0.008437355374849317,
0.037107231920199504,-0.0003465397800289788,
0.0371571072319202,0.029911160168743532,
0.037206982543640896,0.008269200958976586,
0.0372568578553616,0.018970873802205905,
0.037306733167082294,0.017386193120588166,
0.03735660847880299,0.012958110163934092,
0.03740648379052369,0.012723146511336493,
0.03745635910224439,0.011580454957368135,
0.037506234413965084,0.03092003476819121,
0.037556109725685786,0.02894182950679238,
0.03760598503740648,0.039383287105302214,
0.037655860349127185,0.02262445126425004,
0.03770573566084788,0.00847740027104831,
0.037755610972568576,0.020699941467055043,
0.03780548628428928,0.010661023634296753,
0.037855361596009975,0.049634132519274746,
0.03790523690773067,-0.0034914776093858714,
0.03795511221945137,0.014828345552833088,
0.03800498753117207,0.014791860765083792,
0.03805486284289277,0.030198602048424242,
0.03810473815461347,0.019058697657841354,
0.03815461346633416,0.011924353283310587,
0.038204488778054865,0.0169041856006721,
0.03825436408977556,0.009360965498830616,
0.03830423940149626,0.012574505398050455,
0.03835411471321696,0.04070301846421627,
0.038403990024937655,-0.003473535172380523,
0.03845386533665835,0.005608080096254381,
0.03850374064837905,0.02565100008915702,
0.03855361596009975,0.03382035636223214,
0.03860349127182045,0.025413805366986942,
0.03865336658354115,0.025114486921724737,
0.03870324189526184,0.017629745468873945,
0.038753117206982546,0.009271606441887112,
0.03880299251870324,0.03428560859610787,
0.03885286783042394,0.0370618338675524,
0.03890274314214464,0.020579409293537337,
0.038952618453865336,0.024928216353225976,
0.03900249376558604,0.042021401463223126,
0.039052369077306734,0.023040621946368384,
0.03910224438902743,0.013072703238853671,
0.03915211970074813,0.005626815319332838,
0.03920199501246883,0.03497411442389509,
0.039251870324189524,0.058084497005364825,
0.039301745635910226,0.005514004421785002,
0.03935162094763092,-0.008433178684169242,
0.03940149625935162,0.006309666610176762,
0.03945137157107232,0.00408614425322768,
0.039501246882793016,0.010489217835455885,
0.03955112219451372,0.005171236313331424,
0.039600997506234414,0.016998605401540134,
0.03965087281795511,0.02208806728507363,
0.03970074812967581,0.017034554119862086,
0.03975062344139651,0.013145982733861993,
0.039800498753117204,0.04860301733557024,
0.03985037406483791,0.032973581982183114,
0.0399002493765586,0.014024501300593888,
0.039950124688279305,0.041445735662599334,
0.04,0.022258454063934223,
0.0400498753117207,0.016029050764919447,
0.0400997506234414,0.030752167688905402,
0.040149625935162095,0.01672376729511099,
0.04019950124688279,0.025566092950946667,
0.04024937655860349,0.03130938461436373,
0.04029925187032419,-0.002959882361337575,
0.040349127182044885,0.01943131246851446,
0.04039900249376559,-0.010345708567979483,
0.04044887780548628,0.023215399991734983,
0.040498753117206986,0.022875616488709102,
0.04054862842892768,0.04281789577477632,
0.04059850374064838,0.02635412855217862,
0.04064837905236908,0.04528176463635694,
0.040698254364089775,0.019851094559594575,
0.04074812967581047,0.015032365989409841,
0.040798004987531174,0.034756285326122224,
0.04084788029925187,0.032006931150700704,
0.040897755610972565,0.013434172632493607,
0.04094763092269327,-0.03908891666179981,
0.04099750623441396,0.008759350496341124,
0.041047381546134666,0.01151281043475244,
0.04109725685785536,0.005084254126251189,
0.04114713216957606,0.012685341846142163,
0.04119700748129676,0.021780065014232575,
0.041246882793017456,0.02223486713171259,
0.04129675810473815,0.019635661618305593,
0.041346633416458854,-0.014025103023098288,
0.04139650872817955,-0.00044906503933106294,
0.04144638403990025,0.004018590084516985,
0.04149625935162095,-0.017819178280650126,
0.041546134663341644,0.008626106217070755,
0.04159600997506235,0.014329139061126058,
0.04164588528678304,0.022562090680022236,
0.04169576059850374,0.001944999271840964,
0.04174563591022444,0.0136157015769975,
0.041795511221945136,0.009431944899789768,
0.04184538653366583,0.017826580706094317,
0.041895261845386535,0.017252437510265225,
0.04194513715710723,0.015107399260278551,
0.04199501246882793,-0.0025565993669959645,
0.04204488778054863,-0.0045095714255941645,
0.042094763092269324,0.011476076755255214,
0.04214463840399003,0.0014850829585842866,
0.04219451371571072,0.004571230560877034,
0.04224438902743142,-0.00966853473994743,
0.04229426433915212,0.003470736463821524,
0.04234413965087282,0.023009326000685087,
0.04239401496259352,0.007224872875822132,
0.042443890274314215,-0.012362783709883826,
0.04249376558603491,0.006410598908026474,
0.042543640897755614,0.011242478312217252,
0.04259351620947631,0.0042966787631139106,
0.042643391521197005,-0.01892003518069843,
0.04269326683291771,0.013352065614837996,
0.0427431421446384,-0.0003433005810328073,
0.0427930174563591,-0.017914061108932157,
0.0428428927680798,-0.010767823996504586,
0.0428927680798005,-0.034925531941921134,
0.0429426433915212,-0.024108776730842142,
0.042992518703241896,0.014124888326550315,
0.04304239401496259,0.029099075036396863,
0.043092269326683294,0.0036370320750027927,
0.04314214463840399,-0.014851070821103388,
0.043192019950124685,0.010411989321922981,
0.04324189526184539,0.00027097929502030785,
0.043291770573566084,-0.00274456305330045,
0.043341645885286786,-0.006251242867015748,
0.04339152119700748,-0.007391571890199114,
0.04344139650872818,0.00455871210074613,
0.04349127182044888,-0.00015785777999939837,
0.043541147132169576,-0.0005959062871643147,
0.04359102244389027,-0.004488359939180245,
0.043640897755610975,-0.0022089389758758785,
0.04369077306733167,0.019481230098648078,
0.043740648379052366,-0.004745898980276196,
0.04379052369077307,-0.027230077165634924,
0.043840399002493764,-0.0024926507928027444,
0.04389027431421447,-0.01940587329095974,
0.04394014962593516,-0.006560173393071859,
0.04399002493765586,-0.010414697195865161,
0.04403990024937656,-0.005395122934801428,
0.04408977556109726,0.007164980119484608,
0.04413965087281795,-0.012487271110946961,
0.044189526184538655,-0.010244005337038104,
0.04423940149625935,-0.03026584809258493,
0.04428927680798005,-0.017017083277004446,
0.04433915211970075,-0.01883897118444465,
0.044389027431421445,0.008003939523544503,
0.04443890274314215,-0.03399697726027208,
0.04448877805486284,0.003188148867024128,
0.04453865336658354,-0.028527642922272282,
0.04458852867830424,-0.012460362842873631,
0.04463840399002494,0.0037984963020777484,
0.04468827930174563,-0.005710603721331677,
0.044738154613466335,0.00582001905169429,
0.04478802992518703,-0.016893278162391945,
0.044837905236907734,-0.021252051870811375,
0.04488778054862843,-0.03363646514668,
0.044937655860349125,0.0011603590293273805,
0.04498753117206983,-0.01746228856326156,
0.045037406483790524,0.0007978677588667861,
0.04508728179551122,-0.004634322667653695,
0.04513715710723192,0.003485901529827728,
0.04518703241895262,-0.015388304423453871,
0.04523690773067331,-0.01432159466972647,
0.045286783042394016,-0.0395412158928258,
0.04533665835411471,-0.03081664452271545,
0.045386533665835414,0.004785795297046808,
0.04543640897755611,-0.008762324940743128,
0.045486284289276806,-0.003192898141156683,
0.04553615960099751,-0.0016388288496104741,
0.045586034912718204,-0.006842049578280162,
0.0456359102244389,-0.03335297700299979,
0.0456857855361596,-0.0008758719494306923,
0.0457356608478803,-0.029008431378383572,
0.045785536159601,0.009581634577937457,
0.045835411471321696,-0.002215062596657028,
0.04588528678304239,-0.03209241873658314,
0.045935162094763095,-0.016031358800208288,
0.04598503740648379,-0.028447496602423718,
0.046034912718204486,-0.008489192886917142,
0.04608478802992519,0.006122516753079774,
0.046134663341645885,-0.015403118597218513,
0.04618453865336658,-0.02918360367691683,
0.04623441396508728,-0.022559092517784617,
0.04628428927680798,-0.028612793548821576,
0.04633416458852868,-0.017591180083918218,
0.04638403990024938,-0.0395360503538167,
0.04643391521197007,-0.026115511039839084,
0.046483790523690775,-0.011500304119837063,
0.04653366583541147,-0.006141883754148701,
0.04658354114713217,-0.02243783205102653,
0.04663341645885287,-0.01420639654358567,
0.046683291770573565,-0.03122511607359036,
0.04673316708229427,0.009267813312303915,
0.04678304239401496,0.009743001087851033,
0.04683291770573566,-0.01792596879600844,
0.04688279301745636,0.0076831261653609075,
0.04693266832917706,-0.019748012458608202,
0.04698254364089775,-0.006200262346427539,
0.047032418952618456,-0.02194538706932206,
0.04708229426433915,-0.01562794784846752,
0.04713216957605985,-0.015058510863455313,
0.04718204488778055,0.005014983771863452,
0.047231920199501246,-0.02879307076788676,
0.04728179551122195,-0.03247949473095696,
0.047331670822942644,-0.02538671016417495,
0.04738154613466334,-0.029833342747817845,
0.04743142144638404,-0.026078099599465054,
0.04748129675810474,-0.033235631815154904,
0.047531172069825434,-0.011754200896540612,
0.047581047381546136,-0.0003651131718631351,
0.04763092269326683,-0.029482170124000687,
0.047680798004987535,-0.01863182753001919,
0.04773067331670823,-0.023254482588295825,
0.047780548628428926,-0.0016463672293901607,
0.04783042394014963,0.0012167618961680636,
0.047880299251870324,-0.02314367276567727,
0.04793017456359102,0.0011000305817725695,
0.04798004987531172,-0.029168731747099948,
0.04802992518703242,-0.009546109540823081,
0.048079800498753114,-0.012690070971738963,
0.04812967581047382,-0.013695235528503972,
0.04817955112219451,-0.011264460971814067,
0.048229426433915215,-0.013226881481455666,
0.04827930174563591,-0.02017738451351069,
0.048329177057356607,-0.03111262025636303,
0.04837905236907731,0.0025313736841153216,
0.048428927680798005,-0.022862300081339514,
0.0484788029925187,-0.002841769659783385,
0.0485286783042394,-0.017249626295940814,
0.0485785536159601,-0.023141481676182386,
0.048628428927680795,-0.009824820252826098,
0.0486783042394015,-0.010238035749267984,
0.04872817955112219,-0.009868025099785752,
0.048778054862842896,-0.030816869525291418,
0.04882793017456359,0.004989394767814282,
0.04887780548628429,-0.005661099293087595,
0.04892768079800499,-0.021036331924147826,
0.048977556109725685,-0.034428572053394856,
0.04902743142144638,-0.025819101910605578,
0.049077306733167084,-0.026839540400790736,
0.04912718204488778,-0.04047268024947237,
0.04917705735660848,-0.02584055834487265,
0.04922693266832918,-0.021502017644250283,
0.04927680798004987,0.009547287914147289,
0.049326683291770576,5.677615554213096e-05,
0.04937655860349127,-0.029532509177743426,
0.04942643391521197,0.001355853740927341,
0.04947630922693267,0.0010547616406321163,
0.049526184538653366,-0.033646478101331256,
0.04957605985037406,-0.010321063549092558,
0.049625935162094764,-0.0005846999428622494,
0.04967581047381546,-0.017676772619831905,
0.04972568578553616,-0.04796011115154221,
0.04977556109725686,-0.013585428955615823,
0.049825436408977554,-0.013731249899590167,
0.04987531172069826,-0.011193584461166658,
0.04992518703241895,0.010396024274317671,
0.04997506234413965,-0.021674513128475972,
0.05002493765586035,-0.016167741749358394,
0.050074812967581046,0.029852324062621775,
0.05012468827930175,-0.009242723212368438,
0.050174563591022445,-0.0023963783040181945,
0.05022443890274314,-0.014558740306467815,
0.05027431421446384,-0.0005752158757826534,
0.05032418952618454,-0.002497510868731391,
0.050374064837905234,0.004587982185453232,
0.05042394014962594,-0.00654284660001881,
0.05047381546134663,-0.006483984463693996,
0.05052369077306733,-0.025910388158844055,
0.05057356608478803,0.016301375219672468,
0.05062344139650873,-0.01669502740002577,
0.05067331670822943,-0.0007875584857960378,
0.050723192019950125,0.008817039070798144,
0.05077306733167082,-0.026639493332797828,
0.050822942643391524,-0.014121711235336891,
0.05087281795511222,-0.023947523487275836,
0.050922693266832915,0.006772183119567621,
0.05097256857855362,-0.009209909210694221,
0.05102244389027431,-0.003964991485475565,
0.051072319201995016,0.004146436419668059,
0.05112219451371571,-0.01799128865209057,
0.05117206982543641,-0.009316572311366548,
0.05122194513715711,-0.017163927620110906,
0.051271820448877806,-0.01586948149901569,
0.0513216957605985,-0.01623260734496657,
0.051371571072319204,-0.0005476402509647254,
0.0514214463840399,-0.017594933728305208,
0.051471321695760595,-0.01088088095594503,
0.0515211970074813,0.021896766269614572,
0.051571072319201994,0.0026596551997864057,
0.051620947630922696,-0.011253966518613689,
0.05167082294264339,-0.0009508891149166544,
0.05172069825436409,-0.0026668886844639877,
0.05177057356608479,-0.02979142458216842,
0.051820448877805486,0.021756356166606258,
0.05187032418952618,0.026191101603585423,
0.051920199501246884,-0.01129063639523988,
0.05197007481296758,0.022331974859174597,
0.052019950124688276,0.015323523787690764,
0.05206982543640898,0.03704444923336452,
0.052119700748129674,0.0001848048856872334,
0.05216957605985038,-0.008186780428609304,
0.05221945137157107,0.023282571246075724,
0.05226932668329177,0.01577978088806525,
0.05231920199501247,-0.016618709234890117,
0.05236907730673317,-0.028574218008025065,
0.05241895261845386,-0.012239019866712317,
0.052468827930174565,0.011154594381560188,
0.05251870324189526,0.020461442198214747,
0.05256857855361596,-0.002918079594733173,
0.05261845386533666,0.01656216036217631,
0.052668329177057355,0.00012163091230237705,
0.05271820448877806,0.006035688724444819,
0.05276807980049875,-0.0038601484373384292,
0.05281795511221945,-0.00555283570526637,
0.05286783042394015,0.03746889473375253,
0.05291770573566085,0.009781355814839552,
0.05296758104738154,-0.006113791814526428,
0.053017456359102245,0.014138729156940012,
0.05306733167082294,0.015059035820765686,
0.053117206982543644,0.023378831675172903,
0.05316708229426434,0.026453120191901745,
0.053216957605985035,0.003126429416313273,
0.05326683291770574,0.0405801151987058,
0.053316708229426434,-0.004506624754807252,
0.05336658354114713,0.0068385140103644874,
0.05341645885286783,-0.009271456638759279,
0.05346633416458853,0.01070453803822552,
0.05351620947630923,0.007901660565592857,
0.053566084788029926,0.01822547485158086,
0.05361596009975062,0.00043343184539806727,
0.053665835411471324,0.002989780468007193,
0.05371571072319202,0.03642919263355755,
0.053765586034912716,-0.004935192575231147,
0.05381546134663342,0.021259950522062185,
0.053865336658354114,0.007306865533996625,
0.05391521197007481,0.005423554199917911,
0.05396508728179551,0.0030444200033174513,
0.05401496259351621,0.0038323072593991637,
0.05406483790523691,0.018343355629466877,
0.054114713216957606,0.00826369847982351,
0.0541645885286783,0.006938634498151044,
0.054214463840399005,-0.014800072721707979,
0.0542643391521197,0.0012830598272390182,
0.054314214463840396,0.029796019195408245,
0.0543640897755611,0.01775247620589075,
0.054413965087281795,0.005048594885689366,
0.0544638403990025,-0.0018694136752389692,
0.05451371571072319,0.034383683026287366,
0.05456359102244389,0.0029373993933959463,
0.05461346633416459,0.021530468241403193,
0.05466334164588529,0.01883288422968581,
0.05471321695760598,0.002547836379566095,
0.054763092269326685,0.011499686126745342,
0.05481296758104738,0.04854237066506649,
0.05486284289276808,0.028761286348013608,
0.05491271820448878,0.003236449813082279,
0.054962593516209475,0.0026422817725727,
0.05501246882793018,0.016467953480862323,
0.05506234413965087,0.03017148371511036,
0.05511221945137157,0.00578832718860285,
0.05516209476309227,0.04662726788869172,
0.05521197007481297,0.042584210829832325,
0.05526184538653366,0.014764775827305673,
0.055311720698254366,0.037989259544165044,
0.05536159600997506,0.04602440498905653,
0.05541147132169576,0.04576642889850354,
0.05546134663341646,0.044160088323660265,
0.055511221945137156,0.03145442704408354,
0.05556109725685786,0.01999414361525428,
0.055610972568578554,0.05126883064075008,
0.05566084788029925,0.0356445759420848,
0.05571072319201995,0.04807740272699977,
0.05576059850374065,0.011071656491548098,
0.055810473815461344,0.004415224088492341,
0.055860349127182046,0.025500079444992267,
0.05591022443890274,-0.012050872886200686,
0.055960099750623445,0.025487941641576507,
0.05600997506234414,0.02939227279029862,
0.056059850374064836,0.01950196429589086,
0.05610972568578554,0.006164717990066102,
0.056159600997506234,0.02106593476478153,
0.05620947630922693,0.03787833428712624,
0.05625935162094763,0.04064940103268469,
0.05630922693266833,0.025897789464277718,
0.056359102244389024,0.044758340426673024,
0.05640897755610973,0.034497780013794034,
0.05645885286783042,0.041679705873731474,
0.056508728179551125,0.02646177846434029,
0.05655860349127182,0.014186420331493721,
0.056608478802992516,0.018409676364174267,
0.05665835411471322,0.020714272566874078,
0.056708229426433915,0.03949895956534353,
0.05675810473815461,0.028382204551100094,
0.05680798004987531,0.03975676177075064,
0.05685785536159601,0.029452890587565138,
0.05690773067331671,0.04423425071060594,
0.05695760598503741,0.040843434767763434,
0.0570074812967581,0.03662431504803297,
0.057057356608478806,0.014637677757522236,
0.0571072319201995,0.01503483608843966,
0.0571571072319202,0.026131571649492955,
0.0572069825436409,0.033095847195762376,
0.057256857855361595,-0.0004992596447254104,
0.05730673316708229,0.009690387539745333,
0.057356608478802994,0.030304120655579303,
0.05740648379052369,-0.006352687605911539,
0.05745635910224439,0.018707376147328425,
0.05750623441396509,0.016202504175192412,
0.05755610972568578,0.020427146046175383,
0.057605985037406486,-0.006006983647747384,
0.05765586034912718,0.02237733320917359,
0.05770573566084788,0.02969198294614559,
0.05775561097256858,0.011702213749218003,
0.057805486284289276,0.02664874224172426,
0.05785536159600998,0.025598414609960173,
0.057905236907730674,0.010706041320357658,
0.05795511221945137,0.023520954948769754,
0.05800498753117207,0.04956685970170779,
0.05805486284289277,0.03362425357811054,
0.058104738154613464,0.03440748237283515,
0.05815461346633417,0.027444103225811978,
0.05820448877805486,0.01871937566185729,
0.05825436408977556,0.020047503614786712,
0.05830423940149626,0.010646086828972294,
0.058354114713216956,0.03813373873065697,
0.05840399002493766,0.01624690697485553,
0.058453865336658355,0.04129090604578478,
0.05850374064837905,-0.0005616213968770711,
0.05855361596009975,0.020909152714175747,
0.05860349127182045,0.02426487848135113,
0.058653366583541144,0.0031900454030297787,
0.05870324189526185,0.006694903408637022,
0.05875311720698254,0.03245592812770916,
0.05880299251870324,0.026248909913692317,
0.05885286783042394,0.03453894963238545,
0.05890274314214464,0.02161214877963255,
0.05895261845386534,0.032097478932392814,
0.059002493765586035,0.02737377830375567,
0.05905236907730673,0.03101226512371297,
0.059102244389027433,0.03870374301737902,
0.05915211970074813,0.030257818773975903,
0.059201995012468825,0.05442768302362776,
0.05925187032418953,-0.001397367613556414,
0.05930174563591022,0.048177380182877316,
0.059351620947630926,0.047799883550086505,
0.05940149625935162,0.03154745988841547,
0.05945137157107232,0.010540012313673979,
0.05950124688279302,0.012682019545935775,
0.059551122194513716,0.04437609557730414,
0.05960099750623441,0.022556369062662805,
0.059650872817955114,0.0015367668901915335,
0.05970074812967581,0.0355156271671699,
0.059750623441396505,0.047447057350866295,
0.05980049875311721,0.02583621740038837,
0.059850374064837904,0.0071513159198217935,
0.059900249376558606,0.018742339579362256,
0.0599501246882793,0.028730287760305326,
0.06,0.007665747159864497,
0.0600498753117207,0.019045185110785404,
0.060099750623441396,-0.0010183716573083576,
0.06014962593516209,0.04608216690487572,
0.060199501246882794,0.012095352665216086,
0.06024937655860349,0.010633152226559348,
0.06029925187032419,0.01404033904583158,
0.06034912718204489,0.032659610254633833,
0.060399002493765584,-0.002325092763699063,
0.06044887780548629,-0.01226589753681372,
0.06049875311720698,-0.0019650530208700206,
0.06054862842892768,-0.00965669596329723,
0.06059850374064838,0.015068620716478378,
0.06064837905236908,0.030885279045432645,
0.06069825436408977,-0.010095505058382378,
0.060748129675810475,0.0017553340520583775,
0.06079800498753117,0.022543100889478314,
0.06084788029925187,-0.008183096468614912,
0.06089775561097257,0.02004013763430547,
0.060947630922693265,0.012097655578163537,
0.06099750623441397,0.021290203457008997,
0.06104738154613466,0.004395133643344618,
0.06109725685785536,0.0011807793747793238,
0.06114713216957606,0.0019191532453990585,
0.06119700748129676,0.024819455885054173,
0.06124688279301746,-0.0003770980054134312,
0.061296758104738155,0.008142225352748327,
0.06134663341645885,0.04109528382565679,
0.061396508728179554,0.009248150146942866,
0.06144638403990025,0.009368604531708078,
0.061496259351620945,0.009590043444206412,
0.06154613466334165,0.00990368018450076,
0.061596009975062344,0.025340238745924493,
0.06164588528678304,-0.004431159378890536,
0.06169576059850374,0.0019902476981407758,
0.06174563591022444,0.01346007158299959,
0.06179551122194514,0.010351451283243364,
0.061845386533665836,0.027388418176646404,
0.06189526184538653,0.009487380110976582,
0.061945137157107234,0.0049366196599836595,
0.06199501246882793,0.010330525861027087,
0.062044887780548626,0.016966314538518507,
0.06209476309226933,0.0026597633746525723,
0.062144638403990024,-0.009832693977599467,
0.06219451371571072,-0.00548038987735114,
0.06224438902743142,-0.0037416832876800803,
0.06229426433915212,-0.016493184519864687,
0.06234413965087282,-0.015781043209152777,
0.062394014962593516,0.03012559029316006,
0.06244389027431421,-0.002780965371149891,
0.062493765586034915,0.004177263600802609,
0.06254364089775562,0.015009109072529335,
0.06259351620947631,0.010516095037894009,
0.06264339152119701,0.024992388221569545,
0.0626932668329177,-0.01353859865405456,
0.0627431421446384,-0.014404402080495557,
0.0627930174563591,-0.007718924841580422,
0.0628428927680798,0.00648102188767144,
0.0628927680798005,-0.01204217617616089,
0.0629426433915212,0.019364222695314626,
0.06299251870324189,-0.019158859498838898,
0.06304239401496259,0.020818357230355872,
0.0630922693266833,0.000880725715286695,
0.063142144638404,0.007534317290183808,
0.06319201995012469,0.00567136006475223,
0.06324189526184539,-0.021583561503919067,
0.06329177057356608,0.0029153173472114755,
0.06334164588528678,-0.0036921375629593973,
0.06339152119700749,-0.012685300953626268,
0.06344139650872818,0.004213707459617001,
0.06349127182044888,0.0032834712577642505,
0.06354114713216957,-0.01122528287572799,
0.06359102244389027,-0.0017454919225905875,
0.06364089775561098,-0.010249086150873339,
0.06369077306733167,-0.006687391722661045,
0.06374064837905237,-0.0017328327980593982,
0.06379052369077307,-0.010812679928100734,
0.06384039900249376,0.019776094782443035,
0.06389027431421446,-0.012203856138049696,
0.06394014962593517,0.009212761289132175,
0.06399002493765586,-0.0005921772782320383,
0.06403990024937656,-0.005771390306544867,
0.06408977556109725,0.0023028615224782254,
0.06413965087281795,-0.006787884796616087,
0.06418952618453866,0.016468333662292035,
0.06423940149625935,-0.011744561948867699,
0.06428927680798005,-0.012005376955937886,
0.06433915211970075,0.003159004607897582,
0.06438902743142144,0.006951720499080512,
0.06443890274314215,-0.0004701025293259902,
0.06448877805486285,-0.0024437786727017387,
0.06453865336658354,-0.039371064531505344,
0.06458852867830424,-0.0008392922520414053,
0.06463840399002493,-0.007036001902643791,
0.06468827930174563,-0.021839658112535545,
0.06473815461346634,-0.009619298987382856,
0.06478802992518704,-0.001282218468494454,
0.06483790523690773,-0.006844902223329929,
0.06488778054862843,-0.010498284026290411,
0.06493765586034912,0.010416150240694729,
0.06498753117206983,-0.03831270695597315,
0.06503740648379053,0.0066616253884814874,
0.06508728179551122,-0.01428116648326352,
0.06513715710723192,-0.005661746204442656,
0.06518703241895261,-0.023581941585791487,
0.06523690773067331,-0.03283037264384778,
0.06528678304239402,-0.03947879822224133,
0.06533665835411472,-0.022703190936974982,
0.06538653366583541,-0.016199522927015472,
0.06543640897755611,-0.026850249247997317,
0.0654862842892768,-0.024412372973838012,
0.06553615960099751,-0.005398110328795741,
0.06558603491271821,0.0037993055612150113,
0.0656359102244389,-0.022147738278272718,
0.0656857855361596,-0.01390297220631862,
0.0657356608478803,-0.029405205752835378,
0.06578553615960099,-0.024117704089191647,
0.0658354114713217,-0.018627598991397702,
0.0658852867830424,-0.01662787928163873,
0.06593516209476309,-0.03869002583322156,
0.06598503740648379,-0.024688204691767923,
0.06603491271820448,-0.039005642245966574,
0.06608478802992519,0.004112001346864324,
0.06613466334164589,-0.005036419442698559,
0.06618453865336658,0.0009250762772134245,
0.06623441396508728,-0.030321629632297203,
0.06628428927680798,-0.03386191483206093,
0.06633416458852869,-0.003596073398972572,
0.06638403990024938,0.005004024822355787,
0.06643391521197008,-0.022619533992073823,
0.06648379052369077,-0.041548356094720025,
0.06653366583541147,-0.0009030104681274458,
0.06658354114713216,-0.031057701180177026,
0.06663341645885287,-0.018215889367153876,
0.06668329177057357,-0.040788371021405465,
0.06673316708229426,0.023382104128472168,
0.06678304239401496,-0.01960334116855287,
0.06683291770573566,0.013496362696919508,
0.06688279301745637,-0.01462179700211274,
0.06693266832917706,-0.012459209193887431,
0.06698254364089776,-0.014446029740138847,
0.06703241895261845,-0.018972473696203834,
0.06708229426433915,-0.005520398594366302,
0.06713216957605984,-0.03248779587612419,
0.06718204488778055,-0.01743634761933464,
0.06723192019950125,-0.018445108199454448,
0.06728179551122195,-0.008709975323953777,
0.06733167082294264,-0.010951161424996657,
0.06738154613466334,-0.0021497922470205925,
0.06743142144638405,-0.032126329847671595,
0.06748129675810474,-0.016248575435551096,
0.06753117206982544,-0.025889913326089063,
0.06758104738154613,-0.016637219245106832,
0.06763092269326683,0.004041701490873465,
0.06768079800498752,-0.03621186217693675,
0.06773067331670823,0.01279018380562605,
0.06778054862842893,-0.025906650898106197,
0.06783042394014963,-0.0375184914823414,
0.06788029925187032,0.0009364189323170721,
0.06793017456359102,-0.029702933523337513,
0.06798004987531173,-0.01122595600681945,
0.06802992518703242,-0.01019594546056412,
0.06807980049875312,-0.02777563669793865,
0.06812967581047381,-0.046157837740466216,
0.06817955112219451,-0.0052589385865018535,
0.0682294264339152,-0.028813912278465883,
0.06827930174563591,-0.006927353551716806,
0.06832917705735661,-0.0005303118693339975,
0.0683790523690773,-0.035760218217684187,
0.068428927680798,0.009033884325481335,
0.0684788029925187,-0.013416724748990349,
0.06852867830423941,0.0003818060482731669,
0.0685785536159601,-0.02920618440153022,
0.0686284289276808,-0.002407120289575437,
0.0686783042394015,-0.01956878490281304,
0.06872817955112219,-0.014269343003652603,
0.0687780548628429,-0.032518155959497606,
0.0688279301745636,0.012255449792944764,
0.06887780548628429,0.0068975352933648305,
0.06892768079800499,-0.009689733597190815,
0.06897755610972568,-0.01904867013143008,
0.06902743142144638,0.0038148861770045533,
0.06907730673316709,0.00460992574711162,
0.06912718204488778,-0.004441934193872989,
0.06917705735660848,-0.016779111672109232,
0.06922693266832917,-0.023729998289107553,
0.06927680798004987,-0.013804048001756199,
0.06932668329177058,-0.01460594129434431,
0.06937655860349128,-0.019117287783887563,
0.06942643391521197,-0.005998753663943371,
0.06947630922693267,-0.022631980154010863,
0.06952618453865336,-0.0030864828679200724,
0.06957605985037406,-0.0014019498236138381,
0.06962593516209477,-0.0006180154710842649,
0.06967581047381546,-0.03162603245068732,
0.06972568578553616,-0.04211808453276278,
0.06977556109725686,0.0021216072294231118,
0.06982543640897755,-0.008566309423650742,
0.06987531172069826,-0.02147622850882306,
0.06992518703241896,-0.02644849006168246,
0.06997506234413965,0.02766482265213852,
0.07002493765586035,-0.007582828239088883,
0.07007481296758104,-0.018998267749072612,
0.07012468827930174,-0.01045788020562663,
0.07017456359102245,-0.00046330519366325016,
0.07022443890274314,-0.00043183374944467424,
0.07027431421446384,0.016226554465807473,
0.07032418952618454,-0.02163314575505404,
0.07037406483790523,0.006388776799568077,
0.07042394014962594,0.018790658394582695,
0.07047381546134664,0.0011612363791414,
0.07052369077306733,-0.00199632311261647,
0.07057356608478803,-7.582098996104791e-05,
0.07062344139650872,-0.0023182423892868626,
0.07067331670822943,-0.01625087880087936,
0.07072319201995013,-0.028670700295780508,
0.07077306733167082,0.026896722561949655,
0.07082294264339152,-0.02983923138141703,
0.07087281795511222,-0.017880569304295258,
0.07092269326683291,0.014116123268224557,
0.07097256857855362,0.0034712612322141904,
0.07102244389027432,-0.0012882475165736694,
0.07107231920199501,0.003315584490605301,
0.07112219451371571,-0.010339237686558934,
0.0711720698254364,0.01931398563068469,
0.07122194513715711,0.0177517164212932,
0.07127182044887781,0.009215222001975186,
0.0713216957605985,0.004128811221179996,
0.0713715710723192,-0.0007099307549008137,
0.0714214463840399,0.02024740990739334,
0.07147132169576059,0.001358361644543918,
0.0715211970074813,-0.020085762792604465,
0.071571072319202,-0.03174604377207719,
0.0716209476309227,-0.023293401259763362,
0.07167082294264339,0.01391417733972396,
0.07172069825436408,-0.019676421733939922,
0.0717705735660848,0.02404718606946031,
0.07182044887780549,0.008257505730983668,
0.07187032418952619,0.045904614079802036,
0.07192019950124688,-0.0008666547825024757,
0.07197007481296758,0.016174077221007176,
0.07201995012468827,-0.009418664854591611,
0.07206982543640898,0.016258691312114378,
0.07211970074812968,0.01805791326143385,
0.07216957605985037,0.03101611388943936,
0.07221945137157107,-0.010234668970234184,
0.07226932668329177,0.016356400803647142,
0.07231920199501247,-0.011370186135673355,
0.07236907730673317,0.015423474062998314,
0.07241895261845387,0.0004524589303288775,
0.07246882793017456,0.013872739766335247,
0.07251870324189526,0.00862588594932761,
0.07256857855361595,0.004377922230473832,
0.07261845386533666,-0.0067344388208896155,
0.07266832917705736,0.007453967601198912,
0.07271820448877805,-0.016957054871795448,
0.07276807980049875,0.0053754640603572625,
0.07281795511221945,0.012873254242731925,
0.07286783042394016,0.02152515622846634,
0.07291770573566085,-0.00917258732765409,
0.07296758104738155,0.01364008229489928,
0.07301745635910224,0.009745272474458055,
0.07306733167082294,-0.004898187990597484,
0.07311720698254365,0.009716489821111932,
0.07316708229426434,0.010118754986558646,
0.07321695760598504,0.0169949333047595,
0.07326683291770573,0.006350547869461506,
0.07331670822942643,0.022166281462103206,
0.07336658354114713,0.005986348264981794,
0.07341645885286784,-0.01784411535565826,
0.07346633416458853,0.020795152742798854,
0.07351620947630923,0.0058455897112284156,
0.07356608478802992,0.0017912352980449832,
0.07361596009975062,0.017499382909680887,
0.07366583541147133,0.023296688582534836,
0.07371571072319202,0.02723109140664519,
0.07376558603491272,0.014995190320246085,
0.07381546134663342,0.011900591480869431,
0.07386533665835411,0.02368537410157858,
0.0739152119700748,0.03223624510578468,
0.07396508728179552,0.024678824836049273,
0.07401496259351621,0.048533003812296235,
0.07406483790523691,0.030979340077315252,
0.0741147132169576,0.014648631657082023,
0.0741645885286783,0.024512503633506058,
0.07421446384039901,0.015575913026417722,
0.0742643391521197,0.03929375537717088,
0.0743142144638404,0.027796705469446653,
0.0743640897755611,0.034564930508155095,
0.07441396508728179,-0.0011441573757037804,
0.07446384039900249,0.03943957539299348,
0.0745137157107232,0.02374927324226938,
0.07456359102244389,0.04254342799596436,
0.07461346633416459,0.024975677631049138,
0.07466334164588528,-0.0036695206316378834,
0.07471321695760598,0.045920805761937675,
0.07476309226932669,0.016731303177932276,
0.07481296758104738,0.022927813639608573,
0.07486284289276808,0.014230919085892742,
0.07491271820448878,0.015839282272190582,
0.07496259351620947,0.0540381661321617,
0.07501246882793017,-0.012388014340568364,
0.07506234413965088,0.033961438611572484,
0.07511221945137157,0.048555218189166506,
0.07516209476309227,0.029808164436734202,
0.07521197007481296,0.01883509606142453,
0.07526184538653366,0.012388803047635797,
0.07531172069825437,0.052574624877441745,
0.07536159600997507,0.03438480763823875,
0.07541147132169576,0.017050179167362317,
0.07546134663341646,0.007091701512582432,
0.07551122194513715,0.017246218256894354,
0.07556109725685786,0.024675288866038,
0.07561097256857856,0.039920196516186425,
0.07566084788029925,0.02798321898173608,
0.07571072319201995,0.016551697452615168,
0.07576059850374064,0.019447732098636365,
0.07581047381546134,0.031118251111327194,
0.07586034912718205,0.015436210049794476,
0.07591022443890275,0.012894530688033786,
0.07596009975062344,0.0005536422155121845,
0.07600997506234414,0.0038356368457112024,
0.07605985037406483,0.03942626265222153,
0.07610972568578554,0.03094696690973347,
0.07615960099750624,0.020075372209287932,
0.07620947630922693,0.030078397376058802,
0.07625935162094763,0.018490107379489376,
0.07630922693266833,0.027474223363279773,
0.07635910224438902,0.036854540803056016,
0.07640897755610973,-0.007407620334371909,
0.07645885286783043,0.0170507090860587,
0.07650872817955112,0.005561664311263172,
0.07655860349127182,0.03870363195525263,
0.07660847880299251,0.027350933890493173,
0.07665835411471322,0.04619597784142151,
0.07670822942643392,0.030911740091984025,
0.07675810473815461,0.013184348605797626,
0.07680798004987531,0.019443298862360986,
0.076857855361596,0.023188548250347742,
0.0769077306733167,0.029389293656694657,
0.07695760598503741,0.020600714207923324,
0.0770074812967581,0.031662912645524094,
0.0770573566084788,0.028905894001479446,
0.0771072319201995,0.037111552160431494,
0.0771571072319202,0.0032981954461751457,
0.0772069825436409,0.022145366395075992,
0.0772568578553616,0.02338936156751272,
0.0773067331670823,0.01409909290571622,
0.07735660847880299,0.002891109538010455,
0.07740648379052369,0.02613845236726264,
0.0774563591022444,0.052518513712288856,
0.07750623441396509,0.010351157663654133,
0.07755610972568579,0.06792956844182615,
0.07760598503740648,0.025845804662635807,
0.07765586034912718,0.010564733838059824,
0.07770573566084787,0.008505173170651345,
0.07775561097256858,0.01760906537334264,
0.07780548628428928,0.043011863839971944,
0.07785536159600998,0.006402875838952795,
0.07790523690773067,0.015722525384484543,
0.07795511221945137,0.03986998069280552,
0.07800498753117208,0.038225893172739,
0.07805486284289277,0.03275874580675608,
0.07810473815461347,0.039684708156347295,
0.07815461346633416,0.03242526779409517,
0.07820448877805486,0.0011540013629182215,
0.07825436408977555,0.028296282996651115,
0.07830423940149626,0.04751531393563657,
0.07835411471321696,0.036041184929490204,
0.07840399002493766,0.036884677704734324,
0.07845386533665835,0.026605393557197134,
0.07850374064837905,0.030578360686835806,
0.07855361596009976,0.019030763902079764,
0.07860349127182045,0.025910170719547064,
0.07865336658354115,0.03656290483176879,
0.07870324189526184,0.028250125391462783,
0.07875311720698254,0.02479301391821509,
0.07880299251870324,0.040221281805527594,
0.07885286783042394,0.009531359404360942,
0.07890274314214464,0.023968086160559964,
0.07895261845386534,0.034149901573797437,
0.07900249376558603,0.06089598735357179,
0.07905236907730673,0.007428595648506408,
0.07910224438902744,0.02792165706963472,
0.07915211970074813,0.022459782644265916,
0.07920199501246883,-0.013044019771329674,
0.07925187032418952,0.03445539628000326,
0.07930174563591022,0.03138387253420373,
0.07935162094763092,0.0183019605552135,
0.07940149625935163,0.020278112304928556,
0.07945137157107232,0.02397863856808538,
0.07950124688279302,0.04378909908189403,
0.07955112219451371,0.03475265792255425,
0.07960099750623441,0.038743656308560366,
0.07965087281795512,0.02656435738881719,
0.07970074812967581,-0.003930191102234439,
0.07975062344139651,-0.024274118343308837,
0.0798004987531172,0.024726769382692856,
0.0798503740648379,-0.0048003660179130325,
0.07990024937655861,0.016906578883079254,
0.0799501246882793,0.020766169005357098,
0.08,0.025261657393703636,
0.0800498753117207,0.011037837971911997,
0.0800997506234414,0.005207536182973789,
0.08014962593516209,0.012382062978617887,
0.0801995012468828,0.031178686647214154,
0.0802493765586035,-0.007614627177706175,
0.08029925187032419,-0.0026005194865975807,
0.08034912718204489,0.013863006620150315,
0.08039900249376558,0.006902492360820366,
0.08044887780548629,0.02736564169690548,
0.08049875311720699,-0.014690758704288515,
0.08054862842892768,0.03230288758266606,
0.08059850374064838,0.005012578735491151,
0.08064837905236907,0.02981224445884419,
0.08069825436408977,0.029124385074592824,
0.08074812967581048,0.015429429764454081,
0.08079800498753117,0.001278136440832937,
0.08084788029925187,0.039953971173608056,
0.08089775561097257,0.022064093005428616,
0.08094763092269326,0.035777653992109096,
0.08099750623441397,0.00748388955792452,
0.08104738154613467,5.079584273057387e-05,
0.08109725685785536,0.0048726884620617274,
0.08114713216957606,0.0081034836228699,
0.08119700748129675,0.03508155861250768,
0.08124688279301745,0.02601995867876911,
0.08129675810473816,-0.008007518333207998,
0.08134663341645886,0.02273968810324469,
0.08139650872817955,0.022759735226107546,
0.08144638403990025,0.008233884306100447,
0.08149625935162094,0.02231023826779695,
0.08154613466334165,0.0015182105859338942,
0.08159600997506235,-0.0015317837521293398,
0.08164588528678304,-0.002502903315624576,
0.08169576059850374,-0.02418472985565864,
0.08174563591022443,0.02036608885995942,
0.08179551122194513,0.030660051632321484,
0.08184538653366584,0.007792234647352348,
0.08189526184538654,0.012908508324757862,
0.08194513715710723,0.005348440460373075,
0.08199501246882793,-0.003576714605540921,
0.08204488778054862,0.011542128407081301,
0.08209476309226933,0.019800141607271907,
0.08214463840399003,-0.002691953091555719,
0.08219451371571072,-0.001143737615830781,
0.08224438902743142,-0.0043159994542806565,
0.08229426433915212,0.0023034028770524744,
0.08234413965087282,0.027485251006759023,
0.08239401496259352,0.009295554508940434,
0.08244389027431422,0.011519155009924224,
0.08249376558603491,-0.020614294522696648,
0.08254364089775561,0.011656859127547629,
0.0825935162094763,0.008430950272414592,
0.08264339152119701,-0.03191566290155261,
0.08269326683291771,0.0014573470136609425,
0.0827431421446384,-0.0001780378346587035,
0.0827930174563591,0.010845135041392368,
0.0828428927680798,0.023088720473323544,
0.0828927680798005,0.017673533803020714,
0.0829426433915212,-0.00030920870316407476,
0.0829925187032419,-0.0006691378719974952,
0.08304239401496259,-0.01834153199831402,
0.08309226932668329,-0.006436045226928893,
0.08314214463840398,-0.01973380464518552,
0.0831920199501247,0.018980726329441467,
0.08324189526184539,0.02422047039388247,
0.08329177057356608,0.01714732092654344,
0.08334164588528678,0.00634461649076334,
0.08339152119700748,-0.0013298943837404644,
0.08344139650872819,-0.011293461067956347,
0.08349127182044888,-0.017157150332159036,
0.08354114713216958,0.0029960268800165177,
0.08359102244389027,-0.006884533840990895,
0.08364089775561097,-8.27606408760511e-05,
0.08369077306733166,0.025530447019652982,
0.08374064837905237,-0.0037361270684073207,
0.08379052369077307,-0.013053646093548737,
0.08384039900249377,0.002562563990933015,
0.08389027431421446,-0.020273512569975293,
0.08394014962593516,-0.0008234184059228416,
0.08399002493765587,0.00653200817574777,
0.08403990024937656,0.01667463263555539,
0.08408977556109726,0.017200199657625318,
0.08413965087281795,0.0004613621561775326,
0.08418952618453865,0.016911089888450668,
0.08423940149625936,-0.013403146411717153,
0.08428927680798005,0.006134914259213802,
0.08433915211970075,0.010284501254921325,
0.08438902743142145,-0.021185661655333803,
0.08443890274314214,-0.010425820078529676,
0.08448877805486284,0.007607307281141023,
0.08453865336658355,-0.005578318946240064,
0.08458852867830424,-0.008958433222666245,
0.08463840399002494,0.0028942722500030016,
0.08468827930174563,0.005277666941184781,
0.08473815461346633,-0.01657705571606509,
0.08478802992518704,-0.02958044667733157,
0.08483790523690773,-0.011370236564465395,
0.08488778054862843,-0.018318356631181344,
0.08493765586034913,-0.01032955788995298,
0.08498753117206982,0.005056742244676001,
0.08503740648379052,-0.03057705061332819,
0.08508728179551123,-0.010604697989429254,
0.08513715710723192,-0.0003122281987867955,
0.08518703241895262,-0.010960566383379559,
0.08523690773067331,-0.01567654856095312,
0.08528678304239401,-0.028699072878801045,
0.08533665835411472,-0.008500579565170138,
0.08538653366583542,0.009840568676236457,
0.08543640897755611,-0.015595071499684133,
0.0854862842892768,-0.017636313765904008,
0.0855361596009975,-0.021305575903437422,
0.0855860349127182,-0.022912923144702738,
0.08563591022443891,-0.020936580499628134,
0.0856857855361596,-0.03088699041003673,
0.0857356608478803,-0.03826727836499838,
0.085785536159601,-0.041020394938847064,
0.08583541147132169,-0.01182287507347533,
0.0858852867830424,-0.01567626884283981,
0.0859351620947631,-0.0032498001810393126,
0.08598503740648379,-0.035017631883022794,
0.08603491271820449,0.007659917625654707,
0.08608478802992518,-0.03314393892512621,
0.08613466334164588,-0.01965642306224257,
0.08618453865336659,-0.01609099633325696,
0.08623441396508728,-0.02044585277279095,
0.08628428927680798,-0.027317361106395037,
0.08633416458852868,-0.028345186657332558,
0.08638403990024937,-0.0012658739985704041,
0.08643391521197008,-0.014151794567561953,
0.08648379052369078,-0.010018089118623053,
0.08653366583541147,-0.03304201318461514,
0.08658354114713217,-0.0007736506724667948,
0.08663341645885286,-0.02543586727048952,
0.08668329177057357,-0.04819150649858532,
0.08673316708229427,-0.018163183640159015,
0.08678304239401496,-0.025093682641965872,
0.08683291770573566,0.012963501768937522,
0.08688279301745636,0.01025250885876031,
0.08693266832917705,-0.0011306352155286952,
0.08698254364089776,0.003921087082607723,
0.08703241895261846,-0.001010246533164406,
0.08708229426433915,-0.02335814595252229,
0.08713216957605985,0.005464925554999181,
0.08718204488778054,-0.005592440630464681,
0.08723192019950125,-0.021280871738217143,
0.08728179551122195,-0.04442300366104618,
0.08733167082294264,-0.004030445965070312,
0.08738154613466334,-0.016908672724964765,
0.08743142144638404,-0.030022660027529534,
0.08748129675810473,-0.0021505542641577554,
0.08753117206982544,-0.010632496712006619,
0.08758104738154614,-0.014154095155861393,
0.08763092269326683,-0.025098031824431863,
0.08768079800498753,-0.03318446716775461,
0.08773067331670822,-0.011514520485658033,
0.08778054862842893,-0.009526573778776009,
0.08783042394014963,-0.031310564774729814,
0.08788029925187033,-0.015679205572777286,
0.08793017456359102,0.017371502384352033,
0.08798004987531172,-0.03871412405360298,
0.08802992518703241,-0.030279982055433627,
0.08807980049875312,0.00027176326308453805,
0.08812967581047382,-0.01058390384888979,
0.08817955112219451,-0.014925635412569206,
0.08822942643391521,-0.009860350536001504,
0.0882793017456359,-0.01219955620089158,
0.08832917705735661,-0.005234002403756122,
0.08837905236907731,-0.009230174226742648,
0.088428927680798,0.00011579210956667342,
0.0884788029925187,-0.020001823374658077,
0.0885286783042394,0.006693385595974547,
0.0885785536159601,-0.019960091926471694,
0.0886284289276808,-0.02254034933896751,
0.0886783042394015,0.012402796229329206,
0.0887281795511222,-0.010678493647943035,
0.08877805486284289,-0.02268496868942106,
0.08882793017456359,-0.006778427964821693,
0.0888778054862843,0.02764512028925409,
0.08892768079800499,-0.009814304288615175,
0.08897755610972569,-0.0069211802398007095,
0.08902743142144638,-0.012347404650336857,
0.08907730673316708,-0.002772027800483051,
0.08912718204488779,-0.003772772637894513,
0.08917705735660848,-0.015605309995117136,
0.08922693266832918,-0.0023963039877246553,
0.08927680798004987,-0.007972474767860994,
0.08932668329177057,-0.0030477262933298003,
0.08937655860349127,0.02918451496150992,
0.08942643391521198,-0.024343590968411814,
0.08947630922693267,-0.011384909078140399,
0.08952618453865337,-0.008378724628912045,
0.08957605985037406,-0.04033101264306238,
0.08962593516209476,-0.02056166067488424,
0.08967581047381547,-0.026174040841455158,
0.08972568578553616,-0.011164097215967325,
0.08977556109725686,-0.009187338289626538,
0.08982543640897755,-0.004260367285699982,
0.08987531172069825,-0.006763176688679839,
0.08992518703241895,-0.01574104194549188,
0.08997506234413966,0.003735813298324321,
0.09002493765586035,-0.03120819317684427,
0.09007481296758105,0.0033377127795467245,
0.09012468827930174,-0.0033235621808285964,
0.09017456359102244,-0.013122698178552368,
0.09022443890274315,-0.00230920509978083,
0.09027431421446384,-0.004645306265130379,
0.09032418952618454,-0.01350824533478501,
0.09037406483790524,0.011846947075968523,
0.09042394014962593,0.03940611854794256,
0.09047381546134663,0.004163119431100824,
0.09052369077306734,-0.004455345182179697,
0.09057356608478803,-0.003858580284592064,
0.09062344139650873,0.01700151468147054,
0.09067331670822942,-0.00968452906951845,
0.09072319201995012,-0.0028042538746236166,
0.09077306733167083,-0.0016729620444609014,
0.09082294264339152,-0.007666990029485115,
0.09087281795511222,-0.00447103628851557,
0.09092269326683292,-0.007792198503834276,
0.09097256857855361,-0.013501281332962908,
0.09102244389027432,-0.015937277313390986,
0.09107231920199502,-0.020400194054789544,
0.09112219451371571,-0.010866312339277824,
0.09117206982543641,-0.013768996247783076,
0.0912219451371571,-0.006912768211041644,
0.0912718204488778,0.003893076129802823,
0.09132169576059851,0.023790646001132003,
0.0913715710723192,0.006572667722780687,
0.0914214463840399,0.007908600608674227,
0.0914713216957606,-0.005341973285311823,
0.09152119700748129,-0.00921540887255777,
0.091571072319202,-0.00540374372987013,
0.0916209476309227,0.019251289077002975,
0.09167082294264339,-0.008818354414967956,
0.09172069825436409,-0.003577625387014973,
0.09177057356608478,-0.005527723369074503,
0.09182044887780548,-0.0027142112818002596,
0.09187032418952619,0.016205066145845225,
0.09192019950124689,0.01646024768394663,
0.09197007481296758,0.0017121381635243783,
0.09201995012468828,0.018622602525586857,
0.09206982543640897,0.00044464602304408653,
0.09211970074812968,0.01584030694375938,
0.09216957605985038,-0.0030672336719932934,
0.09221945137157107,0.021381270241361622,
0.09226932668329177,-0.01930093166531441,
0.09231920199501246,-0.008845154805443,
0.09236907730673316,-0.011073032416442957,
0.09241895261845387,-0.004572528881775441,
0.09246882793017457,0.004915984992542742,
0.09251870324189526,0.0010332110772348045,
0.09256857855361596,0.013920594943296198,
0.09261845386533665,-0.01732424478248896,
0.09266832917705736,-0.007639203966952076,
0.09271820448877806,0.019890363344680292,
0.09276807980049875,0.0043467457410038424,
0.09281795511221945,-0.0007146894760756001,
0.09286783042394015,-0.005880950830470404,
0.09291770573566084,0.03824498237810153,
0.09296758104738155,0.02595390881304422,
0.09301745635910225,0.028954002752548173,
0.09306733167082294,0.023864460864210093,
0.09311720698254364,-0.00492564943092408,
0.09316708229426433,0.029487760056858388,
0.09321695760598504,-0.017172409805016563,
0.09326683291770574,0.007826999987054191,
0.09331670822942643,-0.013573276390233296,
0.09336658354114713,0.016250431218559222,
0.09341645885286783,0.01994544305976626,
0.09346633416458854,0.019379547050145912,
0.09351620947630923,0.008010633512428597,
0.09356608478802993,0.03479708508957845,
0.09361596009975062,0.04381491162377962,
0.09366583541147132,-1.6329258470377736e-05,
0.09371571072319201,0.02282859547464177,
0.09376558603491272,0.034936321399933176,
0.09381546134663342,0.013375209149659478,
0.09386533665835411,0.004488382076909207,
0.09391521197007481,0.03244228014194578,
0.0939650872817955,0.04402094046205667,
0.09401496259351622,-0.009015172290825445,
0.09406483790523691,-0.020104361831671903,
0.09411471321695761,-0.00010635080435909827,
0.0941645885286783,0.04409354196165173,
0.094214463840399,0.04666280173412021,
0.0942643391521197,0.027660822613368115,
0.0943142144638404,0.035760745508190445,
0.0943640897755611,0.011501339942927458,
0.0944139650872818,0.02292136826751253,
0.09446384039900249,0.03071945062321734,
0.09451371571072319,0.03837353585122236,
0.0945635910224439,0.022231778709750596,
0.09461346633416459,0.021204134632149225,
0.09466334164588529,0.02280831734967264,
0.09471321695760598,0.023831123563670262,
0.09476309226932668,0.027184635180681902,
0.09481296758104737,0.02149407680780431,
0.09486284289276808,0.04261849006717454,
0.09491271820448878,0.04304303868339736,
0.09496259351620948,0.013148030714131391,
0.09501246882793017,0.039104304659302105,
0.09506234413965087,0.042866281869222665,
0.09511221945137158,0.015510800710641117,
0.09516209476309227,0.03153521704335286,
0.09521197007481297,-0.03108766338014562,
0.09526184538653366,0.011845431520707241,
0.09531172069825436,0.027022978079407074,
0.09536159600997507,0.025274939355222074,
0.09541147132169576,0.041547661506845066,
0.09546134663341646,0.04232636138980501,
0.09551122194513716,0.009193811111514825,
0.09556109725685785,0.02293749760178879,
0.09561097256857855,0.04260844948094722,
0.09566084788029926,0.04104545766255349,
0.09571072319201995,0.057741369730675056,
0.09576059850374065,0.047820253910603225,
0.09581047381546134,0.05314631173521146,
0.09586034912718204,0.007544170602498793,
0.09591022443890275,0.019799550064726806,
0.09596009975062345,-0.01577674426499651,
0.09600997506234414,0.005671126818716125,
0.09605985037406484,0.018680950978720363,
0.09610972568578553,0.03552478199868321,
0.09615960099750623,0.04198243094954969,
0.09620947630922694,0.026464689106124605,
0.09625935162094763,0.057028307706547834,
0.09630922693266833,0.03885875872416387,
0.09635910224438902,0.03645752994228196,
0.09640897755610972,0.001878844262165457,
0.09645885286783043,0.0336970121203884,
0.09650872817955113,0.026360457261503815,
0.09655860349127182,0.041087390721023076,
0.09660847880299252,0.003621225450952871,
0.09665835411471321,0.029149116167497303,
0.09670822942643391,0.04004314284071798,
0.09675810473815462,0.021679388491286925,
0.09680798004987531,0.02226830237290527,
0.09685785536159601,0.0273033135925181,
0.0969077306733167,0.011233612389030222,
0.0969576059850374,0.050628390236843304,
0.09700748129675811,0.019276036220827693,
0.0970573566084788,0.032859020357739674,
0.0971072319201995,0.023754771613225322,
0.0971571072319202,0.04152534436102948,
0.0972069825436409,0.0090642326089767,
0.09725685785536159,-0.004879407143278659,
0.0973067331670823,0.04799331612822058,
0.097356608478803,0.03567579314851779,
0.09740648379052369,0.051836109027784294,
0.09745635910224439,0.016529109457837816,
0.09750623441396508,0.02168586165389906,
0.09755610972568579,0.010358765143030666,
0.09760598503740649,0.03221962350568475,
0.09765586034912718,0.03380263059186028,
0.09770573566084788,0.013433644326170658,
0.09775561097256857,0.013896223756538538,
0.09780548628428928,0.0045685391123969216,
0.09785536159600998,0.0025797325890376532,
0.09790523690773068,0.034760709269866054,
0.09795511221945137,0.03949395881318672,
0.09800498753117207,0.03962895180505327,
0.09805486284289276,0.010152193788382839,
0.09810473815461347,0.02565204365809384,
0.09815461346633417,0.026006952675532043,
0.09820448877805486,0.02467854637459941,
0.09825436408977556,0.023620061804718123,
0.09830423940149625,0.004842990428563204,
0.09835411471321696,0.025603551903735505,
0.09840399002493766,0.02552955709586624,
0.09845386533665836,0.037057425388656764,
0.09850374064837905,0.037897153511842384,
0.09855361596009975,0.03520074728262009,
0.09860349127182044,0.002767713863888379,
0.09865336658354115,0.0034097674736408706,
0.09870324189526185,0.034334191738348514,
0.09875311720698254,0.03908657946320877,
0.09880299251870324,0.026272741783303744,
0.09885286783042393,0.05330773065786884,
0.09890274314214464,0.004765415397421098,
0.09895261845386534,0.03543727363770939,
0.09900249376558604,0.020845059361113305,
0.09905236907730673,0.014747294472434528,
0.09910224438902743,-0.002729065657635567,
0.09915211970074812,0.024709749778483166,
0.09920199501246883,0.020330843045084496,
0.09925187032418953,0.028265244091631288,
0.09930174563591022,0.011288526603893774,
0.09935162094763092,0.033174954522122435,
0.09940149625935162,0.03310898469870664,
0.09945137157107233,0.018086341191794083,
0.09950124688279302,0.015534963237127768,
0.09955112219451372,0.02137118256576747,
0.09960099750623441,0.02503254466669919,
0.09965087281795511,0.03692045286594113,
0.0997007481296758,0.010107479755499684,
0.09975062344139651,0.0294129056453452,
0.09980049875311721,0.045512205048273476,
0.0998503740648379,0.010720134671002223,
0.0999002493765586,0.023342164158084298,
0.0999501246882793,0.00842306488371031,
0.1,0.014197816820015297,
0.1000498753117207,0.004445285411360366,
0.1000997506234414,0.018471148053252385,
0.10014962593516209,0.0323461846479572,
0.10019950124688279,0.02113849077812657,
0.1002493765586035,0.012068904086543986,
0.1002992518703242,0.0037919274748660844,
0.10034912718204489,0.03290482113312706,
0.10039900249376559,0.022727123355511664,
0.10044887780548628,-0.012840120167577566,
0.10049875311720698,0.03895940530118998,
0.10054862842892769,0.020528803606148623,
0.10059850374064838,0.005326609103966845,
0.10064837905236908,0.016644899923792013,
0.10069825436408977,0.008713015945232912,
0.10074812967581047,0.025650031003386094,
0.10079800498753118,0.02745778181278507,
0.10084788029925187,0.010907409174877671,
0.10089775561097257,0.02319048995690476,
0.10094763092269327,0.018887666535891533,
0.10099750623441396,0.014214243551515056,
0.10104738154613466,0.03032656891721573,
0.10109725685785537,0.032362127412515894,
0.10114713216957606,0.02695342372277843,
0.10119700748129676,0.022547573278639432,
0.10124688279301745,0.011998598147710387,
0.10129675810473815,-0.0026821898374274032,
0.10134663341645886,-0.004853185581779228,
0.10139650872817955,0.03781428765639372,
0.10144638403990025,0.021833200626867097,
0.10149625935162095,-0.0033035357041164837,
0.10154613466334164,0.014329803418350506,
0.10159600997506234,-0.021597121789276225,
0.10164588528678305,0.01947439807072603,
0.10169576059850374,0.014581245300122028,
0.10174563591022444,0.01703039947250353,
0.10179551122194513,0.022619314994774015,
0.10184538653366583,0.0095858318350447,
0.10189526184538654,0.0038964152925511824,
0.10194513715710724,0.03969376534420006,
0.10199501246882793,0.0073231536311042416,
0.10204488778054863,0.01866733400012348,
0.10209476309226932,0.005264017385639461,
0.10214463840399003,0.028894233845892334,
0.10219451371571073,-0.005699991697786852,
0.10224438902743142,0.026255672698853726,
0.10229426433915212,0.007738473201934886,
0.10234413965087281,0.009900966936409726,
0.10239401496259351,0.01437055984271919,
0.10244389027431422,-0.008714832051887944,
0.10249376558603492,0.023143538391543733,
0.10254364089775561,0.011490041099619014,
0.10259351620947631,-0.0026952699285380105,
0.102643391521197,0.01946718719702386,
0.10269326683291771,0.01933779388965431,
0.10274314214463841,0.01869590377765068,
0.1027930174563591,-0.0005963235697962832,
0.1028428927680798,0.029703127817357195,
0.1028927680798005,-0.028455849683238103,
0.10294264339152119,0.04823343552547951,
0.1029925187032419,-0.0013747582017270468,
0.1030423940149626,0.011689017201976962,
0.10309226932668329,-0.002028454636424708,
0.10314214463840399,0.007368075140874389,
0.10319201995012468,0.009956743193579785,
0.10324189526184539,-0.009451133840526753,
0.10329177057356609,0.014125412392009774,
0.10334164588528678,-0.010522663447676477,
0.10339152119700748,0.018181839827856604,
0.10344139650872818,0.006201011007546625,
0.10349127182044887,-0.0012475688772081725,
0.10354114713216958,0.024850353901185587,
0.10359102244389028,-0.002815268789829615,
0.10364089775561097,-0.0002532142848861266,
0.10369077306733167,-0.01644723331742915,
0.10374064837905236,-0.013195840581803335,
0.10379052369077307,0.0025842128693962735,
0.10384039900249377,0.026368006016519053,
0.10389027431421446,-0.0115194673112569,
0.10394014962593516,-0.0019771942831078,
0.10399002493765586,0.015028341268474677,
0.10403990024937655,0.0016642278081488758,
0.10408977556109726,-0.0072020079652524915,
0.10413965087281796,0.028337603498462514,
0.10418952618453865,0.029931614004756003,
0.10423940149625935,-0.020749999024492267,
0.10428927680798004,0.02198991231897173,
0.10433915211970075,0.022047942077487656,
0.10438902743142145,0.012572180203757898,
0.10443890274314215,-0.013669300110519573,
0.10448877805486284,0.005486623116886299,
0.10453865336658354,0.005404007615861189,
0.10458852867830425,-0.018532792459604243,
0.10463840399002494,-0.005804871166889136,
0.10468827930174564,0.007995067186238106,
0.10473815461346633,0.023302075342692356,
0.10478802992518703,0.03063499507674875,
0.10483790523690772,-0.016437009701143514,
0.10488778054862843,-0.013116699306266105,
0.10493765586034913,0.00810698733738346,
0.10498753117206983,-0.006230387263398772,
0.10503740648379052,-0.020098174198760317,
0.10508728179551122,0.01820029494192498,
0.10513715710723193,0.010071284049018038,
0.10518703241895262,-0.023587531496125594,
0.10523690773067332,-0.025668122969967913,
0.10528678304239401,-0.013425245467352633,
0.10533665835411471,-0.009117524662435006,
0.1053865336658354,-0.009798222621039798,
0.10543640897755611,-0.009520229249069187,
0.10548628428927681,-0.01169769426545683,
0.1055361596009975,0.01263971564318475,
0.1055860349127182,-0.006688355176819271,
0.1056359102244389,-0.0015439062803539478,
0.10568578553615961,-0.028393703671111173,
0.1057356608478803,0.00289362946471188,
0.105785536159601,-0.0026378005961758674,
0.1058354114713217,-0.019078688868347883,
0.10588528678304239,-0.025187974517776157,
0.10593516209476309,0.0024369264481831666,
0.1059850374064838,-0.005493998670235416,
0.10603491271820449,-0.028322991830234096,
0.10608478802992519,-0.011299499953572672,
0.10613466334164588,-0.022216038204468873,
0.10618453865336658,-0.013097468742721847,
0.10623441396508729,-0.03271197656990612,
0.10628428927680798,-0.0236384494036984,
0.10633416458852868,-0.02686321307719533,
0.10638403990024937,0.014059257101361407,
0.10643391521197007,-0.007967906667455484,
0.10648379052369077,0.00962183285238782,
0.10653366583541148,-0.004849419124939476,
0.10658354114713217,-0.0209721145328765,
0.10663341645885287,-0.003949080343240514,
0.10668329177057356,-0.01295385234092176,
0.10673316708229426,-0.02773308669420214,
0.10678304239401497,0.005349875399911979,
0.10683291770573566,-0.010777697972630467,
0.10688279301745636,0.033649683578974424,
0.10693266832917706,-0.03587839625343262,
0.10698254364089775,-9.703647807827662e-05,
0.10703241895261846,-0.048309430681641174,
0.10708229426433916,-0.015276313521166332,
0.10713216957605985,-0.022185041016683428,
0.10718204488778055,-0.009717455627693567,
0.10723192019950124,-0.004581617757618687,
0.10728179551122194,-0.056045916957214406,
0.10733167082294265,0.0028461072672490116,
0.10738154613466334,-0.01633348598433534,
0.10743142144638404,0.0013141169345176965,
0.10748129675810474,0.007059543452702573,
0.10753117206982543,0.002719244317298093,
0.10758104738154614,0.01985710930377964,
0.10763092269326684,0.00607868784756169,
0.10768079800498753,0.01696497579877032,
0.10773067331670823,-0.004790631769173071,
0.10778054862842892,-0.02611300050302147,
0.10783042394014962,-0.0024888886820764455,
0.10788029925187033,-0.027322579417731058,
0.10793017456359102,-0.011772786186361487,
0.10798004987531172,-0.010915379164299998,
0.10802992518703242,-0.03846210952469277,
0.10807980049875311,-0.005341901414993011,
0.10812967581047382,-0.006445172103320682,
0.10817955112219452,-0.012268676869868546,
0.10822942643391521,-0.0024319833292675303,
0.10827930174563591,0.01821345489733297,
0.1083291770573566,-0.012586253538377574,
0.1083790523690773,0.0002581595145099338,
0.10842892768079801,-0.019562906588757905,
0.1084788029925187,-0.006601783901135506,
0.1085286783042394,0.01857941342528182,
0.1085785536159601,-0.005149611696946946,
0.10862842892768079,-0.014113527735100327,
0.1086783042394015,0.007094853668260702,
0.1087281795511222,0.008651186950709025,
0.1087780548628429,-0.03479664044546516,
0.10882793017456359,-0.013560814688896854,
0.10887780548628428,0.001112159528235266,
0.108927680798005,0.015454365678866766,
0.10897755610972569,-0.02270744874437334,
0.10902743142144639,-0.020670590486243628,
0.10907730673316708,-0.013733440881821832,
0.10912718204488778,-0.015962712721834908,
0.10917705735660847,0.014695929088645816,
0.10922693266832918,-0.014214816524711776,
0.10927680798004988,0.0014685810531666482,
0.10932668329177057,-0.00032948466282088813,
0.10937655860349127,-0.008516006979421549,
0.10942643391521197,-0.02602170110610814,
0.10947630922693267,-0.022468932855756883,
0.10952618453865337,-0.011218117757670459,
0.10957605985037407,-0.012235706074100903,
0.10962593516209476,-0.0003483120628945506,
0.10967581047381546,-0.005088866443526032,
0.10972568578553615,-0.01269722639621728,
0.10977556109725686,0.0043631306340263,
0.10982543640897756,-0.007710792002886244,
0.10987531172069825,-0.007277425887406268,
0.10992518703241895,-0.017031566637498913,
0.10997506234413965,-0.02207893979566302,
0.11002493765586036,-0.007330739120350564,
0.11007481296758105,0.0021754017235795474,
0.11012468827930175,0.01341750800998143,
0.11017456359102244,-0.024971942482554098,
0.11022443890274314,0.02213837590257064,
0.11027431421446383,9.618134181590098e-05,
0.11032418952618454,0.006755788543886754,
0.11037406483790524,-0.018050741547896418,
0.11042394014962593,0.003697665184803769,
0.11047381546134663,-0.004208594961621644,
0.11052369077306733,0.01298980681368533,
0.11057356608478804,-0.024135984817937925,
0.11062344139650873,-0.01215418504022156,
0.11067331670822943,0.013359251660118579,
0.11072319201995012,0.023326347787257437,
0.11077306733167082,-0.004298919961498465,
0.11082294264339151,-0.0024469418134358406,
0.11087281795511222,-0.004714617039803459,
0.11092269326683292,-0.018442854860140974,
0.11097256857855362,-0.019560407668123503,
0.11102244389027431,0.023610168495688064,
0.111072319201995,0.00437806224829506,
0.11112219451371572,0.008175806695536393,
0.11117206982543641,-0.014137838289154386,
0.11122194513715711,0.007918172553918853,
0.1112718204488778,0.005255945342657304,
0.1113216957605985,0.010635545966976462,
0.11137157107231921,0.003739307222553456,
0.1114214463840399,-0.00912701441291109,
0.1114713216957606,0.02008270608539694,
0.1115211970074813,-0.005216341816679742,
0.11157107231920199,-0.01394439028735197,
0.11162094763092269,-0.0010649863110239024,
0.1116708229426434,-6.242549809375338e-05,
0.11172069825436409,0.002361628673291341,
0.11177057356608479,-0.02105274342121655,
0.11182044887780548,0.006809524432020075,
0.11187032418952618,-0.009900059648357114,
0.11192019950124689,0.00866669315941421,
0.11197007481296758,0.007893161430849751,
0.11201995012468828,-0.004140217280918149,
0.11206982543640898,-0.0012624892605318638,
0.11211970074812967,0.005172605253460729,
0.11216957605985037,0.0021992097066987704,
0.11221945137157108,0.006325530617231818,
0.11226932668329177,-0.017121422657109284,
0.11231920199501247,0.0015403682596094176,
0.11236907730673316,0.0013879554439526574,
0.11241895261845386,0.00513772573720944,
0.11246882793017457,-0.012884646625962342,
0.11251870324189527,0.020569290754831375,
0.11256857855361596,0.0011775774226177784,
0.11261845386533666,0.010059112731823347,
0.11266832917705735,-0.018349398362109453,
0.11271820448877805,0.017912954051510162,
0.11276807980049876,0.008417217730069253,
0.11281795511221945,-0.0038250743086015587,
0.11286783042394015,-0.01288857554914824,
0.11291770573566084,0.0014853470894974786,
0.11296758104738154,-0.0035547970162662004,
0.11301745635910225,0.03265498579214033,
0.11306733167082295,0.0330297437304773,
0.11311720698254364,0.03213591093947346,
0.11316708229426434,0.004630187066495947,
0.11321695760598503,0.025461297762074418,
0.11326683291770574,0.03291239929782868,
0.11331670822942644,0.009993098352541162,
0.11336658354114713,0.013874307427424964,
0.11341645885286783,0.019539089751254575,
0.11346633416458853,0.02527416499279243,
0.11351620947630922,0.02032840090298986,
0.11356608478802993,0.05461059590021488,
0.11361596009975063,0.015654910612906026,
0.11366583541147132,0.015199701468872107,
0.11371571072319202,0.05387780106946488,
0.11376558603491271,0.014286887880199233,
0.11381546134663342,0.029225322540452327,
0.11386533665835412,8.723953390238348e-05,
0.11391521197007481,0.007851763779335398,
0.11396508728179551,0.03942478331352008,
0.1140149625935162,0.032197295992158356,
0.1140648379052369,0.021133568173970725,
0.11411471321695761,0.027215432249376753,
0.1141645885286783,0.035503739826890805,
0.114214463840399,0.026451358405974262,
0.1142643391521197,0.027096739484515367,
0.1143142144638404,0.002392958203860037,
0.1143640897755611,0.01742303288789367,
0.1144139650872818,0.020369367390077598,
0.1144638403990025,0.004213662953404175,
0.11451371571072319,0.02236007066300419,
0.11456359102244389,0.030880189348002067,
0.11461346633416458,0.033870358058949585,
0.11466334164588529,0.003131723693455865,
0.11471321695760599,0.008124947907657975,
0.11476309226932668,0.025010544286813048,
0.11481296758104738,0.032261964405512,
0.11486284289276807,0.007035321284225363,
0.11491271820448878,0.03980485819482374,
0.11496259351620948,-0.00380377514774893,
0.11501246882793018,0.03587175507446988,
0.11506234413965087,0.02963814437348914,
0.11511221945137157,0.01087408029693881,
0.11516209476309226,0.006787260022942793,
0.11521197007481297,0.013890811122230166,
0.11526184538653367,0.03433669063992177,
0.11531172069825436,0.024871766303244957,
0.11536159600997506,0.022520139025188953,
0.11541147132169575,0.022402791379736896,
0.11546134663341646,0.03187542625522396,
0.11551122194513716,0.024212839299603845,
0.11556109725685786,0.033194813755857325,
0.11561097256857855,0.032252546451725435,
0.11566084788029925,0.047505044236589564,
0.11571072319201996,0.049979466431392665,
0.11576059850374065,0.01689986591029389,
0.11581047381546135,0.04580986090325727,
0.11586034912718204,0.048906698523410175,
0.11591022443890274,0.04471326147496117,
0.11596009975062344,0.02642121449026976,
0.11600997506234415,0.025357554879565408,
0.11605985037406484,0.005099044387562698,
0.11610972568578554,0.017026094265061388,
0.11615960099750623,0.04661061917379329,
0.11620947630922693,0.019886913530168394,
0.11625935162094764,0.007978553704480584,
0.11630922693266833,0.0346105390086557,
0.11635910224438903,0.031265938025786075,
0.11640897755610972,0.05223870984429826,
0.11645885286783042,0.01779715759727811,
0.11650872817955112,0.049438219901432545,
0.11655860349127183,0.031169275003743637,
0.11660847880299252,0.03722396701247641,
0.11665835411471322,0.01982685673459353,
0.11670822942643391,0.026428908141124294,
0.11675810473815461,0.024863726431408915,
0.11680798004987532,0.04191359279915581,
0.11685785536159601,0.01912633369421908,
0.11690773067331671,0.05682936676473188,
0.1169576059850374,0.0381167787106431,
0.1170074812967581,0.040602602293158235,
0.1170573566084788,0.04934374947338151,
0.1171072319201995,0.02463021373536095,
0.1171571072319202,0.010084248341519341,
0.1172069825436409,0.028771273054653223,
0.1172568578553616,0.044290263258447655,
0.11730673316708229,0.03855396146240317,
0.117356608478803,0.029819778462336827,
0.1174064837905237,0.05189926724776869,
0.11745635910224439,0.041784597352421154,
0.11750623441396509,0.01456667298353441,
0.11755610972568578,-0.02051274473222364,
0.11760598503740648,0.03738391337779983,
0.11765586034912719,0.003688431611737066,
0.11770573566084788,0.021212049076355207,
0.11775561097256858,0.02360653324099429,
0.11780548628428927,0.042056041585294954,
0.11785536159600997,0.0383725548127462,
0.11790523690773068,0.02032425919392157,
0.11795511221945137,0.026450250007651326,
0.11800498753117207,0.02810137661322685,
0.11805486284289277,0.06210171925285033,
0.11810473815461346,0.06690344808760004,
0.11815461346633417,0.025013818840564077,
0.11820448877805487,0.04313519753991343,
0.11825436408977556,-0.0031746787145805894,
0.11830423940149626,0.027369343238340553,
0.11835411471321695,0.047955707212803664,
0.11840399002493765,0.0385010985697014,
0.11845386533665836,-0.0019032851618794137,
0.11850374064837906,0.012305236604344348,
0.11855361596009975,0.05077968131302302,
0.11860349127182045,0.024993038013622036,
0.11865336658354114,0.014113910464648488,
0.11870324189526185,0.018209894780176872,
0.11875311720698255,0.027558971168042543,
0.11880299251870324,0.04574113839183317,
0.11885286783042394,0.0350301430337288,
0.11890274314214463,0.027966588804479574,
0.11895261845386533,0.006442329150368381,
0.11900249376558604,0.043684623126347716,
0.11905236907730674,0.030413348596086215,
0.11910224438902743,0.018971376649114705,
0.11915211970074813,0.009581958985455542,
0.11920199501246882,0.01885796430325009,
0.11925187032418953,-0.010634525413283337,
0.11930174563591023,0.02638502904368126,
0.11935162094763092,0.020513502497119473,
0.11940149625935162,0.03788502690802903,
0.11945137157107232,0.01973144447600707,
0.11950124688279301,0.03682918837889532,
0.11955112219451372,0.00813606242266713,
0.11960099750623442,0.03151992675427795,
0.11965087281795511,-0.001405511865117691,
0.11970074812967581,0.03756342148185317,
0.1197506234413965,-0.0019133001905651432,
0.11980049875311721,0.028442353297749474,
0.11985037406483791,0.04689503457128154,
0.1199002493765586,0.0439483419772689,
0.1199501246882793,0.02311161259857947,
0.12,0.0448119393653271,
0.1200498753117207,0.005390669278511541,
0.1200997506234414,0.03217715679400242,
0.1201496259351621,0.03472246273254333,
0.12019950124688279,0.032289620100430724,
0.12024937655860349,0.014090716827618463,
0.12029925187032418,0.011796078649605595,
0.1203491271820449,0.025668338268073573,
0.12039900249376559,0.035393564510117465,
0.12044887780548628,0.016201249418397595,
0.12049875311720698,0.03228382548634422,
0.12054862842892768,0.023609932801885915,
0.12059850374064839,0.012846311795829256,
0.12064837905236908,0.020653450953935545,
0.12069825436408978,0.022213301595524156,
0.12074812967581047,0.003581202327499958,
0.12079800498753117,0.025179398036656996,
0.12084788029925186,0.02966746813912404,
0.12089775561097257,0.012243104543843862,
0.12094763092269327,0.022014973424953965,
0.12099750623441397,0.018249026685443318,
0.12104738154613466,0.03957791388178181,
0.12109725685785536,0.019974629663894874,
0.12114713216957607,0.024593209611905073,
0.12119700748129676,0.03421977700486574,
0.12124688279301746,0.014863988993136278,
0.12129675810473815,0.017500705033094296,
0.12134663341645885,0.04285308327046965,
0.12139650872817954,0.014226870729691195,
0.12144638403990025,0.011445231145160453,
0.12149625935162095,0.0018398697041348434,
0.12154613466334165,0.04389264574220171,
0.12159600997506234,0.005121006751379106,
0.12164588528678304,0.008876925919901517,
0.12169576059850375,-0.013487567259313795,
0.12174563591022444,0.041083432814423435,
0.12179551122194514,-0.00398535856237487,
0.12184538653366583,0.015280609679251777,
0.12189526184538653,0.013851281988085176,
0.12194513715710723,-0.0011410932804391573,
0.12199501246882793,0.016661247446366337,
0.12204488778054863,0.007616148300821313,
0.12209476309226933,0.02562876068157692,
0.12214463840399002,-0.005069325766695427,
0.12219451371571072,0.026837369893147632,
0.12224438902743143,0.05216119982420868,
0.12229426433915212,0.015510389624696279,
0.12234413965087282,0.017117743429899517,
0.12239401496259351,0.006363379763570036,
0.12244389027431421,-0.0002966418451230985,
0.12249376558603492,-0.0012068593466975017,
0.12254364089775562,-0.01523979957162813,
0.12259351620947631,-0.012086105192526116,
0.122643391521197,-0.012637208501482448,
0.1226932668329177,0.027577840306697646,
0.1227431421446384,-0.002800309327514558,
0.12279301745635911,-0.016938854163284195,
0.1228428927680798,-0.007924709787370171,
0.1228927680798005,-0.0024613855688798,
0.1229426433915212,0.0062882318819712435,
0.12299251870324189,0.016345208422542168,
0.1230423940149626,-0.0032988277717707713,
0.1230922693266833,0.00668842825989859,
0.12314214463840399,0.007128747482336302,
0.12319201995012469,-0.002403419010161124,
0.12324189526184538,0.030912007792944157,
0.12329177057356608,0.010729858565143515,
0.12334164588528679,0.01087890653311949,
0.12339152119700748,-0.011555916756182557,
0.12344139650872818,-0.006373841505249204,
0.12349127182044888,0.007173254697513559,
0.12354114713216957,0.00898478067380673,
0.12359102244389028,-0.02026713624266259,
0.12364089775561098,-0.015304240860913577,
0.12369077306733167,0.002302458899730805,
0.12374064837905237,-0.0019371421033472004,
0.12379052369077306,-0.006630860758034955,
0.12384039900249376,-0.016379242397072294,
0.12389027431421447,0.00843362181544042,
0.12394014962593516,-0.030896699301609057,
0.12399002493765586,-0.0014794875067141089,
0.12403990024937656,-0.01690140165251839,
0.12408977556109725,0.0169177130652335,
0.12413965087281796,-0.0052094472937329415,
0.12418952618453866,0.0042510144693466995,
0.12423940149625935,-0.003034681916561286,
0.12428927680798005,0.012608240197168816,
0.12433915211970074,-0.03017290697339373,
0.12438902743142144,0.027060812326407897,
0.12443890274314215,-0.003195290334634302,
0.12448877805486284,0.01583049863594968,
0.12453865336658354,0.007659209191824893,
0.12458852867830424,0.004697795216971088,
0.12463840399002493,-0.021124291685856306,
0.12468827930174564,0.0008421601239427855,
0.12473815461346634,-0.017522079845909123,
0.12478802992518703,0.0055850131926669655,
0.12483790523690773,-0.0036951353498551423,
0.12488778054862842,-0.007147262764677964,
0.12493765586034913,-0.0200460693220439,
0.12498753117206983,-0.03715389880957235,
0.12503740648379053,-0.011445035047406966,
0.12508728179551123,-0.03099092729908646,
0.12513715710723192,0.012072589011345121,
0.12518703241895263,-0.011389343770431458,
0.1252369077306733,-0.010408924876271094,
0.12528678304239402,-0.021258415014379688,
0.1253366583541147,0.016431960948307067,
0.1253865336658354,-0.00026151925903717364,
0.12543640897755612,-0.019796291195450372,
0.1254862842892768,-0.0014502205882169234,
0.1255361596009975,-0.02061956320068317,
0.1255860349127182,0.017844391691936287,
0.1256359102244389,-0.012148511111139333,
0.1256857855361596,0.0052190278186823365,
0.1257356608478803,-0.01160808410184371,
0.125785536159601,-0.007123978375778412,
0.12583541147132168,0.005972195221609151,
0.1258852867830424,-0.002412268519221346,
0.1259351620947631,-0.029987659031427777,
0.12598503740648379,-0.02344748297479375,
0.1260349127182045,0.029018652666962318,
0.12608478802992518,-0.020003851265560358,
0.1261346633416459,-0.01279482379484027,
0.1261845386533666,-0.010011684537556098,
0.12623441396508728,-0.020225498833574454,
0.126284289276808,-0.0024537098543343603,
0.12633416458852867,-0.01068662940822164,
0.12638403990024938,0.0008433600876883683,
0.1264339152119701,-0.0403453387630408,
0.12648379052369077,-0.024159244762863203,
0.12653366583541148,-0.019371514621825035,
0.12658354114713216,0.0015174639160897476,
0.12663341645885287,-0.020598401319063233,
0.12668329177057355,0.0016957855908136914,
0.12673316708229426,-0.013363503349493381,
0.12678304239401497,0.0024618058891282737,
0.12683291770573565,-0.015528869310150399,
0.12688279301745636,-0.015966574546900543,
0.12693266832917705,-0.033387917571936446,
0.12698254364089775,-0.013308486624957287,
0.12703241895261846,-0.016347179939454573,
0.12708229426433915,0.0159783134461801,
0.12713216957605986,0.00627056949441324,
0.12718204488778054,0.013394026402202039,
0.12723192019950125,-0.003987485563543916,
0.12728179551122196,-0.01104085208333382,
0.12733167082294264,-0.01611664878400216,
0.12738154613466335,-0.03342496313798158,
0.12743142144638403,-0.0291232244913731,
0.12748129675810474,-0.003060454309265977,
0.12753117206982545,-0.0015937154460546402,
0.12758104738154613,0.0024839445161683946,
0.12763092269326684,-0.028993265641801078,
0.12768079800498752,0.008597260595118799,
0.12773067331670823,-0.02152472540965657,
0.1277805486284289,0.003979585498240203,
0.12783042394014962,-0.007981083338986304,
0.12788029925187033,-0.005194510466475177,
0.12793017456359101,-0.03900879971122622,
0.12798004987531172,-0.018269244540256965,
0.1280299251870324,-0.0074871667226965415,
0.12807980049875312,-0.014963649952068373,
0.12812967581047383,0.0036619830889203057,
0.1281795511221945,0.0023491104903970925,
0.12822942643391522,-0.028913867361889188,
0.1282793017456359,-0.007938428623657373,
0.1283291770573566,-0.010419086002915143,
0.12837905236907732,0.016805487850650554,
0.128428927680798,0.01534384608509466,
0.1284788029925187,0.008460342009872033,
0.1285286783042394,0.002144794091906819,
0.1285785536159601,-0.01736871076283816,
0.1286284289276808,0.005559218732103648,
0.1286783042394015,0.0003299924167313069,
0.1287281795511222,-0.0014829673748611976,
0.12877805486284288,-0.02029025038545908,
0.1288279301745636,-0.004411281746551547,
0.1288778054862843,-0.017737800307575696,
0.12892768079800498,-0.0059438980193178585,
0.1289775561097257,-0.010323548285935362,
0.12902743142144638,-0.01994791901281591,
0.12907730673316709,-0.013555381096187319,
0.12912718204488777,-0.02516175713401361,
0.12917705735660848,-0.010932144330972402,
0.1292269326683292,0.0029098403295820946,
0.12927680798004987,-0.0014481380047327973,
0.12932668329177058,0.021228044376154196,
0.12937655860349126,-0.005220624252122351,
0.12942643391521197,-0.024636879430950248,
0.12947630922693268,-0.018259658663523692,
0.12952618453865336,-0.009458101033468145,
0.12957605985037407,-0.0010446604311755443,
0.12962593516209475,-0.0016295228059781735,
0.12967581047381546,0.009314113971187152,
0.12972568578553617,-0.010034969335723159,
0.12977556109725685,-0.003967937216094842,
0.12982543640897756,-0.025973870476847412,
0.12987531172069824,-0.027606866488748723,
0.12992518703241895,-0.01848638336167813,
0.12997506234413966,0.01979827476828828,
0.13002493765586035,0.003111689452772612,
0.13007481296758105,-0.0065993616691061956,
0.13012468827930174,-0.011982211928316675,
0.13017456359102245,-0.020610531682387502,
0.13022443890274316,-0.02224026936176794,
0.13027431421446384,0.013519355029072302,
0.13032418952618455,-0.006203270964099373,
0.13037406483790523,0.007504113633728771,
0.13042394014962594,-0.018591423000315497,
0.13047381546134662,0.008752565720121338,
0.13052369077306733,-0.004135252659847577,
0.13057356608478804,0.012118960836416141,
0.13062344139650872,0.041523530660137656,
0.13067331670822943,-0.017250483339831143,
0.1307231920199501,-0.016439493958835615,
0.13077306733167082,0.010671264572123161,
0.13082294264339153,-0.027711140808370192,
0.13087281795511221,0.006254538953624972,
0.13092269326683292,-0.012553575665298852,
0.1309725685785536,-0.005140595167323813,
0.13102244389027431,0.015857022463209622,
0.13107231920199502,0.005620550578310977,
0.1311221945137157,0.0035252804991280605,
0.13117206982543642,-0.02101995115414258,
0.1312219451371571,-0.022880015651509013,
0.1312718204488778,0.01632738184486514,
0.13132169576059852,-0.020334130901816294,
0.1313715710723192,0.011594034935748985,
0.1314214463840399,0.014406363841727322,
0.1314713216957606,0.0032958528879536127,
0.1315211970074813,-0.009252380192204746,
0.13157107231920198,-0.006797241283020523,
0.1316209476309227,0.004321349612403706,
0.1316708229426434,0.010579078668004786,
0.13172069825436408,-0.013221962155928921,
0.1317705735660848,0.013782576118817585,
0.13182044887780547,0.032047591102976655,
0.13187032418952618,0.037489887719958266,
0.1319201995012469,-0.0008816621263419023,
0.13197007481296757,-0.011861834183609065,
0.13201995012468828,0.03957344341449913,
0.13206982543640897,0.04142374633848136,
0.13211970074812968,0.016027422722391924,
0.13216957605985039,0.031313274886044726,
0.13221945137157107,0.029368459301436202,
0.13226932668329178,0.028199801724862576,
0.13231920199501246,0.013380971015842975,
0.13236907730673317,0.022325548441182244,
0.13241895261845388,-0.00956514522837616,
0.13246882793017456,-0.019295765768557023,
0.13251870324189527,0.0030778989553544526,
0.13256857855361595,0.03258347312217367,
0.13261845386533666,0.012929137052581635,
0.13266832917705737,0.023805081676343785,
0.13271820448877805,0.002612484680062522,
0.13276807980049876,0.019067056743518537,
0.13281795511221944,0.01945820699368553,
0.13286783042394015,0.013440117414663368,
0.13291770573566083,0.01599476830084548,
0.13296758104738154,0.03294138161503735,
0.13301745635910225,0.023113156313779214,
0.13306733167082294,0.0030240947424623466,
0.13311720698254365,0.03829241726566927,
0.13316708229426433,0.0064432032379538404,
0.13321695760598504,0.01602104533869944,
0.13326683291770575,0.026557383051490364,
0.13331670822942643,0.011376358184897899,
0.13336658354114714,0.020644006792959742,
0.13341645885286782,0.010970261332520829,
0.13346633416458853,0.032094776988301266,
0.13351620947630924,0.04068926825693824,
0.13356608478802992,0.033446580257434355,
0.13361596009975063,0.014659036320336657,
0.1336658354114713,-0.01845212945694328,
0.13371571072319202,0.0328297754504313,
0.13376558603491273,0.0229833234987011,
0.1338154613466334,0.013863589431474973,
0.13386533665835412,0.009264444877800695,
0.1339152119700748,0.028131846141943022,
0.13396508728179551,0.017433140920092776,
0.1340149625935162,0.05254812778690379,
0.1340648379052369,0.022679206641860145,
0.13411471321695762,0.022437088761158578,
0.1341645885286783,0.00812493494387488,
0.134214463840399,0.012823699552587097,
0.1342643391521197,0.0070103270529084764,
0.1343142144638404,0.024526808064677053,
0.1343640897755611,0.00785555429704138,
0.1344139650872818,0.05146959284471894,
0.1344638403990025,0.017712540378072076,
0.13451371571072318,0.03031835881001095,
0.1345635910224439,0.016898682785613947,
0.1346134663341646,0.019176665504784456,
0.13466334164588528,0.025613704944385356,
0.134713216957606,0.005828653768981756,
0.13476309226932667,0.007161828916161309,
0.13481296758104738,0.05863614109646999,
0.1348628428927681,0.023238009905629957,
0.13491271820448877,0.002143392968510637,
0.13496259351620948,0.002210888290812396,
0.13501246882793017,-0.015217476134091454,
0.13506234413965088,0.026036872536188378,
0.13511221945137158,0.01815056957718739,
0.13516209476309227,0.03839245882606168,
0.13521197007481298,0.04294162461887552,
0.13526184538653366,0.013996281345896035,
0.13531172069825437,0.011491756493336744,
0.13536159600997505,0.05987645761386372,
0.13541147132169576,0.034111199879918216,
0.13546134663341647,0.022065848535607308,
0.13551122194513715,0.028207450073266256,
0.13556109725685786,0.01592021512197047,
0.13561097256857854,0.04839022534986557,
0.13566084788029925,0.028425916882553918,
0.13571072319201996,0.03395316161180449,
0.13576059850374064,0.0008140123553406937,
0.13581047381546135,0.046591979255397854,
0.13586034912718203,0.04057911251901258,
0.13591022443890274,0.0017778656984369645,
0.13596009975062345,0.016462851111015725,
0.13600997506234414,0.026722643822178652,
0.13605985037406484,0.025042494059615242,
0.13610972568578553,-0.0031327050259114878,
0.13615960099750624,0.045482517145052234,
0.13620947630922695,0.018609355226181477,
0.13625935162094763,0.01901656187707851,
0.13630922693266834,-0.022512929788622182,
0.13635910224438902,0.016187694103278128,
0.13640897755610973,0.05110500348621437,
0.1364588528678304,0.01916152637607786,
0.13650872817955112,0.04077677297906304,
0.13655860349127183,0.04435219943711,
0.1366084788029925,0.038450201674608706,
0.13665835411471322,0.02532203889791948,
0.1367082294264339,0.051934116552761186,
0.1367581047381546,0.056082280944799306,
0.13680798004987532,0.013524859486430438,
0.136857855361596,0.042178136382426054,
0.1369077306733167,0.043941744396698554,
0.1369576059850374,0.010361408080348175,
0.1370074812967581,0.035683655013840195,
0.13705735660847881,0.01713768550316975,
0.1371072319201995,0.0009644494439439641,
0.1371571072319202,0.037127122004143705,
0.1372069825436409,0.006309678130386985,
0.1372568578553616,0.016571567254140454,
0.1373067331670823,0.01803808747964618,
0.137356608478803,0.026957759726476013,
0.1374064837905237,0.0493308358859713,
0.13745635910224438,0.018092206509953787,
0.1375062344139651,0.03595233031919423,
0.1375561097256858,0.007804165401116506,
0.13760598503740648,0.023069181417853597,
0.1376558603491272,0.05246431440292804,
0.13770573566084787,0.037147248579242766,
0.13775561097256858,0.02721077731323969,
0.13780548628428926,0.022395207640038054,
0.13785536159600997,0.025490259510570296,
0.13790523690773068,0.02984263756043398,
0.13795511221945136,0.022196970702245633,
0.13800498753117207,0.04233927060744125,
0.13805486284289276,0.02010347882533492,
0.13810473815461347,0.014372514927088475,
0.13815461346633418,0.04862863751282224,
0.13820448877805486,0.025378334068992862,
0.13825436408977557,0.021914526738151967,
0.13830423940149625,0.05108515801896442,
0.13835411471321696,0.022363427403623626,
0.13840399002493767,0.0069358594159885725,
0.13845386533665835,0.024332034636727562,
0.13850374064837906,0.024770401182622696,
0.13855361596009974,0.038627290160384006,
0.13860349127182045,0.03275964942029893,
0.13865336658354116,0.03780138764978074,
0.13870324189526184,0.019493192437838845,
0.13875311720698255,0.01458016426411289,
0.13880299251870323,0.044309965833150874,
0.13885286783042394,0.04246352139298231,
0.13890274314214462,0.01017637911328697,
0.13895261845386533,0.042284977347683,
0.13900249376558604,0.024368843602182128,
0.13905236907730673,0.013354920321565123,
0.13910224438902744,0.026498146928293075,
0.13915211970074812,0.03733559735736253,
0.13920199501246883,0.02321247486618084,
0.13925187032418954,0.022626755548777938,
0.13930174563591022,0.02786915575205613,
0.13935162094763093,0.013999194965917058,
0.1394014962593516,0.012453801421949637,
0.13945137157107232,0.021594794655607805,
0.13950124688279303,0.021896463221972418,
0.1395511221945137,0.03407782337018985,
0.13960099750623442,0.03961387854135221,
0.1396508728179551,0.023095220326672505,
0.1397007481296758,0.025005606264803634,
0.13975062344139652,0.01810475805908456,
0.1398004987531172,0.01696347523038424,
0.1398503740648379,0.04244854923759185,
0.1399002493765586,0.02972866306836183,
0.1399501246882793,0.03048080016298393,
0.14,0.027447413172525584,
0.1400498753117207,0.011337666553845889,
0.1400997506234414,0.01988080473127707,
0.1401496259351621,0.028729235823447108,
0.1401995012468828,0.005046378289149073,
0.14024937655860348,0.0004891932552949368,
0.1402992518703242,0.01937232233326289,
0.1403491271820449,0.03437774989776793,
0.14039900249376558,0.00485015117546406,
0.1404488778054863,0.04968705646774914,
0.14049875311720697,0.0059196139779852455,
0.14054862842892768,0.02416460562918158,
0.1405985037406484,-0.012822569372278249,
0.14064837905236907,0.022978218835464657,
0.14069825436408978,-0.006753984562000284,
0.14074812967581046,0.009082513249792375,
0.14079800498753117,0.02171036065780768,
0.14084788029925188,0.030906184393836196,
0.14089775561097256,0.01239077817210639,
0.14094763092269327,0.00694881532234317,
0.14099750623441396,0.038881786809186025,
0.14104738154613466,0.013896452028129835,
0.14109725685785537,0.01379755362685788,
0.14114713216957606,0.007888986354450922,
0.14119700748129677,-0.012126111181246919,
0.14124688279301745,0.033116044948368194,
0.14129675810473816,-0.006961706982374895,
0.14134663341645887,0.013845498974120306,
