time,amplitude,label
0.0,0.002079857063756258,
4.987531172069826e-05,0.015524417113301402,
9.975062344139652e-05,0.020234253009444807,
0.00014962593516209475,-0.015662058252483492,
0.00019950124688279303,0.029342572200024807,
0.00024937655860349125,0.012316107913464477,
0.0002992518703241895,0.01619538191974275,
0.00034912718204488776,0.037611042488877866,
0.00039900249376558606,0.0006173611713926243,
0.0004488778054862843,0.002257411206211443,
0.0004987531172069825,-0.01924666379993919,
0.0005486284289276808,0.01368248154807071,
0.000598503740648379,0.03090860868488369,
0.0006483790523690773,-0.01739758191018323,
0.0006982543640897755,-0.001528411052139791,
0.0007481296758104738,0.016192634441896593,
0.0007980049875311721,0.006554013619554309,
0.0008478802992518703,0.006450994798153925,
0.0008977556109725686,0.015287958969390496,
0.0009476309226932668,0.04028053432917823,
0.000997506234413965,0.013104540587655648,
0.0010473815461346633,0.015830367386676335,
0.0010972568578553616,0.019196543094390672,
0.00114713216957606,-0.017509228241325447,
0.001197007481296758,0.01631626509332068,
0.0012468827930174563,-0.011945089175274027,
0.0012967581047381546,0.011326756895087822,
0.001346633416458853,0.02705452311435448,
0.001396508728179551,0.004114703624725827,
0.0014463840399002493,0.026202919389710984,
0.0014962593516209476,-0.016091369676212088,
0.001546134663341646,0.013683210702287573,
0.0015960099750623442,0.013638606301676029,
0.0016458852867830423,-0.031482857207132314,
0.0016957605985037406,0.016369965811039076,
0.001745635910224439,-0.036411480231969294,
0.0017955112219451373,0.010629900063994913,
0.0018453865336658353,0.01446035595226378,
0.0018952618453865336,0.0010610983352010734,
0.001945137157107232,0.009669398367248642,
0.00199501246882793,0.04083002660353109,
0.0020448877805486283,-0.0016645041294678711,
0.0020947630922693266,-0.011301825777729306,
0.002144638403990025,0.03657498714732519,
0.0021945137157107233,0.008526103336924003,
0.0022443890274314216,0.022650344746817895,
0.00229426433915212,-0.019665046785335615,
0.0023441396508728177,-0.032552403230315954,
0.002394014962593516,-0.008982902426742954,
0.0024438902743142144,0.001043500451342039,
0.0024937655860349127,-0.004460085329680395,
0.002543640897755611,-0.00479496480648337,
0.0025935162094763093,-0.025343507409669938,
0.0026433915211970076,0.005724888761694788,
0.002693266832917706,-0.001840869077501472,
0.002743142144638404,-0.03125548820349281,
0.002793017456359102,-0.0032011421513270365,
0.0028428927680798004,-0.0008758709542342651,
0.0028927680798004987,0.016701407249476795,
0.002942643391521197,-0.007571136768506355,
0.0029925187032418953,0.014757995657086301,
0.0030423940149625936,0.012765519076358154,
0.003092269326683292,-0.012806285240932741,
0.00314214463840399,0.009335876980394075,
0.0031920199501246885,0.01604561294981095,
0.0032418952618453864,0.014984439846437343,
0.0032917705735660847,0.003522179652939866,
0.003341645885286783,-0.003696415417515108,
0.0033915211970074813,-0.02291993880060948,
0.0034413965087281796,0.01505854045853707,
0.003491271820448878,-0.02501184957008791,
0.003541147132169576,-0.005868531879122257,
0.0035910224438902745,0.012579543329571558,
0.0036408977556109724,-0.019015804534320335,
0.0036907730673316707,-0.004458912691581537,
0.003740648379052369,-0.02832898062634071,
0.0037905236907730673,-0.010416003701518468,
0.0038403990024937656,-0.020259136435982518,
0.003890274314214464,-0.017382832092878043,
0.003940149625935162,0.002697215737669392,
0.00399002493765586,0.0037427594671930074,
0.004039900249376558,-0.015066168188310494,
0.004089775561097257,-0.002621157284665075,
0.004139650872817955,-0.013913905730381015,
0.004189526184538653,-0.012617106022584267,
0.004239401496259352,-0.02491737065243046,
0.00428927680798005,-0.015683167933580624,
0.004339152119700748,-0.03770459331452861,
0.0043890274314214465,0.02317716215529033,
0.004438902743142145,0.00933807533242848,
0.004488778054862843,0.027780157604810757,
0.004538653366583541,0.007746847363276169,
0.00458852867830424,-0.004866462516199751,
0.004638403990024938,-0.04255157116347987,
0.0046882793017456355,0.005585839533813374,
0.004738154613466334,0.009993317142615527,
0.004788029925187032,-0.027552494511162498,
0.00483790523690773,-0.002342831628821755,
0.004887780548628429,-0.0086855807249013,
0.004937655860349127,-0.012276206861371814,
0.004987531172069825,-0.003220451201039436,
0.005037406483790524,-0.004708283364788417,
0.005087281795511222,-0.026879267490081696,
0.00513715710723192,0.0023507152235139953,
0.0051870324189526185,-0.03431693154022815,
0.005236907730673317,-0.005360523119992426,
0.005286783042394015,-0.008478253589936018,
0.0053366583541147134,-0.024407718011849835,
0.005386533665835412,0.00536435866898699,
0.00543640897755611,-0.041968499935103924,
0.005486284289276808,-0.00975755284712988,
0.005536159600997507,-0.011083810310877497,
0.005586034912718204,0.009497798945882966,
0.005635910224438902,-0.004567276141540113,
0.005685785536159601,-0.04800890187973215,
0.005735660847880299,-0.02183626374481578,
0.005785536159600997,0.009177841293136757,
0.005835411471321696,-0.01769573994850936,
0.005885286783042394,-0.03221330187771248,
0.005935162094763092,-0.016512934073739105,
0.0059850374064837905,0.009234396760847873,
0.006034912718204489,-0.028829840346509098,
0.006084788029925187,-0.03199760355640857,
0.0061346633416458855,-0.019860377637486534,
0.006184538653366584,-0.026345282234971755,
0.006234413965087282,-0.005705623769141507,
0.00628428927680798,-0.02220128659622351,
0.006334164588528679,-0.011790689218550678,
0.006384039900249377,0.007229883943319245,
0.006433915211970074,-0.03157406303072176,
0.006483790523690773,-0.0019329820343504337,
0.006533665835411471,-0.004040391222928132,
0.006583541147132169,-0.0363643446482909,
0.006633416458852868,0.002783802568719067,
0.006683291770573566,-0.036435328531774766,
0.006733167082294264,-0.03993773353123217,
0.0067830423940149626,-0.03081481153675225,
0.006832917705735661,-0.030376941924238676,
0.006882793017456359,-0.023604795941296313,
0.0069326683291770575,-0.03513177753294542,
0.006982543640897756,-0.010065264545048719,
0.007032418952618454,-0.02063174146585976,
0.007082294264339152,-0.01600398444931603,
0.007132169576059851,-0.008664218211277013,
0.007182044887780549,0.00394399700946195,
0.007231920199501247,-0.025485751654845616,
0.007281795511221945,-0.028258588944346838,
0.007331670822942643,-0.0070956018622689646,
0.007381546134663341,-0.00032729669751895354,
0.00743142144638404,-0.01800155369818144,
0.007481296758104738,-0.018182526092367955,
0.007531172069825436,-0.02242277213343618,
0.007581047381546135,-0.028558241556606807,
0.007630922693266833,-0.02525010873507519,
0.007680798004987531,-0.020571117470693276,
0.0077306733167082295,-0.009450733852795839,
0.007780548628428928,-0.006822297784189571,
0.007830423940149626,-0.03314095201141005,
0.007880299251870324,-0.018451143488758738,
0.007930174563591023,-0.030163988849356574,
0.00798004987531172,-0.02324873560080007,
0.00802992518703242,-0.01743656431760627,
0.008079800498753117,-0.004976243666559204,
0.008129675810473816,-0.021448596749302027,
0.008179551122194513,-0.01265694434973915,
0.008229426433915213,-0.03531850540187234,
0.00827930174563591,-0.03627948278436517,
0.00832917705735661,-0.023098570220207157,
0.008379052369077307,0.030881606598301775,
0.008428927680798006,-0.030914152488572724,
0.008478802992518703,-0.01676387983451227,
0.0085286783042394,-0.012880599703966569,
0.0085785536159601,-0.018453348824617986,
0.008628428927680797,-0.02783465043474411,
0.008678304239401496,-0.01045623462343431,
0.008728179551122194,-0.03237725526935477,
0.008778054862842893,-0.012928100137271767,
0.00882793017456359,-0.027282095138392568,
0.00887780548628429,-0.0035056179233209066,
0.008927680798004987,-0.04517447404792507,
0.008977556109725686,-0.019895971102270777,
0.009027431421446384,-0.03491588194709409,
0.009077306733167083,-0.005626960417843253,
0.00912718204488778,-0.005309240960056565,
0.00917705735660848,-0.0571865316218218,
0.009226932668329177,-0.03630471934845629,
0.009276807980049876,-0.0035581490304288435,
0.009326683291770574,-0.019404887679511817,
0.009376558603491271,-0.008104889931993757,
0.00942643391521197,-0.01737613614278387,
0.009476309226932668,-0.014564056718533808,
0.009526184538653367,-0.0019829710977516592,
0.009576059850374064,-0.034533308546336836,
0.009625935162094763,-0.023131535902452965,
0.00967581047381546,-0.03186766253164353,
0.00972568578553616,-0.012085966657535857,
0.009775561097256857,-0.035596957192527534,
0.009825436408977557,-0.0019635406080382306,
0.009875311720698254,-0.023651660419139846,
0.009925187032418953,-0.007771121764859644,
0.00997506234413965,-0.02636686450518807,
0.01002493765586035,-0.002943447955819776,
0.010074812967581047,0.002948694738462104,
0.010124688279301746,-0.0032374077378350893,
0.010174563591022444,-0.027692963710145242,
0.010224438902743141,0.007647867441561006,
0.01027431421446384,-0.003665741378045378,
0.010324189526184538,-0.023349117598299392,
0.010374064837905237,-0.009415700115054243,
0.010423940149625935,0.009674318853959876,
0.010473815461346634,-0.026585050526330964,
0.010523690773067331,-0.026780865245310377,
0.01057356608478803,-0.014618301138918039,
0.010623441396508728,-0.0334600206914782,
0.010673316708229427,-0.010576193192216747,
0.010723192019950124,-0.0010096145356366503,
0.010773067331670824,-0.009157531915926232,
0.010822942643391521,-0.022350941038098628,
0.01087281795511222,0.0024028480745931276,
0.010922693266832918,-0.013522157470491916,
0.010972568578553617,-0.02255293636131952,
0.011022443890274314,-0.006562667994972611,
0.011072319201995013,0.007891854807184944,
0.01112219451371571,-0.018602605209863437,
0.011172069825436408,0.014363621214055908,
0.011221945137157107,-0.008203381736629644,
0.011271820448877805,-0.007184195652290603,
0.011321695760598504,-0.007095477978204684,
0.011371571072319201,-0.016842349077358713,
0.0114214463840399,-0.027263756468089498,
0.011471321695760598,0.021365807847120995,
0.011521197007481297,-0.025386069647922834,
0.011571072319201995,0.011243445383492846,
0.011620947630922694,0.018831102993126927,
0.011670822942643391,-0.017521734695525586,
0.01172069825436409,0.002758022285831072,
0.011770573566084788,0.004129114109005319,
0.011820448877805487,0.0044594340804121665,
0.011870324189526184,-0.015095542682850573,
0.011920199501246884,-0.011141682520345496,
0.011970074812967581,0.0070363309340210215,
0.012019950124688279,-0.02931702934164293,
0.012069825436408978,-0.03443746962374499,
0.012119700748129675,-0.002550564075224139,
0.012169576059850374,-0.005741513136115067,
0.012219451371571072,-0.0011343953354534986,
0.012269326683291771,-0.01401972062240494,
0.012319201995012468,0.008899967952967384,
0.012369077306733168,0.010165142051421484,
0.012418952618453865,0.0002057237994641031,
0.012468827930174564,-0.02177301672932907,
0.012518703241895262,0.013999884951759996,
0.01256857855361596,-0.02765953417226558,
0.012618453865336658,-0.019922489797800275,
0.012668329177057357,0.010713163054572358,
0.012718204488778055,-0.01724900720427291,
0.012768079800498754,-0.011090983064717789,
0.012817955112219451,0.002274021254312135,
0.012867830423940149,0.014407437596321156,
0.012917705735660848,0.009619312173252658,
0.012967581047381545,0.021044192197185514,
0.013017456359102245,-0.005208506156572799,
0.013067331670822942,-0.01113843326617853,
0.013117206982543641,-0.01705644300789393,
0.013167082294264339,0.004168567298971955,
0.013216957605985038,0.006921883931425533,
0.013266832917705735,0.03984870821321774,
0.013316708229426434,0.012633961637364872,
0.013366583541147132,-0.021950229562046078,
0.013416458852867831,0.02131615831942325,
0.013466334164588529,-0.008294517386534755,
0.013516209476309228,-0.01499721072143757,
0.013566084788029925,0.02052565675613438,
0.013615960099750624,0.017927976542588882,
0.013665835411471322,0.021970511788422582,
0.01371571072319202,-0.003432007582066141,
0.013765586034912718,0.039588643363702436,
0.013815461346633416,0.020286238443938925,
0.013865336658354115,-0.007405181767107063,
0.013915211970074812,0.04042276132855794,
0.013965087281795512,0.016118225556574772,
0.014014962593516209,0.007498700813072514,
0.014064837905236908,-0.0003303908840349822,
0.014114713216957606,-0.039871096322921816,
0.014164588528678305,0.020113826527153603,
0.014214463840399002,-0.00036805871900798433,
0.014264339152119701,0.005693934757993371,
0.014314214463840399,0.008042368070985923,
0.014364089775561098,-0.003142782641023679,
0.014413965087281795,0.017849265057545548,
0.014463840399002495,-0.0022512510094942657,
0.014513715710723192,-0.013389361783169063,
0.01456359102244389,0.011904005689959706,
0.014613466334164589,0.0024929958609897357,
0.014663341645885286,-0.017906541352737875,
0.014713216957605985,-0.006683549844612941,
0.014763092269326683,0.014522683474103992,
0.014812967581047382,0.014375629481038089,
0.01486284289276808,0.03341006728669976,
0.014912718204488778,0.03041843127400439,
0.014962593516209476,0.019648185360499025,
0.015012468827930175,0.0027308490454542103,
0.015062344139650873,0.00537233726600298,
0.015112219451371572,0.020378095529592494,
0.01516209476309227,0.028954978929550065,
0.015211970074812968,0.022460075550079624,
0.015261845386533666,0.007498968305042182,
0.015311720698254365,0.017890868976997237,
0.015361596009975062,0.011144649550984813,
0.01541147132169576,-0.016472112964792677,
0.015461346633416459,0.012264219277225999,
0.015511221945137156,0.009514060993911612,
0.015561097256857856,0.02782307477086004,
0.015610972568578553,-0.00044958330559431714,
0.015660847880299252,0.0014910470827103357,
0.01571072319201995,0.03238142402510904,
0.015760598503740647,0.002915857843973123,
0.015810473815461346,0.006587346336361891,
0.015860349127182045,0.024573086850400362,
0.015910224438902745,0.028012648953037525,
0.01596009975062344,0.0384475720530548,
0.01600997506234414,0.012369121574232957,
0.01605985037406484,0.013398136666152138,
0.016109725685785538,0.015589847645495598,
0.016159600997506234,0.009165760006325914,
0.016209476309226933,0.024885943401767183,
0.016259351620947632,0.013601629971209783,
0.016309226932668328,0.0003684988202155848,
0.016359102244389027,-0.007650317872104774,
0.016408977556109726,0.01711177984532793,
0.016458852867830425,0.028455715389132524,
0.01650872817955112,0.008993986754776064,
0.01655860349127182,-0.00016658388564340723,
0.01660847880299252,0.042574132197303556,
0.01665835411471322,0.014369559770545515,
0.016708229426433914,0.03330338085335692,
0.016758104738154613,0.03571624016013865,
0.016807980049875312,0.042695975665938385,
0.01685785536159601,0.019295526879828995,
0.016907730673316707,-0.0011879878717779811,
0.016957605985037406,-0.008325050817816083,
0.017007481296758106,0.016473350954159416,
0.0170573566084788,0.04599146284884746,
0.0171072319201995,0.02173663942559289,
0.0171571072319202,0.04107144246136514,
0.0172069825436409,0.006213385012006089,
0.017256857855361595,0.04264770921221244,
0.017306733167082294,0.03104477892596342,
0.017356608478802993,0.022942575437805333,
0.017406483790523692,0.03512708724629597,
0.017456359102244388,0.012564065327044089,
0.017506234413965087,0.0280865984016948,
0.017556109725685786,0.008506760444852308,
0.017605985037406485,0.012065333629012761,
0.01765586034912718,0.007494232540252367,
0.01770573566084788,0.007880525399570359,
0.01775561097256858,-0.004745434804997419,
0.01780548628428928,0.055453735060658954,
0.017855361596009974,0.003308194775902048,
0.017905236907730673,0.03685030326354865,
0.017955112219451373,-0.0039686830697440376,
0.018004987531172068,0.012687468493409173,
0.018054862842892767,0.015974692635632174,
0.018104738154613467,0.04266474944539121,
0.018154613466334166,0.026282763608277148,
0.01820448877805486,0.005212892906339115,
0.01825436408977556,0.017603740875390114,
0.01830423940149626,0.039036460978152596,
0.01835411471321696,0.036958818681659455,
0.018403990024937655,0.011137583042694433,
0.018453865336658354,-0.0009337472569129965,
0.018503740648379053,0.011435029345848969,
0.018553615960099752,0.031198887725783237,
0.018603491271820448,-0.0053737968857675775,
0.018653366583541147,0.01828968957126644,
0.018703241895261846,0.0025327184485446144,
0.018753117206982542,0.013454047886020906,
0.01880299251870324,0.028336258194145928,
0.01885286783042394,0.019612969977440057,
0.01890274314214464,0.030924226068014666,
0.018952618453865335,0.038772929591735714,
0.019002493765586034,0.07626139605533841,
0.019052369077306733,0.03381542478130524,
0.019102244389027433,0.02912368732341515,
0.01915211970074813,0.010153855304821097,
0.019201995012468828,0.03328305987142796,
0.019251870324189527,0.04321046610608722,
0.019301745635910226,0.009491541407990295,
0.01935162094763092,0.011088089378881831,
0.01940149625935162,0.009636042030019372,
0.01945137157107232,-0.0006243428042347274,
0.01950124688279302,0.018838849300301778,
0.019551122194513715,-0.0012893734879127691,
0.019600997506234414,0.017288740972560827,
0.019650872817955113,0.02342124433237902,
0.01970074812967581,0.022704503399630267,
0.019750623441396508,0.010863290299047495,
0.019800498753117207,-0.005104130349465771,
0.019850374064837906,0.036240504880515834,
0.019900249376558602,-0.008732303533578473,
0.0199501246882793,0.01936568441633029,
0.02,0.03970411791824529,
0.0200498753117207,0.018607538071490688,
0.020099750623441395,0.03621848505428363,
0.020149625935162094,0.024490713156531854,
0.020199501246882794,-0.004256906517323973,
0.020249376558603493,0.036113591499034634,
0.02029925187032419,0.00739400657747229,
0.020349127182044888,0.009593616519212254,
0.020399002493765587,0.02606706877170439,
0.020448877805486283,0.0013739255268049224,
0.02049875311720698,0.02946953670471436,
0.02054862842892768,0.021470646687404744,
0.02059850374064838,0.03973603027919402,
0.020648379052369076,0.03189773266219112,
0.020698254364089775,0.01137900603105672,
0.020748129675810474,0.007970260080233122,
0.020798004987531173,0.0029991578139922422,
0.02084788029925187,0.009980396432686866,
0.020897755610972568,-4.240051926642473e-05,
0.020947630922693267,0.008598778776969213,
0.020997506234413967,-0.00599514894097487,
0.021047381546134662,-0.0018848151114944037,
0.02109725685785536,0.03298479428138197,
0.02114713216957606,-0.007893880011674483,
0.02119700748129676,-0.009481416595295816,
0.021246882793017455,0.00079614941700068,
0.021296758104738155,0.03189505696938799,
0.021346633416458854,-0.002973154822212805,
0.02139650872817955,0.0062457361970825334,
0.02144638403990025,0.014805007437091035,
0.021496259351620948,0.018199014777347818,
0.021546134663341647,0.008383034668336552,
0.021596009975062343,0.015567105469915878,
0.021645885286783042,0.023905451884834776,
0.02169576059850374,-0.010157569686168506,
0.02174563591022444,-0.0013456535751896447,
0.021795511221945136,-0.004014032470846722,
0.021845386533665835,0.002756088757947201,
0.021895261845386534,0.026626148706821166,
0.021945137157107233,0.02231827109222442,
0.02199501246882793,0.006143593542578952,
0.02204488778054863,0.019199123314613,
0.022094763092269327,0.03858538823119382,
0.022144638403990027,-0.012159653039638561,
0.022194513715710722,-0.003732116889671023,
0.02224438902743142,0.0018705097987290996,
0.02229426433915212,0.011279190612830819,
0.022344139650872816,0.01306772946583344,
0.022394014962593516,-0.010900532920297256,
0.022443890274314215,0.007406432656197049,
0.022493765586034914,0.017104634957729785,
0.02254364089775561,-0.014194969700772957,
0.02259351620947631,0.006053724775870987,
0.022643391521197008,-0.005713870260600185,
0.022693266832917707,-0.018466155093069116,
0.022743142144638403,0.01759854478053242,
0.022793017456359102,0.009554988803964234,
0.0228428927680798,-0.011215647828424808,
0.0228927680798005,0.015693701988768287,
0.022942643391521196,0.033437486407292924,
0.022992518703241895,0.002917528745411753,
0.023042394014962594,-0.019715278407134655,
0.02309226932668329,-0.0038067837080381405,
0.02314214463840399,-0.028699501533921715,
0.02319201995012469,-0.001708102728446934,
0.023241895261845388,-0.0059784281222403125,
0.023291770573566083,0.01120439289788821,
0.023341645885286783,-0.009798484751570035,
0.02339152119700748,0.012293454332717139,
0.02344139650872818,-0.013449281142946514,
0.023491271820448877,-0.0035345566522153957,
0.023541147132169576,-0.023147605648389698,
0.023591022443890275,-0.018379263003133306,
0.023640897755610974,0.009096760712084474,
0.02369077306733167,0.013095458708371943,
0.02374064837905237,-0.013070460248676821,
0.023790523690773068,0.004228916008853146,
0.023840399002493767,0.007840019271195335,
0.023890274314214463,-0.020169474635184707,
0.023940149625935162,0.002323732414652638,
0.02399002493765586,-0.00455669684477292,
0.024039900249376557,0.00022946021356621844,
0.024089775561097256,-0.0071399610110658126,
0.024139650872817955,-0.037571387150704315,
0.024189526184538655,-0.0033876449807470235,
0.02423940149625935,-0.008668815774821776,
0.02428927680798005,-0.01145366054925824,
0.02433915211970075,-0.0313731211139103,
0.024389027431421448,0.007995187023452489,
0.024438902743142144,-0.006686455597665323,
0.024488778054862843,-0.03791137073026321,
0.024538653366583542,0.01256685153733065,
0.02458852867830424,-0.001715451419190486,
0.024638403990024937,0.005444451805578138,
0.024688279301745636,-0.013093287739038994,
0.024738154613466335,-0.009101682182861875,
0.02478802992518703,0.006805866389294184,
0.02483790523690773,-0.0028919284538190563,
0.02488778054862843,-0.011745854380756933,
0.02493765586034913,-0.01949353896146537,
0.024987531172069824,-0.04859068912470503,
0.025037406483790523,0.003294060155292695,
0.025087281795511222,0.003505408089280515,
0.02513715710723192,0.0003005139515315728,
0.025187032418952617,0.005994710479790836,
0.025236907730673316,-0.02526112668330007,
0.025286783042394016,-0.016778180449105954,
0.025336658354114715,-0.018952890281665823,
0.02538653366583541,-0.04139754162251002,
0.02543640897755611,-0.021219576892828843,
0.02548628428927681,-0.009923496508988099,
0.025536159600997508,0.003029629965576701,
0.025586034912718204,-0.005108590637355864,
0.025635910224438903,-0.02253514983290833,
0.025685785536159602,0.0010523898786102132,
0.025735660847880298,-0.008894986583714976,
0.025785536159600997,-0.0381673559779993,
0.025835411471321696,-0.010735628920712777,
0.025885286783042395,-0.0018361016051207102,
0.02593516209476309,-0.00578497869325467,
0.02598503740648379,-0.031583341921519695,
0.02603491271820449,-0.028257747780788448,
0.02608478802992519,0.016782220784646164,
0.026134663341645884,-0.027997074732056038,
0.026184538653366583,-0.013706450568704811,
0.026234413965087282,-0.05256323233032809,
0.02628428927680798,0.004814678159975279,
0.026334164588528677,-0.0031395960200936244,
0.026384039900249377,0.01077546235992237,
0.026433915211970076,-0.031077284152092186,
0.02648379052369077,0.002880874304360865,
0.02653366583541147,-0.031156456822581245,
0.02658354114713217,0.007576461812449427,
0.02663341645885287,-0.05195104827280845,
0.026683291770573565,-0.00026372671794740177,
0.026733167082294264,-0.015461796753323976,
0.026783042394014963,-0.005906053072860674,
0.026832917705735662,-0.007777644723290183,
0.026882793017456358,-0.009468447933501791,
0.026932668329177057,0.020058468919923095,
0.026982543640897756,0.011095295949200543,
0.027032418952618455,-0.007830855969061898,
0.02708229426433915,-0.013409198648634305,
0.02713216957605985,0.005672194865334955,
0.02718204488778055,0.006687757020114166,
0.02723192019950125,-0.014965882820435747,
0.027281795511221944,-0.015760902553560472,
0.027331670822942643,-0.031112945007915078,
0.027381546134663343,-0.012063404136603261,
0.02743142144638404,-0.013496737940822765,
0.027481296758104738,-0.002095797826391143,
0.027531172069825437,0.010278993263234951,
0.027581047381546136,0.0016137660817733615,
0.02763092269326683,-0.0011204247380198137,
0.02768079800498753,-0.020365558033785446,
0.02773067331670823,-0.023077896016044184,
0.02778054862842893,-0.005772827169761989,
0.027830423940149625,-0.008281755081508503,
0.027880299251870324,-0.006500347090861664,
0.027930174563591023,-0.03175728732173455,
0.027980049875311722,-0.0318381944334496,
0.028029925187032418,-0.024789158145078885,
0.028079800498753117,-0.00635662378384093,
0.028129675810473816,-0.017108202786689654,
0.028179551122194512,0.005888578968120364,
0.02822942643391521,-0.032361881321876125,
0.02827930174563591,-0.03212579661111502,
0.02832917705735661,-0.020447736711234295,
0.028379052369077305,-0.0254417501951655,
0.028428927680798004,-0.029421367317480414,
0.028478802992518704,-0.01603690765339539,
0.028528678304239403,-0.015460747723333097,
0.0285785536159601,-0.03610725844320352,
0.028628428927680798,-0.02605466689160281,
0.028678304239401497,-0.006331014138291867,
0.028728179551122196,-0.021104275866932032,
0.02877805486284289,-0.02930110809896068,
0.02882793017456359,-0.022306819841054964,
0.02887780548628429,-0.03520124367117945,
0.02892768079800499,0.009960170898100501,
0.028977556109725685,-0.003378288954331128,
0.029027431421446384,0.020262264961313992,
0.029077306733167083,-0.014993232615823525,
0.02912718204488778,-0.021624432880949836,
0.029177057356608478,-0.029184822922661613,
0.029226932668329177,-0.009278995017764274,
0.029276807980049877,-0.022740729599453297,
0.029326683291770572,-0.03028825017414954,
0.02937655860349127,0.004110057991548569,
0.02942643391521197,-0.015022589087657376,
0.02947630922693267,-0.011530328711969136,
0.029526184538653365,-0.012003700569041237,
0.029576059850374065,-0.008957464517733573,
0.029625935162094764,-0.04121542512494539,
0.029675810473815463,-0.03209441617002118,
0.02972568578553616,0.012979131915004303,
0.029775561097256858,-0.015182553157730068,
0.029825436408977557,-0.008114580979506805,
0.029875311720698253,-0.0021660104027387637,
0.029925187032418952,-0.01956136501549547,
0.02997506234413965,-0.029787744998214002,
0.03002493765586035,-0.034047468670665916,
0.030074812967581046,-0.028478296060071115,
0.030124688279301745,-0.02348189601689024,
0.030174563591022444,-0.024375432857559005,
0.030224438902743143,-0.03206513119076193,
0.03027431421446384,0.0012823716807606658,
0.03032418952618454,0.009792385511112667,
0.030374064837905237,-0.02611264644276867,
0.030423940149625937,-0.03754508805994221,
0.030473815461346632,-0.010749669413179841,
0.03052369077306733,0.011301916267794287,
0.03057356608478803,-0.031132990823149527,
0.03062344139650873,-0.03048318633301348,
0.030673316708229426,-0.04621834676067617,
0.030723192019950125,-0.0065836438612008105,
0.030773067331670824,-0.025213586801300692,
0.03082294264339152,0.0032400760383772473,
0.03087281795511222,0.001165309072388817,
0.030922693266832918,0.0129683602733266,
0.030972568578553617,0.0072521309066319005,
0.031022443890274313,-0.03269782015828479,
0.031072319201995012,-0.012854746647282008,
0.03112219451371571,0.008685916369044314,
0.03117206982543641,-0.02865971807620609,
0.031221945137157106,-0.01353314293140575,
0.03127182044887781,-0.006545021642588428,
0.031321695760598504,-0.008059316259306979,
0.0313715710723192,-0.0025962454845624133,
0.0314214463840399,-0.016944255282670274,
0.0314713216957606,-0.020513912542029163,
0.031521197007481294,0.0005839413790782828,
0.031571072319202,-0.008574487407084289,
0.03162094763092269,0.026105402381704414,
0.03167082294264339,-0.021965947205297702,
0.03172069825436409,-0.00588971939007412,
0.03177057356608479,-0.024593426916210387,
0.03182044887780549,0.0010682197351251452,
0.031870324189526185,-0.007238639287070102,
0.03192019950124688,0.0040443070472482995,
0.03197007481296758,-0.014233803372260967,
0.03201995012468828,-0.03080591730631574,
0.032069825436408975,0.016235252786227738,
0.03211970074812968,0.010887413410694812,
0.03216957605985037,0.011847811330323404,
0.032219451371571076,0.011346090629954914,
0.03226932668329177,-0.00018729149696645694,
0.03231920199501247,0.0078040404850209496,
0.03236907730673317,-0.014654766357626524,
0.032418952618453865,-0.006997956144809697,
0.03246882793017456,0.01659901597875063,
0.032518703241895264,0.03033026560872364,
0.03256857855361596,0.005122729137213315,
0.032618453865336655,-0.049087927254941426,
0.03266832917705736,0.006159472522830981,
0.032718204488778053,0.022427851787600844,
0.032768079800498756,-0.0030950172521055216,
0.03281795511221945,-0.01327965935680829,
0.03286783042394015,0.016510803805592788,
0.03291770573566085,-0.002904051404077576,
0.032967581047381546,-0.00269419992481195,
0.03301745635910224,-0.021998882873911642,
0.033067331670822944,-0.021383251554661142,
0.03311720698254364,0.01622136234600758,
0.03316708229426434,-0.014547897799201893,
0.03321695760598504,0.030845480121704585,
0.033266832917705734,0.03454226906405706,
0.03331670822942644,-0.010711348703982961,
0.03336658354114713,-0.005097705378748022,
0.03341645885286783,0.01614843421005193,
0.03346633416458853,0.02879199081761581,
0.033516209476309226,0.008731986756316359,
0.03356608478802992,-0.003258167421814921,
0.033615960099750625,0.001022866773239082,
0.03366583541147132,0.00881133492969251,
0.03371571072319202,-0.0006276004046289049,
0.03376558603491272,0.026039170027703305,
0.033815461346633414,-0.002356781504313784,
0.03386533665835412,0.015241678559279201,
0.03391521197007481,0.020085841925682663,
0.03396508728179551,0.009107110101785769,
0.03401496259351621,0.005865624524482363,
0.03406483790523691,0.009194316386961027,
0.0341147132169576,-0.003215227774367769,
0.034164588528678305,0.021770692509490965,
0.034214463840399,0.008480615029896095,
0.034264339152119704,0.006956588273491001,
0.0343142144638404,-0.005410345822160252,
0.034364089775561095,0.040527426106116315,
0.0344139650872818,0.024450647750281336,
0.03446384039900249,-0.010026044982924049,
0.03451371571072319,0.020633955684176926,
0.03456359102244389,0.0032939332250440396,
0.03461346633416459,-0.0009232573671177826,
0.03466334164588529,0.0020030280729840845,
0.034713216957605986,0.021033947743793326,
0.03476309226932668,0.011359361624699946,
0.034812967581047384,0.013025738806826882,
0.03486284289276808,0.018300536680111678,
0.034912718204488775,0.02839080346067769,
0.03496259351620948,0.04924033486897271,
0.035012468827930174,0.010866367261218809,
0.03506234413965087,0.008695241072970329,
0.03511221945137157,0.01690670670567741,
0.03516209476309227,0.026135619444800823,
0.03521197007481297,0.03226030993272046,
0.035261845386533666,0.001109710989291442,
0.03531172069825436,0.05264993336209116,
0.035361596009975065,-0.0011673626085017992,
0.03541147132169576,0.03010311672650065,
0.035461346633416456,0.028230608149864108,
0.03551122194513716,-0.0038415130462770494,
0.035561097256857854,0.021440128999906178,
0.03561097256857856,-0.00858012725848966,
0.03566084788029925,0.005383218416154571,
0.03571072319201995,0.017025389484123212,
0.03576059850374065,0.020356754756848196,
0.03581047381546135,0.037107975568509394,
0.03586034912718204,0.008241150939439593,
0.035910224438902745,0.024276177551633443,
0.03596009975062344,0.032893429027174174,
0.036009975062344136,0.01831818002135834,
0.03605985037406484,0.019287825688811214,
0.036109725685785535,-0.0023113671451278316,
0.03615960099750624,-0.004551833240176568,
0.03620947630922693,0.007264060222859834,
0.03625935162094763,0.040924643638784536,
0.03630922693266833,0.041141658047225874,
0.03635910224438903,0.039083040483000236,
0.03640897755610972,0.026075365954945386,
0.036458852867830426,0.028484314554158986,
0.03650872817955112,0.01463130512573187,
0.036558603491271824,0.01534340850260646,
0.03660847880299252,-0.009411413340343837,
0.036658354114713215,0.024333392330181648,
0.03670822942643392,0.028381888852451846,
0.036758104738154614,0.012184190367750338,
0.03680798004987531,0.035235355999516375,
0.03685785536159601,0.040085896376679205,
0.03690773067331671,0.004915779104439827,
0.0369576059850374,0.056511760284078,
0.037007481296758106,0.030124846226879668,
0.0370573566084788,0.045316340688240364,
0.037107231920199504,0.01181216870474377,
0.0371571072319202,0.04397842713363599,
0.037206982543640896,0.032220624427180385,
0.0372568578553616,0.017963943523641716,
0.037306733167082294,0.0059311810988926135,
0.03735660847880299,0.02264426839031422,
0.03740648379052369,0.03423654556836371,
0.03745635910224439,0.02375586973944486,
0.037506234413965084,0.023978653251911744,
0.037556109725685786,0.01538018669134857,
0.03760598503740648,0.002884708808100888,
0.037655860349127185,0.025424970894500954,
0.03770573566084788,0.008843622467423172,
0.037755610972568576,0.03708096778387797,
0.03780548628428928,0.035435877415761326,
0.037855361596009975,0.04788849101849979,
0.03790523690773067,0.01719485204516851,
0.03795511221945137,0.022220388819636144,
0.03800498753117207,0.0007797144366747145,
0.03805486284289277,0.014526712060799762,
0.03810473815461347,0.0227538047645126,
0.03815461346633416,0.02399598574054928,
0.038204488778054865,0.017099894114275874,
0.03825436408977556,0.013383123978573566,
0.03830423940149626,0.0263996846301187,
0.03835411471321696,0.018229028784271857,
0.038403990024937655,0.042329866690624274,
0.03845386533665835,0.02641140097788381,
0.03850374064837905,0.01456899677624296,
0.03855361596009975,0.03877182188916164,
0.03860349127182045,0.0073666182620362106,
0.03865336658354115,0.01652432691526566,
0.03870324189526184,0.006602351674385595,
0.038753117206982546,0.018439793794902477,
0.03880299251870324,0.0427701680715481,
0.03885286783042394,0.024901114072559533,
0.03890274314214464,-0.00391961905574606,
0.038952618453865336,0.01615705296116682,
0.03900249376558604,0.025811170961862702,
0.039052369077306734,0.026066708447297082,
0.03910224438902743,0.01898472700601016,
0.03915211970074813,0.03302677002311151,
0.03920199501246883,0.030159841673229985,
0.039251870324189524,0.01897673989161026,
0.039301745635910226,0.024687655355884672,
0.03935162094763092,0.018889142952124183,
0.03940149625935162,0.02170646063928676,
0.03945137157107232,0.023586354381386156,
0.039501246882793016,0.035824076569398934,
0.03955112219451372,0.027522270354445325,
0.039600997506234414,0.02033314668041964,
0.03965087281795511,0.01405996942798159,
0.03970074812967581,0.029916187933858314,
0.03975062344139651,0.024567030282327672,
0.039800498753117204,0.018196842126208573,
0.03985037406483791,0.014897128418639782,
0.0399002493765586,0.020273310511689464,
0.039950124688279305,0.009098591207744878,
0.04,-0.002708526844176773,
0.0400498753117207,0.0423410643743241,
0.0400997506234414,0.04257315554295429,
0.040149625935162095,0.02061031273696003,
0.04019950124688279,0.02624297187341366,
0.04024937655860349,0.014740600012540113,
0.04029925187032419,0.025589396820238784,
0.040349127182044885,0.01940145235634803,
0.04039900249376559,0.020482206488469615,
0.04044887780548628,0.0026378880073136303,
0.040498753117206986,0.04392901232576993,
0.04054862842892768,0.0003336477707996978,
0.04059850374064838,0.029361649064041408,
0.04064837905236908,0.004531707127203235,
0.040698254364089775,-0.013229021916799175,
0.04074812967581047,0.030251439930374963,
0.040798004987531174,0.018371227722842314,
0.04084788029925187,-0.0047968373594990885,
0.040897755610972565,0.025387976190215288,
0.04094763092269327,0.009805063123079421,
0.04099750623441396,0.04228905053579978,
0.041047381546134666,-0.006395069482181317,
0.04109725685785536,0.004997195653799715,
0.04114713216957606,0.026538515901195617,
0.04119700748129676,0.007561555846387162,
0.041246882793017456,0.0014471388662104043,
0.04129675810473815,0.016841900604430683,
0.041346633416458854,0.029649065775777396,
0.04139650872817955,0.012109811982650471,
0.04144638403990025,0.009404393870204667,
0.04149625935162095,0.0009523304523156289,
0.041546134663341644,0.005280012718871604,
0.04159600997506235,-0.004963729180131136,
0.04164588528678304,0.029813345288918786,
0.04169576059850374,0.021809979095117477,
0.04174563591022444,-0.008427027514525284,
0.041795511221945136,0.0020343262662236485,
0.04184538653366583,0.021523222202329245,
0.041895261845386535,0.01979110089730976,
0.04194513715710723,0.008220255071387317,
0.04199501246882793,0.005642709877452185,
0.04204488778054863,0.009031835383744538,
0.042094763092269324,0.0020896128517020295,
0.04214463840399003,0.02462487762195747,
0.04219451371571072,0.018703095870193333,
0.04224438902743142,0.012201469955159045,
0.04229426433915212,-0.008787708419586298,
0.04234413965087282,-0.0019297868981714367,
0.04239401496259352,-0.002430859044768062,
0.042443890274314215,0.0011836986535413725,
0.04249376558603491,0.009011941584909401,
0.042543640897755614,0.02969993983600053,
0.04259351620947631,0.008347503504942134,
0.042643391521197005,-0.015259874674976578,
0.04269326683291771,0.015297076780632194,
0.0427431421446384,-0.015446194854124806,
0.0427930174563591,0.011277471962103169,
0.0428428927680798,-0.002404749720609084,
0.0428927680798005,0.012434569108141643,
0.0429426433915212,0.011420151521861514,
0.042992518703241896,0.005759795363787085,
0.04304239401496259,-0.012760814270711358,
0.043092269326683294,-0.006769408879533268,
0.04314214463840399,0.009918633762674217,
0.043192019950124685,0.004632760403508824,
0.04324189526184539,0.0289397153583584,
0.043291770573566084,0.003392868956525869,
0.043341645885286786,0.012655117056856393,
0.04339152119700748,-0.005332745862814907,
0.04344139650872818,-0.012481515159725037,
0.04349127182044888,0.017227101811800687,
0.043541147132169576,-0.011079911974055463,
0.04359102244389027,-0.02205728009369358,
0.043640897755610975,-0.021047244420735307,
0.04369077306733167,0.0040926006884202965,
0.043740648379052366,-0.011765013329243805,
0.04379052369077307,-0.02470537158654171,
0.043840399002493764,0.026510575951277458,
0.04389027431421447,-0.0354024860880584,
0.04394014962593516,-0.009094428536161936,
0.04399002493765586,0.0210970809824759,
0.04403990024937656,-0.0026358229872116023,
0.04408977556109726,0.03311914091077928,
0.04413965087281795,0.007639438960617161,
0.044189526184538655,-0.0220739446247788,
0.04423940149625935,0.006575869555940495,
0.04428927680798005,-0.013450816236648329,
0.04433915211970075,-0.009046740907010822,
0.044389027431421445,-0.020583002091745142,
0.04443890274314215,-0.015596057676236797,
0.04448877805486284,0.004808413825962421,
0.04453865336658354,-0.01994163149026164,
0.04458852867830424,-0.0356326968954272,
0.04463840399002494,-0.000722254000943604,
0.04468827930174563,-0.01081310286974305,
0.044738154613466335,0.006395385150832294,
0.04478802992518703,-0.019163004612146532,
0.044837905236907734,0.007415396473120509,
0.04488778054862843,0.0025517545957544907,
0.044937655860349125,-0.0006780596540058139,
0.04498753117206983,-0.028915139126237763,
0.045037406483790524,-0.00980589514956717,
0.04508728179551122,0.004388412547249355,
0.04513715710723192,-0.017694461394393617,
0.04518703241895262,-0.04109827615819637,
0.04523690773067331,-0.02001561490728211,
0.045286783042394016,-0.024312401582149888,
0.04533665835411471,-0.019420612419092737,
0.045386533665835414,-0.03221096093667662,
0.04543640897755611,0.0008581356742812067,
0.045486284289276806,-0.001848474092567465,
0.04553615960099751,-0.02480609486084496,
0.045586034912718204,-0.0178893351460762,
0.0456359102244389,-0.024694549782528906,
0.0456857855361596,-0.004503850344997804,
0.0457356608478803,-0.027027774518282012,
0.045785536159601,-0.02502748100565194,
0.045835411471321696,-0.010879741248929372,
0.04588528678304239,-0.02527926797314178,
0.045935162094763095,0.01240303601928051,
0.04598503740648379,-0.023722985898961074,
0.046034912718204486,-0.0021098270759408507,
0.04608478802992519,-3.062725342416889e-05,
0.046134663341645885,-0.03448832907194529,
0.04618453865336658,-0.01753947668454858,
0.04623441396508728,-0.026815273665846795,
0.04628428927680798,-0.00032929198848787554,
0.04633416458852868,-0.015211919535767157,
0.04638403990024938,-0.0008438242951454445,
0.04643391521197007,0.010137295231892107,
0.046483790523690775,0.011417717300768682,
0.04653366583541147,-0.03070195364472368,
0.04658354114713217,-0.03242524106467587,
0.04663341645885287,-0.032571657686831214,
0.046683291770573565,0.0020492755699144296,
0.04673316708229427,-0.0038089346144149633,
0.04678304239401496,-0.005004890204127893,
0.04683291770573566,-0.007067543369625383,
0.04688279301745636,-0.021543806339068664,
0.04693266832917706,-0.014151909416606719,
0.04698254364089775,-0.010548309195211207,
0.047032418952618456,-0.013979866493170673,
0.04708229426433915,-0.025461547800062722,
0.04713216957605985,0.008317000903628798,
0.04718204488778055,-0.033903851115095245,
0.047231920199501246,-0.022244270271050845,
0.04728179551122195,0.005895334117747206,
0.047331670822942644,-0.002143938735407167,
0.04738154613466334,-0.035181487892012545,
0.04743142144638404,-0.04906015673931959,
0.04748129675810474,-0.03167836821031432,
0.047531172069825434,-0.014476941585296912,
0.047581047381546136,-0.015383411271658206,
0.04763092269326683,-0.016826285518544426,
0.047680798004987535,-0.007716495951505874,
0.04773067331670823,-0.01596349901162429,
0.047780548628428926,-0.0020752700219576724,
0.04783042394014963,-0.005025925445861017,
0.047880299251870324,-0.048765541390499,
0.04793017456359102,-0.01506834331794492,
0.04798004987531172,-0.019603393443244042,
0.04802992518703242,-0.01226220373643373,
0.048079800498753114,-0.019974958429374627,
0.04812967581047382,-0.040509877848437514,
0.04817955112219451,-0.009438750453284545,
0.048229426433915215,-0.005854395375949463,
0.04827930174563591,-0.04392632947975154,
0.048329177057356607,0.009712257625494249,
0.04837905236907731,-0.002065225142290298,
0.048428927680798005,-0.02958845070805973,
0.0484788029925187,-0.032532057458230346,
0.0485286783042394,-0.0129592809509376,
0.0485785536159601,-0.013987654415483683,
0.048628428927680795,-0.006559424204855011,
0.0486783042394015,-0.008409041267708126,
0.04872817955112219,-0.006905595584737455,
0.048778054862842896,-0.03228187123217709,
0.04882793017456359,-0.017632975796299234,
0.04887780548628429,-0.01028637124196111,
0.04892768079800499,-0.01889040221882335,
0.048977556109725685,-0.005531945837224382,
0.04902743142144638,0.0010278531100571808,
0.049077306733167084,-0.027449302081014947,
0.04912718204488778,-0.01542693073105573,
0.04917705735660848,-0.022710198709769334,
0.04922693266832918,-0.021019121008881272,
0.04927680798004987,-0.03916688335695753,
0.049326683291770576,-0.008189666091773611,
0.04937655860349127,0.028746140929740822,
0.04942643391521197,-0.007834872071770856,
0.04947630922693267,0.020379349595481634,
0.049526184538653366,0.005563611118751246,
0.04957605985037406,-0.02493297666511623,
0.049625935162094764,-0.007122275971396125,
0.04967581047381546,-0.0015401967983029539,
0.04972568578553616,-0.0021548124954023206,
0.04977556109725686,-0.02379461320789663,
0.049825436408977554,-0.00963934591238559,
0.04987531172069826,0.012464392651314278,
0.04992518703241895,-0.035749146231372826,
0.04997506234413965,0.0032675950248188083,
0.05002493765586035,0.005669010817813727,
0.050074812967581046,-0.03755767129154082,
0.05012468827930175,-0.02107207059481833,
0.050174563591022445,-0.015594484195386366,
0.05022443890274314,0.0019026454571430002,
0.05027431421446384,-0.010913671656750251,
0.05032418952618454,-0.019072132457251978,
0.050374064837905234,-0.009399560078571297,
0.05042394014962594,-0.0038572919096596762,
0.05047381546134663,-0.01255581528678192,
0.05052369077306733,0.01447582183740102,
0.05057356608478803,-0.009165734792568624,
0.05062344139650873,0.0016761410984726752,
0.05067331670822943,-0.02506165769641474,
0.050723192019950125,-0.003506894636002551,
0.05077306733167082,-0.016312080436434787,
0.050822942643391524,-0.01603837086500732,
0.05087281795511222,0.014915922447435252,
0.050922693266832915,-0.017827584639780916,
0.05097256857855362,-0.015393281481777208,
0.05102244389027431,-0.033365923941573415,
0.051072319201995016,-0.02044239659748937,
0.05112219451371571,-0.032355954781290955,
0.05117206982543641,0.011046163589136113,
0.05122194513715711,-0.0008391709523186321,
0.051271820448877806,0.006005144843808274,
0.0513216957605985,0.0011644056771001566,
0.051371571072319204,-0.01991846038993566,
0.0514214463840399,0.007006762204959332,
0.051471321695760595,-0.007854681323097756,
0.0515211970074813,0.004026452309059677,
0.051571072319201994,-0.04535742329570012,
0.051620947630922696,-0.02200638471289567,
0.05167082294264339,-0.014381723184159189,
0.05172069825436409,0.001077170422991393,
0.05177057356608479,-0.026842996460137082,
0.051820448877805486,0.03118721071024651,
0.05187032418952618,0.01631980725407322,
0.051920199501246884,0.017203649033290396,
0.05197007481296758,0.01954107782585169,
0.052019950124688276,0.00645934530213831,
0.05206982543640898,-0.018332508387008725,
0.052119700748129674,0.005775520978223155,
0.05216957605985038,-0.008179763506612571,
0.05221945137157107,-0.003964626302917917,
0.05226932668329177,0.012654834879334918,
0.05231920199501247,-0.008313843198925551,
0.05236907730673317,-0.008788189373348198,
0.05241895261845386,0.015174310949616326,
0.052468827930174565,-0.011210066778062773,
0.05251870324189526,-0.00325352730565294,
0.05256857855361596,0.0004399504329911149,
0.05261845386533666,0.010729630369380322,
0.052668329177057355,0.01330378073004124,
0.05271820448877806,-0.00731702433160455,
0.05276807980049875,-0.02213110788036013,
0.05281795511221945,0.022475744341751737,
0.05286783042394015,-0.030157746477807938,
0.05291770573566085,0.010011069835625896,
0.05296758104738154,0.003525972250335066,
0.053017456359102245,0.008475403421293496,
0.05306733167082294,0.009496711980337035,
0.053117206982543644,0.0016177447433922392,
0.05316708229426434,0.004247840526886777,
0.053216957605985035,0.010817402254441656,
0.05326683291770574,0.01013628103845328,
0.053316708229426434,-0.035254384020405836,
0.05336658354114713,0.005727964128105353,
0.05341645885286783,0.01907418647100875,
0.05346633416458853,-0.003442123156139811,
0.05351620947630923,0.014640644010620464,
0.053566084788029926,0.023327154081609514,
0.05361596009975062,0.009724052716113424,
0.053665835411471324,0.010491420558261688,
0.05371571072319202,-0.011409527569865834,
0.053765586034912716,0.007850460271196945,
0.05381546134663342,0.017018660524124152,
0.053865336658354114,0.003303003638409318,
0.05391521197007481,0.004369730731869859,
0.05396508728179551,0.01824789224340297,
0.05401496259351621,0.01609818949993462,
0.05406483790523691,0.018051756771171823,
0.054114713216957606,-0.012189716304263295,
0.0541645885286783,0.017993010208596866,
0.054214463840399005,-0.012083707510276872,
0.0542643391521197,0.008199746001574922,
0.054314214463840396,0.04160937454450707,
0.0543640897755611,0.021313490935142527,
0.054413965087281795,0.017994405097373302,
0.0544638403990025,0.0008256554771323785,
0.05451371571072319,0.03679417767583461,
0.05456359102244389,0.018595565171086917,
0.05461346633416459,-0.020585882979525905,
0.05466334164588529,0.004288342600912109,
0.05471321695760598,0.01886000200780418,
0.054763092269326685,0.011639900848720056,
0.05481296758104738,0.031529342229003665,
0.05486284289276808,-0.00138232770109507,
0.05491271820448878,0.018419573459809373,
0.054962593516209475,0.006645278182889796,
0.05501246882793018,0.018683752126914834,
0.05506234413965087,0.008321962219610003,
0.05511221945137157,0.017707235098226002,
0.05516209476309227,0.03970884117725462,
0.05521197007481297,-0.006393406088826537,
0.05526184538653366,0.04842452971273756,
0.055311720698254366,0.06995361693429693,
0.05536159600997506,0.010472063385709277,
0.05541147132169576,0.03921364179235101,
0.05546134663341646,0.03191422904824402,
0.055511221945137156,0.03022593149810933,
0.05556109725685786,0.0074801264462317045,
0.055610972568578554,0.004932693006781558,
0.05566084788029925,0.012158472252070108,
0.05571072319201995,0.0131472576851836,
0.05576059850374065,0.0012897464206029045,
0.055810473815461344,0.00812129800658465,
0.055860349127182046,0.03522963644819874,
0.05591022443890274,0.0434897081075926,
0.055960099750623445,0.006892762744350604,
0.05600997506234414,0.05730341577340866,
0.056059850374064836,-0.0006601515693759712,
0.05610972568578554,0.0032690202683977876,
0.056159600997506234,-0.007093316165650079,
0.05620947630922693,-0.005716433292429383,
0.05625935162094763,0.038665053911178374,
0.05630922693266833,0.014489558492565268,
0.056359102244389024,0.021153021324026015,
0.05640897755610973,0.016546720814199844,
0.05645885286783042,0.0019986836937383803,
0.056508728179551125,-0.004472966215580805,
0.05655860349127182,-0.01183941097086227,
0.056608478802992516,0.016947579973402384,
0.05665835411471322,0.02743765604393865,
0.056708229426433915,0.006768091579085769,
0.05675810473815461,-0.013091159124564843,
0.05680798004987531,0.03481161647648675,
0.05685785536159601,0.03693506857985239,
0.05690773067331671,-0.00015848716115682976,
0.05695760598503741,0.0029824768666185317,
0.0570074812967581,0.03273627037734493,
0.057057356608478806,-0.007949608999856715,
0.0571072319201995,0.0005733117475547993,
0.0571571072319202,0.04321963206632003,
0.0572069825436409,0.013444642453485797,
0.057256857855361595,0.022088453095633214,
0.05730673316708229,0.0038211988245873754,
0.057356608478802994,0.03883750296710331,
0.05740648379052369,0.02041270872494134,
0.05745635910224439,0.03693454366511573,
0.05750623441396509,0.013763766760864259,
0.05755610972568578,0.004498100390600786,
0.057605985037406486,0.019897817901418417,
0.05765586034912718,0.008994385383549177,
0.05770573566084788,0.013900638553662107,
0.05775561097256858,0.008938448883264262,
0.057805486284289276,0.0026498124976021484,
0.05785536159600998,0.0333670627231597,
0.057905236907730674,0.028841544745288765,
0.05795511221945137,0.006635107754931029,
0.05800498753117207,0.04846733718948149,
0.05805486284289277,0.01058373072473448,
0.058104738154613464,0.03432081813076306,
0.05815461346633417,-0.017660764323363665,
0.05820448877805486,0.01725187164312048,
0.05825436408977556,-0.006257684285901184,
0.05830423940149626,0.008567225537225956,
0.058354114713216956,0.027723785059093786,
0.05840399002493766,0.02594673453065569,
0.058453865336658355,0.00997825898368025,
0.05850374064837905,0.022092304284337873,
0.05855361596009975,0.025944099373231926,
0.05860349127182045,0.011740779068636787,
0.058653366583541144,0.03140133622765839,
0.05870324189526185,0.023259703347272193,
0.05875311720698254,0.012992542963016558,
0.05880299251870324,0.04846030175942542,
0.05885286783042394,0.01496905459434387,
0.05890274314214464,0.004778088476718369,
0.05895261845386534,0.03557649627827908,
0.059002493765586035,0.03006095675691338,
0.05905236907730673,-0.009884095942420519,
0.059102244389027433,-0.009202105731226973,
0.05915211970074813,0.02751166946321859,
0.059201995012468825,0.009655275917252801,
0.05925187032418953,0.024674015729707222,
0.05930174563591022,0.014027664216262054,
0.059351620947630926,0.027801986054841243,
0.05940149625935162,0.031072453645937755,
0.05945137157107232,-0.008587221505025097,
0.05950124688279302,0.004348067929966792,
0.059551122194513716,0.04324562850368654,
0.05960099750623441,0.02576442161901977,
0.059650872817955114,0.029440894341087258,
0.05970074812967581,0.05369067395363566,
0.059750623441396505,0.03651459728285404,
0.05980049875311721,0.020305256364954238,
0.059850374064837904,0.001486774731583155,
0.059900249376558606,0.03877224928903802,
0.0599501246882793,0.03899693467701894,
0.06,0.022414104570254657,
0.0600498753117207,0.048083043284365225,
0.060099750623441396,0.024290227446415305,
0.06014962593516209,0.020834455349914037,
0.060199501246882794,0.03765991978365501,
0.06024937655860349,0.026865475346040394,
0.06029925187032419,0.030683849404488376,
0.06034912718204489,-0.013227759349057233,
0.060399002493765584,0.024202755218596286,
0.06044887780548629,0.011095210314878307,
0.06049875311720698,0.00989097151745565,
0.06054862842892768,0.014586995852473118,
0.06059850374064838,0.007473048815169157,
0.06064837905236908,0.0284462604856085,
0.06069825436408977,-0.0007113090781734228,
0.060748129675810475,-0.009993213241467354,
0.06079800498753117,0.014681291075573108,
0.06084788029925187,0.03667547768846413,
0.06089775561097257,0.008512092711757416,
0.060947630922693265,0.012163641459996693,
0.06099750623441397,0.01156117894431599,
0.06104738154613466,0.05341116631474691,
0.06109725685785536,0.02954419244689354,
0.06114713216957606,0.0061637497725229185,
0.06119700748129676,0.011789762830315647,
0.06124688279301746,0.0028256776406628947,
0.061296758104738155,0.042308725544285844,
0.06134663341645885,-0.00897380303872292,
0.061396508728179554,-0.0008579576566916276,
0.06144638403990025,0.026864761270325683,
0.061496259351620945,0.038803532004988164,
0.06154613466334165,0.012741984686468196,
0.061596009975062344,0.008582593526665724,
0.06164588528678304,0.01299367182789326,
0.06169576059850374,0.013295406628287052,
0.06174563591022444,0.043385885592330926,
0.06179551122194514,0.018158778351213448,
0.061845386533665836,0.005766124841694885,
0.06189526184538653,0.01699497463790632,
0.061945137157107234,0.02478023001684959,
0.06199501246882793,-0.0037646824712519334,
0.062044887780548626,0.01397074149661056,
0.06209476309226933,0.010198661214534869,
0.062144638403990024,-0.007715162581391257,
0.06219451371571072,0.002881888466187715,
0.06224438902743142,0.0017037657157240108,
0.06229426433915212,0.0011746195632844833,
0.06234413965087282,0.03640702178383722,
0.062394014962593516,0.008324760594107205,
0.06244389027431421,0.012936250521111956,
0.062493765586034915,0.01727035173561474,
0.06254364089775562,0.00612687189777716,
0.06259351620947631,0.00013812070070715055,
0.06264339152119701,0.02885313582470337,
0.0626932668329177,0.028657760631762223,
0.0627431421446384,0.01948604314704763,
0.0627930174563591,0.00390928948701034,
0.0628428927680798,0.010526202352378904,
0.0628927680798005,-0.007248867230811487,
0.0629426433915212,0.006130532389782452,
0.06299251870324189,-0.01332119747358979,
0.06304239401496259,0.015983120672197756,
0.0630922693266833,0.02840133321616454,
0.063142144638404,-0.013515309332160674,
0.06319201995012469,0.029414731011087686,
0.06324189526184539,0.012186150676515519,
0.06329177057356608,-0.009186424550109065,
0.06334164588528678,0.0060095456958524154,
0.06339152119700749,0.024946356626391192,
0.06344139650872818,0.020147437226716202,
0.06349127182044888,0.019380357697864017,
0.06354114713216957,-0.004630815084060282,
0.06359102244389027,-0.013418080740816206,
0.06364089775561098,0.0003168436835121775,
0.06369077306733167,0.0018514455830999908,
0.06374064837905237,-0.0034784662307192553,
0.06379052369077307,-0.009711524698288341,
0.06384039900249376,-0.015992099869381805,
0.06389027431421446,0.00952980926017608,
0.06394014962593517,-0.01204437801844166,
0.06399002493765586,0.010344359044471639,
0.06403990024937656,-0.006518854594944756,
0.06408977556109725,-0.003763148883331447,
0.06413965087281795,-0.020284463662953413,
0.06418952618453866,0.003123113920731926,
0.06423940149625935,-0.007323318559117103,
0.06428927680798005,-0.0196107845668136,
0.06433915211970075,-0.007174121240567554,
0.06438902743142144,-0.016956780583753342,
0.06443890274314215,-0.027931446695188513,
0.06448877805486285,0.0067488512076755046,
0.06453865336658354,-0.0220600957213514,
0.06458852867830424,0.0017019964828040631,
0.06463840399002493,0.028913004009822142,
0.06468827930174563,-0.01973245260958202,
0.06473815461346634,0.001093087364191993,
0.06478802992518704,-0.012253462689522092,
0.06483790523690773,-0.0026779759855216755,
0.06488778054862843,-0.03324093458146492,
0.06493765586034912,-0.0007867746500126865,
0.06498753117206983,-0.005597370706645477,
0.06503740648379053,0.02874920937528335,
0.06508728179551122,-0.03830530542663026,
0.06513715710723192,-0.015143595550299455,
0.06518703241895261,-0.00127631920500127,
0.06523690773067331,0.0048463379753904134,
0.06528678304239402,-0.01044567296861169,
0.06533665835411472,0.010150692341614474,
0.06538653366583541,-0.008072662521463422,
0.06543640897755611,-0.007220459716517509,
0.0654862842892768,-0.03545331701005462,
0.06553615960099751,-0.0009120733636112602,
0.06558603491271821,0.01285848147739133,
0.0656359102244389,-0.024956897331886455,
0.0656857855361596,-0.016921949407448494,
0.0657356608478803,-0.031746239311467306,
0.06578553615960099,-0.0037221885001314705,
0.0658354114713217,-0.013319996541137389,
0.0658852867830424,0.001099310696685632,
0.06593516209476309,-0.012404232592241368,
0.06598503740648379,-0.01287640279302132,
0.06603491271820448,-0.012525205539719954,
0.06608478802992519,-0.009229053708455977,
0.06613466334164589,-0.01159332276819225,
0.06618453865336658,-0.005720304688154109,
0.06623441396508728,0.009163829033056124,
0.06628428927680798,0.0022169568337147075,
0.06633416458852869,0.013783935425785942,
0.06638403990024938,-0.030238990685627784,
0.06643391521197008,-0.02418504800095224,
0.06648379052369077,0.003659927659104353,
0.06653366583541147,-0.02827935155018406,
0.06658354114713216,0.011064026053235827,
0.06663341645885287,-0.021009335641367005,
0.06668329177057357,-0.01564425353669562,
0.06673316708229426,-0.019166305608860394,
0.06678304239401496,-0.013514094870028704,
0.06683291770573566,0.01106763523310002,
0.06688279301745637,0.005871594625390775,
0.06693266832917706,0.015365246584073502,
0.06698254364089776,0.020140139349931856,
0.06703241895261845,-0.021046751596908178,
0.06708229426433915,-0.02942950115654734,
0.06713216957605984,-0.01187023344857454,
0.06718204488778055,-0.00951305833082795,
0.06723192019950125,-0.03656129398785972,
0.06728179551122195,-0.002619206380632965,
0.06733167082294264,-0.030198808181561166,
0.06738154613466334,-0.020771871962356445,
0.06743142144638405,-0.003534273808100714,
0.06748129675810474,-0.0076084596592772,
0.06753117206982544,-0.013641171126356544,
0.06758104738154613,-0.011162642375526782,
0.06763092269326683,-0.004980989260278179,
0.06768079800498752,-0.023890160468507567,
0.06773067331670823,-0.009946903185585044,
0.06778054862842893,-0.014945014548744405,
0.06783042394014963,-0.01281261698454033,
0.06788029925187032,0.0024746317910357783,
0.06793017456359102,-0.010580500548659746,
0.06798004987531173,0.00647544172079598,
0.06802992518703242,-0.02229715999445268,
0.06807980049875312,-0.01624676865994692,
0.06812967581047381,-0.03765953824451673,
0.06817955112219451,-0.02924815177006793,
0.0682294264339152,-0.02038947070142243,
0.06827930174563591,-0.0076337548773449185,
0.06832917705735661,-0.022203443880862477,
0.0683790523690773,-0.031005503463063404,
0.068428927680798,-0.00943985295035032,
0.0684788029925187,-0.03954411003479927,
0.06852867830423941,-0.038934489376366205,
0.0685785536159601,-0.026718347318904954,
0.0686284289276808,-0.008430343738755171,
0.0686783042394015,-0.0273541965394676,
0.06872817955112219,-0.012748557589713827,
0.0687780548628429,-0.002871833138032985,
0.0688279301745636,-0.006962051102630949,
0.06887780548628429,0.01198977988072284,
0.06892768079800499,-0.0113839439268352,
0.06897755610972568,0.007631906359127871,
0.06902743142144638,-0.004262692864238589,
0.06907730673316709,-0.019399739700530622,
0.06912718204488778,-0.027806558751546064,
0.06917705735660848,-0.010848208924806311,
0.06922693266832917,-0.032631297811514616,
0.06927680798004987,-0.01626958211167781,
0.06932668329177058,-0.015079627440851185,
0.06937655860349128,0.004952365363454985,
0.06942643391521197,-0.023254179291553937,
0.06947630922693267,-0.005828706823359263,
0.06952618453865336,-0.02688168120284526,
0.06957605985037406,0.0008571686411565308,
0.06962593516209477,0.010727812355050572,
0.06967581047381546,-0.024269664649341757,
0.06972568578553616,-0.009494251759896766,
0.06977556109725686,0.027372967088661625,
0.06982543640897755,-0.02238312906360068,
0.06987531172069826,-0.032930002347203266,
0.06992518703241896,-0.007541572916550408,
0.06997506234413965,-0.02673039760993,
0.07002493765586035,-0.004953361972974161,
0.07007481296758104,0.0027088992487766857,
0.07012468827930174,-0.025507377402719147,
0.07017456359102245,-0.03201594439725411,
0.07022443890274314,0.00564168428235704,
0.07027431421446384,0.016481203712202797,
0.07032418952618454,-0.013880406315453949,
0.07037406483790523,0.01167176563908806,
0.07042394014962594,0.017624030550299485,
0.07047381546134664,0.002054331747938067,
0.07052369077306733,-0.0063111263846006675,
0.07057356608478803,0.002009031965143796,
0.07062344139650872,0.005110786390883578,
0.07067331670822943,-0.04137271645868664,
0.07072319201995013,-0.00921679068859199,
0.07077306733167082,-0.02684311272603517,
0.07082294264339152,-0.020510218298695152,
0.07087281795511222,-0.0018923766985349073,
0.07092269326683291,-0.007892868737192648,
0.07097256857855362,-0.005696630848015666,
0.07102244389027432,-0.007880478601433613,
0.07107231920199501,-0.008467826006152306,
0.07112219451371571,-0.005592515907730738,
0.0711720698254364,0.018310361254467323,
0.07122194513715711,0.004855294824007459,
0.07127182044887781,-0.018630889656052203,
0.0713216957605985,-0.010936370537870672,
0.0713715710723192,0.006255163980036495,
0.0714214463840399,-0.007782888659715142,
0.07147132169576059,0.004234792943905561,
0.0715211970074813,-0.003511978880841405,
0.071571072319202,0.0002704516357431596,
0.0716209476309227,0.0165274345339029,
0.07167082294264339,0.0037183144265264846,
0.07172069825436408,0.027017436906670935,
0.0717705735660848,-0.011637578719177859,
0.07182044887780549,-0.015158517553428244,
0.07187032418952619,0.004847392955728175,
0.07192019950124688,-0.004049437214152479,
0.07197007481296758,0.0014795305041845766,
0.07201995012468827,0.00516787107434717,
0.07206982543640898,-0.01927404776487096,
0.07211970074812968,-0.03228551048723457,
0.07216957605985037,0.011517334173168386,
0.07221945137157107,-0.020501598643350778,
0.07226932668329177,-0.006326079824273072,
0.07231920199501247,-0.0009721171628175162,
0.07236907730673317,0.0006994253313148677,
0.07241895261845387,0.013989907419156244,
0.07246882793017456,0.012558696356754443,
0.07251870324189526,0.006461237807759067,
0.07256857855361595,0.011732975425119174,
0.07261845386533666,-0.01190976421091143,
0.07266832917705736,-0.007421894219445601,
0.07271820448877805,0.0581024642976362,
0.07276807980049875,0.006749634569527501,
0.07281795511221945,0.01797932794147553,
0.07286783042394016,-0.012130956735441808,
0.07291770573566085,0.01643230200997886,
0.07296758104738155,0.001924521745531627,
0.07301745635910224,-0.0019343402052994785,
0.07306733167082294,0.032745841646498824,
0.07311720698254365,0.029801963962118223,
0.07316708229426434,0.006577531939168323,
0.07321695760598504,0.011020746813561095,
0.07326683291770573,0.0019599697992264773,
0.07331670822942643,-0.009161095713458068,
0.07336658354114713,0.009683632599782032,
0.07341645885286784,0.012303049709471154,
0.07346633416458853,0.024679544478021627,
0.07351620947630923,0.01817539409279718,
0.07356608478802992,-0.005248460037145266,
0.07361596009975062,-0.020763613789570097,
0.07366583541147133,0.00546590744835112,
0.07371571072319202,-0.008709261390048257,
0.07376558603491272,0.009312362971778676,
0.07381546134663342,0.01790708732598316,
0.07386533665835411,0.016427497805467036,
0.0739152119700748,0.005115994875857438,
0.07396508728179552,0.018308752000648985,
0.07401496259351621,0.03348148277672284,
0.07406483790523691,0.018855878439825967,
0.0741147132169576,0.018639007801299783,
0.0741645885286783,0.005357951222039308,
0.07421446384039901,0.016233834484478835,
0.0742643391521197,0.036973595505389464,
0.0743142144638404,0.013495998546303985,
0.0743640897755611,0.009887652110191717,
0.07441396508728179,0.03328925814008748,
0.07446384039900249,0.012946786417078618,
0.0745137157107232,0.024652967701946596,
0.07456359102244389,0.01921981762775572,
0.07461346633416459,0.024137470123818186,
0.07466334164588528,0.029203344594204365,
0.07471321695760598,0.036070970491839896,
0.07476309226932669,0.03312686056245566,
0.07481296758104738,0.03936302891944377,
0.07486284289276808,0.014017066601915422,
0.07491271820448878,-3.269945092252216e-05,
0.07496259351620947,0.01594137115005684,
0.07501246882793017,0.06169691341480173,
0.07506234413965088,0.01741658207643797,
0.07511221945137157,-0.008877548137202158,
0.07516209476309227,0.05929131041335594,
0.07521197007481296,0.02262810005945976,
0.07526184538653366,0.0073936751597147,
0.07531172069825437,0.00266101193834431,
0.07536159600997507,0.022628635441534678,
0.07541147132169576,0.03203548748917461,
0.07546134663341646,0.031143891412915264,
0.07551122194513715,0.03472892128267894,
0.07556109725685786,-0.0009561477963868394,
0.07561097256857856,0.003997932611746122,
0.07566084788029925,0.02169142710244483,
0.07571072319201995,0.03906550060359769,
0.07576059850374064,0.015768016361648592,
0.07581047381546134,-0.011898478535542586,
0.07586034912718205,0.03538522237665914,
0.07591022443890275,-0.018753999605466896,
0.07596009975062344,0.015494734328024704,
0.07600997506234414,0.034950987735508476,
0.07605985037406483,0.03465447149660146,
0.07610972568578554,-0.0013503640670842407,
0.07615960099750624,0.03722576380713836,
0.07620947630922693,0.04446148152217601,
0.07625935162094763,0.03390867632767467,
0.07630922693266833,0.020573542721741923,
0.07635910224438902,0.03138276958898266,
0.07640897755610973,0.013474617606320374,
0.07645885286783043,0.040815944518079406,
0.07650872817955112,0.04760132127083312,
0.07655860349127182,0.018557175176403477,
0.07660847880299251,0.036789406872634656,
0.07665835411471322,0.04047645842031799,
0.07670822942643392,0.02187999222671968,
0.07675810473815461,-0.0089290528055457,
0.07680798004987531,0.027766360134476777,
0.076857855361596,-0.0209064820869504,
0.0769077306733167,0.0499775948862135,
0.07695760598503741,0.034895181536342135,
0.0770074812967581,0.02208092043514944,
0.0770573566084788,0.04026656200154055,
0.0771072319201995,0.008371777885549197,
0.0771571072319202,0.043267358772302374,
0.0772069825436409,0.029557249840034293,
0.0772568578553616,0.02989835540057504,
0.0773067331670823,0.019890161141464517,
0.07735660847880299,0.021643891931863314,
0.07740648379052369,0.034513860602065925,
0.0774563591022444,0.012393258784594987,
0.07750623441396509,0.007247105450506174,
0.07755610972568579,0.04210466503095987,
0.07760598503740648,0.03383911389253845,
0.07765586034912718,0.011486361505048127,
0.07770573566084787,0.027486801252455978,
0.07775561097256858,0.026577343479905122,
0.07780548628428928,0.015093681175932688,
0.07785536159600998,0.029163851262427126,
0.07790523690773067,0.02544790331862102,
0.07795511221945137,0.0394275552686298,
0.07800498753117208,0.03216248481764718,
0.07805486284289277,0.017802594843362628,
0.07810473815461347,0.017390832889279034,
0.07815461346633416,0.032378578294060816,
0.07820448877805486,-0.0011386851674159149,
0.07825436408977555,0.008883485594170723,
0.07830423940149626,0.022985378937182624,
0.07835411471321696,0.02373267521289266,
0.07840399002493766,0.040522229155579584,
0.07845386533665835,0.004407630891446603,
0.07850374064837905,0.018878749762949114,
0.07855361596009976,0.02540656507455784,
0.07860349127182045,0.02061740194094004,
0.07865336658354115,0.0141950067576702,
0.07870324189526184,0.01578611723480078,
0.07875311720698254,0.02903874225421189,
0.07880299251870324,0.02108534840267656,
0.07885286783042394,0.019423437143312964,
0.07890274314214464,0.007324685764281514,
0.07895261845386534,0.05920970026301679,
0.07900249376558603,0.026997838020661448,
0.07905236907730673,0.04835952160341916,
0.07910224438902744,0.020385382417692496,
0.07915211970074813,0.026313549811286537,
0.07920199501246883,0.03199591656932598,
0.07925187032418952,0.0224310935219436,
0.07930174563591022,0.02594038520123297,
0.07935162094763092,0.02754881442672237,
0.07940149625935163,0.020620602968580936,
0.07945137157107232,0.022222891093924762,
0.07950124688279302,0.03909577166466054,
0.07955112219451371,0.008884135739965377,
0.07960099750623441,0.04945120297817493,
0.07965087281795512,0.031896847121429775,
0.07970074812967581,0.018670883804476717,
0.07975062344139651,0.03646856881535997,
0.0798004987531172,0.03531832059619634,
0.0798503740648379,0.02748127878463169,
0.07990024937655861,0.0208252170730373,
0.0799501246882793,-0.0021698625451756492,
0.08,0.01165046051642868,
0.0800498753117207,0.022995916514061552,
0.0800997506234414,0.029066541307959097,
0.08014962593516209,0.022674301249031255,
0.0801995012468828,0.027633138280394865,
0.0802493765586035,0.017529967641951107,
0.08029925187032419,0.030634581058944205,
0.08034912718204489,0.0533127082614563,
0.08039900249376558,0.023108592454135088,
0.08044887780548629,0.018518677185409428,
0.08049875311720699,0.02008397455329726,
0.08054862842892768,0.032163867797537646,
0.08059850374064838,0.019171916747833993,
0.08064837905236907,0.031467329378283046,
0.08069825436408977,0.033074911630879604,
0.08074812967581048,0.045873458398769565,
0.08079800498753117,0.025753874564886904,
0.08084788029925187,0.020219252633007237,
0.08089775561097257,0.023633429251665464,
0.08094763092269326,0.018132841913506725,
0.08099750623441397,0.02069715535318425,
0.08104738154613467,0.03831129129731174,
0.08109725685785536,0.01038050753130412,
0.08114713216957606,-0.002466005494046457,
0.08119700748129675,0.01892216578755201,
0.08124688279301745,0.01950250172295335,
0.08129675810473816,0.031227726589730706,
0.08134663341645886,0.013793162753709015,
0.08139650872817955,0.00903346037938725,
0.08144638403990025,0.006321304734490281,
0.08149625935162094,0.00581969114994013,
0.08154613466334165,0.0023538284343729444,
0.08159600997506235,-0.00338073353022849,
0.08164588528678304,-0.018531777080075477,
0.08169576059850374,0.026316635440735467,
0.08174563591022443,0.016645420453572354,
0.08179551122194513,0.044887956083352984,
0.08184538653366584,-0.009041897371520672,
0.08189526184538654,0.042082668185937915,
0.08194513715710723,0.01011324702502784,
0.08199501246882793,-0.01172810091475824,
0.08204488778054862,-0.018362166136631518,
0.08209476309226933,0.003453420837596503,
0.08214463840399003,0.0247266242248984,
0.08219451371571072,0.01485934162062768,
0.08224438902743142,0.005015370976713498,
0.08229426433915212,0.02722750733030968,
0.08234413965087282,0.01170752891018347,
0.08239401496259352,-0.014099438949095799,
0.08244389027431422,0.028626605156194123,
0.08249376558603491,-0.006646559250687186,
0.08254364089775561,-0.007318250731241113,
0.0825935162094763,0.005066675108862202,
0.08264339152119701,0.013052812192990496,
0.08269326683291771,-0.0019396315368860207,
0.0827431421446384,-0.019010789898278965,
0.0827930174563591,-0.002005484678487061,
0.0828428927680798,0.021640656397337442,
0.0828927680798005,0.006413455856494651,
0.0829426433915212,0.02291384472920121,
0.0829925187032419,0.01362395266734454,
0.08304239401496259,-0.002720511946981502,
0.08309226932668329,-0.005557275482539404,
0.08314214463840398,0.007775934755717418,
0.0831920199501247,0.007545625840433915,
0.08324189526184539,0.006023198804205985,
0.08329177057356608,0.007058406888767977,
0.08334164588528678,0.0016026074715263464,
0.08339152119700748,0.0015859799283214906,
0.08344139650872819,-0.009179272779345826,
0.08349127182044888,-0.013125236896527923,
0.08354114713216958,0.013630122932166706,
0.08359102244389027,-0.012722822829050656,
0.08364089775561097,-0.02630299706094603,
0.08369077306733166,-0.003666962140926219,
0.08374064837905237,0.005369145823243235,
0.08379052369077307,-0.0015904362001849955,
0.08384039900249377,-0.01728825302995093,
0.08389027431421446,0.01689435275021578,
0.08394014962593516,0.0035306522568540784,
0.08399002493765587,0.017109084780195377,
0.08403990024937656,-0.0012079435511264795,
0.08408977556109726,0.006539818458459247,
0.08413965087281795,-0.018175241845635303,
0.08418952618453865,-0.04745134786315984,
0.08423940149625936,-0.001156353156450119,
0.08428927680798005,-0.02202641270107619,
0.08433915211970075,0.010780084904374633,
0.08438902743142145,0.011368030754665553,
0.08443890274314214,0.001868413170639219,
0.08448877805486284,-0.015671072148945857,
0.08453865336658355,-0.0034966999811087427,
0.08458852867830424,0.0046898987388505654,
0.08463840399002494,0.0022054244183190262,
0.08468827930174563,-0.017898216994352335,
0.08473815461346633,-0.03272293123232429,
0.08478802992518704,0.0009908615436107953,
0.08483790523690773,-0.005215962738850329,
0.08488778054862843,0.0034026758147126957,
0.08493765586034913,-0.005724162518488866,
0.08498753117206982,-0.008077020109415101,
0.08503740648379052,-0.008600412756522804,
0.08508728179551123,-0.010910411561998325,
0.08513715710723192,0.029601527745851255,
0.08518703241895262,-0.010147337754122153,
0.08523690773067331,-0.011749302280347785,
0.08528678304239401,0.0037615793366368618,
0.08533665835411472,-0.0005688840732062141,
0.08538653366583542,-0.006241167662990604,
0.08543640897755611,-0.0206357587485657,
0.0854862842892768,-0.0276490848293769,
0.0855361596009975,-0.009014616088804082,
0.0855860349127182,-0.011306018586935116,
0.08563591022443891,-0.016119671571937902,
0.0856857855361596,0.0031630426251856476,
0.0857356608478803,0.004862348949579709,
0.085785536159601,0.008081081561777378,
0.08583541147132169,-0.024770292614731935,
0.0858852867830424,0.0060044946423019885,
0.0859351620947631,-0.03817346381547164,
0.08598503740648379,-0.01076345642202075,
0.08603491271820449,0.002836503625188313,
0.08608478802992518,-0.025713852553965643,
0.08613466334164588,-0.030518953198932924,
0.08618453865336659,-0.01140622615612201,
0.08623441396508728,0.014015317623712501,
0.08628428927680798,0.014639238322523396,
0.08633416458852868,0.00655201032574612,
0.08638403990024937,-0.026172373820347844,
0.08643391521197008,-0.01128619160222809,
0.08648379052369078,0.022085841023727716,
0.08653366583541147,0.001932030765129534,
0.08658354114713217,-0.034949755396618626,
0.08663341645885286,0.00021708901867358021,
0.08668329177057357,-0.022999117921303786,
0.08673316708229427,-0.016399660455622064,
0.08678304239401496,-0.000993324146902716,
0.08683291770573566,-0.017731015226526807,
0.08688279301745636,-0.02017569953788506,
0.08693266832917705,0.0037025023383492756,
0.08698254364089776,-0.0012651844220923896,
0.08703241895261846,-0.007648585424920742,
0.08708229426433915,0.018875455899841333,
0.08713216957605985,-0.009594902775393944,
0.08718204488778054,-0.008026145198518747,
0.08723192019950125,-0.01763669794900892,
0.08728179551122195,-0.027496238516947095,
0.08733167082294264,-0.03431967877274779,
0.08738154613466334,-0.0001683975209260096,
0.08743142144638404,-0.019830912338471656,
0.08748129675810473,0.025595371160502783,
0.08753117206982544,-0.02649677791944325,
0.08758104738154614,-0.02461912475562935,
0.08763092269326683,-0.008293778157412154,
0.08768079800498753,-0.02870033150842165,
0.08773067331670822,-0.03572822716852447,
0.08778054862842893,-0.0031596997865642046,
0.08783042394014963,-0.046171968738426675,
0.08788029925187033,-0.010344552630885368,
0.08793017456359102,-0.010026736510789825,
0.08798004987531172,0.0006303500655476958,
0.08802992518703241,-0.006113433384391002,
0.08807980049875312,0.028498445257275067,
0.08812967581047382,-0.018934173244143468,
0.08817955112219451,-0.033188097194414026,
0.08822942643391521,0.028075342494845487,
0.0882793017456359,-0.011688708126721042,
0.08832917705735661,-0.02629266175526852,
0.08837905236907731,-0.036865944244035095,
0.088428927680798,-0.017809410977166387,
0.0884788029925187,-0.02474283130837455,
0.0885286783042394,-0.024548898470410578,
0.0885785536159601,-0.04403824544613312,
0.0886284289276808,-0.018399579595360836,
0.0886783042394015,-0.006343860557444031,
0.0887281795511222,-0.027767767721547265,
0.08877805486284289,-0.019145473057310892,
0.08882793017456359,-0.019809698320339516,
0.0888778054862843,-0.011081458796895833,
0.08892768079800499,0.012769565484336186,
0.08897755610972569,-0.009084129969687115,
0.08902743142144638,-0.029489192415025706,
0.08907730673316708,-0.01388485925850836,
0.08912718204488779,-0.0065453110271614596,
0.08917705735660848,-0.030143143819634018,
0.08922693266832918,-0.02539941967320581,
0.08927680798004987,-0.025536825149848,
0.08932668329177057,-0.014210479288811684,
0.08937655860349127,-0.01689612725065603,
0.08942643391521198,-0.036385946145037554,
0.08947630922693267,-0.019687798249017084,
0.08952618453865337,-0.011347837467419762,
0.08957605985037406,0.005433370540641441,
0.08962593516209476,-0.03037751762175397,
0.08967581047381547,-0.024123219551229674,
0.08972568578553616,-0.02722009646574018,
0.08977556109725686,-0.03458903098792249,
0.08982543640897755,-0.04951742931558172,
0.08987531172069825,-0.002983439249843016,
0.08992518703241895,-0.00769654331718829,
0.08997506234413966,-0.003100017176291885,
0.09002493765586035,-0.0051369475297965905,
0.09007481296758105,-0.015546277070443912,
0.09012468827930174,-0.018380654702298854,
0.09017456359102244,0.007376915457465454,
0.09022443890274315,0.0013215086239002898,
0.09027431421446384,-0.01002053417892345,
0.09032418952618454,-0.022874672685549928,
0.09037406483790524,-0.006260592796711866,
0.09042394014962593,-0.004525654658406056,
0.09047381546134663,-0.01660280921128268,
0.09052369077306734,-0.003370497252192706,
0.09057356608478803,0.0019422295617828053,
0.09062344139650873,4.371091223125817e-05,
0.09067331670822942,0.00809437665961751,
0.09072319201995012,0.006802127581957717,
0.09077306733167083,0.00976188424562759,
0.09082294264339152,-0.01354403213969045,
0.09087281795511222,0.0064820868758274225,
0.09092269326683292,0.002243934008650959,
0.09097256857855361,0.007462318023377806,
0.09102244389027432,-0.0026537283268152417,
0.09107231920199502,0.0030929502871221894,
0.09112219451371571,-0.01921706827515755,
0.09117206982543641,0.003381936418331233,
0.0912219451371571,0.014871685662383916,
0.0912718204488778,0.021654821752000727,
0.09132169576059851,-0.004681256661775248,
0.0913715710723192,0.02425432576165784,
0.0914214463840399,-0.004720390296004812,
0.0914713216957606,0.008450021808417118,
0.09152119700748129,-0.0007435304691621291,
0.091571072319202,0.017644807410802682,
0.0916209476309227,0.0019476470180243921,
0.09167082294264339,-0.009823097256824806,
0.09172069825436409,0.015065438273970699,
0.09177057356608478,-0.007664127729389789,
0.09182044887780548,0.004768622073973554,
0.09187032418952619,-0.025020502234877603,
0.09192019950124689,0.013077879231000551,
0.09197007481296758,-0.027175151356201167,
0.09201995012468828,-0.006226050890946271,
0.09206982543640897,-0.018907952086497346,
0.09211970074812968,-0.014915288330215567,
0.09216957605985038,0.001660506697694509,
0.09221945137157107,-0.007571566940516626,
0.09226932668329177,0.013876376292352718,
0.09231920199501246,-0.0005724601655653625,
0.09236907730673316,0.005952524217421267,
0.09241895261845387,-0.008505959228189702,
0.09246882793017457,0.015280782969091635,
0.09251870324189526,0.007112585889613538,
0.09256857855361596,0.012581552194783834,
0.09261845386533665,0.016405755253793997,
0.09266832917705736,0.018287654707816164,
0.09271820448877806,0.011867295904798535,
0.09276807980049875,0.00856290939036003,
0.09281795511221945,0.022835848767862967,
0.09286783042394015,0.009032061139574218,
0.09291770573566084,0.0007019213970553932,
0.09296758104738155,0.020974541777126068,
0.09301745635910225,0.023229746121184194,
0.09306733167082294,0.007084776580185203,
0.09311720698254364,0.01747267689338885,
0.09316708229426433,0.01532074075811565,
0.09321695760598504,0.01015062271790941,
0.09326683291770574,-0.0129218707041859,
0.09331670822942643,-0.007090311695175135,
0.09336658354114713,0.004203501635331314,
0.09341645885286783,0.010681723552140166,
0.09346633416458854,-0.007273677784931175,
0.09351620947630923,-0.020712486810441876,
0.09356608478802993,0.009461535931078952,
0.09361596009975062,0.011438416014540712,
0.09366583541147132,0.02459381970839619,
0.09371571072319201,0.040920089139312874,
0.09376558603491272,-0.00813988491606106,
0.09381546134663342,0.01766370976888204,
0.09386533665835411,0.048521461940158626,
0.09391521197007481,-0.006618181448528954,
0.0939650872817955,-0.0012021010890647821,
0.09401496259351622,0.028324726311204522,
0.09406483790523691,0.016878839375447287,
0.09411471321695761,0.018475167123184935,
0.0941645885286783,0.023939972397084383,
0.094214463840399,0.026027738528867396,
0.0942643391521197,0.021573292027563966,
0.0943142144638404,0.023693778889928283,
0.0943640897755611,-0.0021769275785433334,
0.0944139650872818,0.030811991643909534,
0.09446384039900249,0.03982181732520705,
0.09451371571072319,0.03328260250364338,
0.0945635910224439,0.024409127066792883,
0.09461346633416459,0.04550313590942704,
0.09466334164588529,0.020270877914042085,
0.09471321695760598,0.03263484674251082,
0.09476309226932668,0.04340566195311271,
0.09481296758104737,0.012815581462356248,
0.09486284289276808,0.0381955835337601,
0.09491271820448878,0.0018187735118264173,
0.09496259351620948,0.006088802379660583,
0.09501246882793017,0.004554788790724492,
0.09506234413965087,-0.012684026223167149,
0.09511221945137158,0.009056466018038294,
0.09516209476309227,0.02127700975566998,
0.09521197007481297,0.01569968444138293,
0.09526184538653366,0.0013930953489736317,
0.09531172069825436,-0.01622363278962083,
0.09536159600997507,0.00973740516464872,
0.09541147132169576,0.008489002625215738,
0.09546134663341646,0.04986718063630949,
0.09551122194513716,0.02138092388392483,
0.09556109725685785,0.04818978374554384,
0.09561097256857855,0.011344226822338035,
0.09566084788029926,0.03808668485612457,
0.09571072319201995,0.026178924097226906,
0.09576059850374065,0.01056342396421045,
0.09581047381546134,0.02677312214678563,
0.09586034912718204,0.020022403694768962,
0.09591022443890275,0.018730692835422266,
0.09596009975062345,-0.001418390139195029,
0.09600997506234414,0.05322553893596066,
0.09605985037406484,0.032000508729508347,
0.09610972568578553,0.007329460132314541,
0.09615960099750623,0.0300551953441898,
0.09620947630922694,0.01915259198876646,
0.09625935162094763,0.04554893995335091,
0.09630922693266833,0.020318745989396727,
0.09635910224438902,0.02415585765550124,
0.09640897755610972,0.01561313639481101,
0.09645885286783043,0.032361343800498626,
0.09650872817955113,0.025034014042682854,
0.09655860349127182,0.044162823311945265,
0.09660847880299252,0.030172458564742415,
0.09665835411471321,0.062335085134638826,
0.09670822942643391,0.02370041859274134,
0.09675810473815462,0.014028681550234158,
0.09680798004987531,0.015157845575523438,
0.09685785536159601,0.015337614840266859,
0.0969077306733167,0.014047841014569693,
0.0969576059850374,0.04914381506774203,
0.09700748129675811,0.022601483808160315,
0.0970573566084788,0.031083735257840736,
0.0971072319201995,0.007518694903195188,
0.0971571072319202,0.026775258023391996,
0.0972069825436409,-0.00827311365276186,
0.09725685785536159,0.032251255571190435,
0.0973067331670823,0.019040659908073923,
0.097356608478803,0.05109992217425777,
0.09740648379052369,0.03954497571922057,
0.09745635910224439,0.039263322046853025,
0.09750623441396508,0.014113584264366714,
0.09755610972568579,0.03272658588308302,
0.09760598503740649,0.056706201014683884,
0.09765586034912718,0.01596522721441163,
0.09770573566084788,0.014800697547698867,
0.09775561097256857,0.028221519814192114,
0.09780548628428928,0.03117955977653915,
0.09785536159600998,0.03759490408352141,
0.09790523690773068,0.03560089968118654,
0.09795511221945137,0.030969117040538452,
0.09800498753117207,0.016883016242577265,
0.09805486284289276,0.05733655877323571,
0.09810473815461347,0.05025501794762115,
0.09815461346633417,0.03465626293881954,
0.09820448877805486,0.04641329164913256,
0.09825436408977556,0.027074129245534997,
0.09830423940149625,0.009515621546789158,
0.09835411471321696,0.04118996396737902,
0.09840399002493766,0.008747886350313289,
0.09845386533665836,0.058768574735212284,
0.09850374064837905,0.010798029825626686,
0.09855361596009975,0.048877890193276576,
0.09860349127182044,0.05580858036193969,
0.09865336658354115,0.0073699027130393335,
0.09870324189526185,0.0058421610630627965,
0.09875311720698254,0.03521787520452288,
0.09880299251870324,0.05070203033567719,
0.09885286783042393,0.03810628298407777,
0.09890274314214464,0.015040425250366756,
0.09895261845386534,0.05062227666255046,
0.09900249376558604,0.06097030298308318,
0.09905236907730673,0.013017610134670624,
0.09910224438902743,0.032924467551196275,
0.09915211970074812,0.036528662346521044,
0.09920199501246883,0.02278946445133132,
0.09925187032418953,0.013410405031487981,
0.09930174563591022,0.010784035179277573,
0.09935162094763092,-4.2245060000216383e-05,
0.09940149625935162,0.039433199987360765,
0.09945137157107233,0.018633205495305734,
0.09950124688279302,0.05110221368985725,
0.09955112219451372,0.03419324190212787,
0.09960099750623441,0.02460591396226957,
0.09965087281795511,0.047479942302275195,
0.0997007481296758,0.02438808635169577,
0.09975062344139651,0.016883985609253138,
0.09980049875311721,0.036158138162511434,
0.0998503740648379,0.016616062299550295,
0.0999002493765586,0.027177997195516713,
0.0999501246882793,0.029779799555973464,
0.1,0.02503263729268278,
0.1000498753117207,0.029631341649896586,
0.1000997506234414,0.02945982947933061,
0.10014962593516209,0.026198831163148473,
0.10019950124688279,0.01529249560009285,
0.1002493765586035,0.007442372918496766,
0.1002992518703242,0.011635942455623839,
0.10034912718204489,0.01236988902391524,
0.10039900249376559,0.03214505355028646,
0.10044887780548628,0.04791387852525722,
0.10049875311720698,0.02171252463754141,
0.10054862842892769,0.04003176816104563,
0.10059850374064838,0.010800697894760597,
0.10064837905236908,0.01892251270509989,
0.10069825436408977,0.018303989608729743,
0.10074812967581047,0.029504466149768115,
0.10079800498753118,0.011120550214029919,
0.10084788029925187,0.03125313125811837,
0.10089775561097257,0.025121960602485914,
0.10094763092269327,0.02207676204469798,
0.10099750623441396,0.010804081227409033,
0.10104738154613466,-0.005818399394583968,
0.10109725685785537,0.012073147567742271,
0.10114713216957606,0.029781057617558532,
0.10119700748129676,-0.008241771791293727,
0.10124688279301745,-0.005667061892948015,
0.10129675810473815,0.01333149525252476,
0.10134663341645886,0.004712705121688568,
0.10139650872817955,0.06524063807015995,
0.10144638403990025,0.020361822121099972,
0.10149625935162095,0.010412844755509847,
0.10154613466334164,0.0332222493522409,
0.10159600997506234,0.014895419544339636,
0.10164588528678305,0.014293910916729956,
0.10169576059850374,0.042666221550217126,
0.10174563591022444,-0.016237858125618385,
0.10179551122194513,0.0002283015300610005,
0.10184538653366583,0.02237835016667584,
0.10189526184538654,-0.00021264487502849552,
0.10194513715710724,-0.0006924281434859715,
0.10199501246882793,0.02591698845072906,
0.10204488778054863,0.0030818829323115728,
0.10209476309226932,0.018457825175842407,
0.10214463840399003,0.00882642460545693,
0.10219451371571073,0.017576377266609905,
0.10224438902743142,0.010555959159845637,
0.10229426433915212,0.024271978728401783,
0.10234413965087281,0.02568251135104301,
0.10239401496259351,0.0006238374335506645,
0.10244389027431422,-0.013427591567835484,
0.10249376558603492,0.008401599735871193,
0.10254364089775561,0.0014059826840522212,
0.10259351620947631,-0.000880368572393762,
0.102643391521197,-0.016492650997719224,
0.10269326683291771,0.0030713169215388367,
0.10274314214463841,0.00949762029289573,
0.1027930174563591,-0.0003094403203556112,
0.1028428927680798,0.007503670435179212,
0.1028927680798005,0.01769739277807801,
0.10294264339152119,0.028898927716698282,
0.1029925187032419,0.030349940660718285,
0.1030423940149626,-0.0027319056636762847,
0.10309226932668329,-0.004544670640998088,
0.10314214463840399,-0.014348044111321597,
0.10319201995012468,0.018315936117219205,
0.10324189526184539,0.008524135500246275,
0.10329177057356609,0.02675353075807803,
0.10334164588528678,0.007868867558917277,
0.10339152119700748,-0.00351075717177083,
0.10344139650872818,0.0038101493679757095,
0.10349127182044887,0.000981081975142315,
0.10354114713216958,-0.006858816652487373,
0.10359102244389028,0.004907381727612058,
0.10364089775561097,-0.009794423993853997,
0.10369077306733167,0.023872038254800124,
0.10374064837905236,-0.023098819004746498,
0.10379052369077307,0.020467242242863955,
0.10384039900249377,-0.005411833241497172,
0.10389027431421446,-0.04174129473426383,
0.10394014962593516,-0.02545278510564631,
0.10399002493765586,0.0002546535273697686,
0.10403990024937655,-0.005378332268672058,
0.10408977556109726,0.006779734765904454,
0.10413965087281796,-0.0060045819647089535,
0.10418952618453865,0.008752778883208464,
0.10423940149625935,-3.981779993787003e-05,
0.10428927680798004,0.00928597798352902,
0.10433915211970075,0.012239331624733433,
0.10438902743142145,0.006568533265730373,
0.10443890274314215,-0.00578115491521413,
0.10448877805486284,0.01974331737844478,
0.10453865336658354,-0.0028724834476698833,
0.10458852867830425,-0.013033781514702025,
0.10463840399002494,-0.008781070327679129,
0.10468827930174564,0.0031265703428889624,
0.10473815461346633,0.012033060475112937,
0.10478802992518703,0.006814074541887646,
0.10483790523690772,0.006602868865212937,
0.10488778054862843,-0.009231185080594027,
0.10493765586034913,0.012352875714363887,
0.10498753117206983,-0.0040904469564790715,
0.10503740648379052,-0.012595916397899452,
0.10508728179551122,-0.03333227158579319,
0.10513715710723193,0.004163997103849041,
0.10518703241895262,-0.013938065090146591,
0.10523690773067332,-0.021688057314339503,
0.10528678304239401,-0.02481302166649403,
0.10533665835411471,0.007585416802650192,
0.1053865336658354,-0.0034986182764208964,
0.10543640897755611,0.0014116104854536501,
0.10548628428927681,-0.009765553321105614,
0.1055361596009975,-0.006115796927366463,
0.1055860349127182,-0.007563999032310999,
0.1056359102244389,-0.024556785578307493,
0.10568578553615961,0.0049033250527829395,
0.1057356608478803,-0.020399838755468344,
0.105785536159601,-0.0158412785297359,
0.1058354114713217,-0.0023630753501537698,
0.10588528678304239,0.007439452476132705,
0.10593516209476309,-0.017562296591977753,
0.1059850374064838,0.0029727468515574167,
0.10603491271820449,-0.003695411849782098,
0.10608478802992519,-0.012110590858203965,
0.10613466334164588,-0.010230885522808477,
0.10618453865336658,-0.010552786499172146,
0.10623441396508729,-0.005852540065192115,
0.10628428927680798,0.007841563570969042,
0.10633416458852868,-0.005201670947802184,
0.10638403990024937,-0.013812465091508568,
0.10643391521197007,-0.01663167593615815,
0.10648379052369077,-0.00788049732690034,
0.10653366583541148,-0.017253463431132744,
0.10658354114713217,-0.03693152082706316,
0.10663341645885287,0.006809279139088952,
0.10668329177057356,-0.012407382866493967,
0.10673316708229426,-0.013308699895346629,
0.10678304239401497,0.009521289136702187,
0.10683291770573566,-0.018519879276323384,
0.10688279301745636,-0.004535786474885564,
0.10693266832917706,-0.01108812117224742,
0.10698254364089775,-0.0059429215858562015,
0.10703241895261846,-0.020155472901014757,
0.10708229426433916,0.0022771430105526427,
0.10713216957605985,0.015285289050171904,
0.10718204488778055,-0.0254827884706215,
0.10723192019950124,-0.00010274541985211792,
0.10728179551122194,-0.009746348752798766,
0.10733167082294265,-0.006092609761173056,
0.10738154613466334,-0.004705887818830641,
0.10743142144638404,-0.03050774561237364,
0.10748129675810474,-0.02361988248298217,
0.10753117206982543,-0.015446898593989199,
0.10758104738154614,0.006523169508284923,
0.10763092269326684,-0.016408994811591592,
0.10768079800498753,-0.004853875409747106,
0.10773067331670823,-0.011055277747053284,
0.10778054862842892,-0.010889330023388318,
0.10783042394014962,-0.009635457274595397,
0.10788029925187033,-0.024136385496093954,
0.10793017456359102,-0.014229482208914707,
0.10798004987531172,-0.01805147524169426,
0.10802992518703242,-0.012757604784996858,
0.10807980049875311,-0.022062381059068728,
0.10812967581047382,0.015380491056204856,
0.10817955112219452,-0.037436576639605645,
0.10822942643391521,-0.03692418992325225,
0.10827930174563591,-0.005366378925948475,
0.1083291770573566,0.0006277311849959347,
0.1083790523690773,0.012415052605796718,
0.10842892768079801,-0.015559144262058518,
0.1084788029925187,-0.011516742953221634,
0.1085286783042394,-0.004001137224853655,
0.1085785536159601,0.009558527100771822,
0.10862842892768079,-0.03104158706432777,
0.1086783042394015,-0.0084092097156244,
0.1087281795511222,-0.0016275073518201254,
0.1087780548628429,-0.01615530153357069,
0.10882793017456359,-0.004555616116797584,
0.10887780548628428,-0.020150254897102045,
0.108927680798005,0.007448359129596502,
0.10897755610972569,-0.03721828805546175,
0.10902743142144639,-0.014558099415556055,
0.10907730673316708,-0.002015410112133296,
0.10912718204488778,-0.014751719971774878,
0.10917705735660847,0.002507997938944897,
0.10922693266832918,-0.009131935213496008,
0.10927680798004988,-0.005532167810001047,
0.10932668329177057,-0.0014412196583222237,
0.10937655860349127,-0.010563218589713609,
0.10942643391521197,-0.034462244443010145,
0.10947630922693267,0.016800616059377826,
0.10952618453865337,0.011175843112875715,
0.10957605985037407,0.001679751649051462,
0.10962593516209476,-0.01445438303853714,
0.10967581047381546,-0.0021445213150681607,
0.10972568578553615,-0.034579006095386736,
0.10977556109725686,-0.03195003185977254,
0.10982543640897756,0.027819270374463263,
0.10987531172069825,-0.026743768545171888,
0.10992518703241895,-0.012513398881910826,
0.10997506234413965,-0.005608484104627361,
0.11002493765586036,-0.0024060350448601147,
0.11007481296758105,-0.007393965584609168,
0.11012468827930175,-0.012722972684862346,
0.11017456359102244,-0.008500207819625188,
0.11022443890274314,0.01028208068014511,
0.11027431421446383,0.003021624783121431,
0.11032418952618454,0.0038918362209487533,
0.11037406483790524,-0.03519959146385981,
0.11042394014962593,0.0019947474178351535,
0.11047381546134663,-0.0037635480058865432,
0.11052369077306733,-0.014970837340462844,
0.11057356608478804,0.02241669323959785,
0.11062344139650873,-0.02699672946162428,
0.11067331670822943,-0.005241939561608617,
0.11072319201995012,0.01324523246142774,
0.11077306733167082,-0.0019003281031725631,
0.11082294264339151,-0.033417375127181285,
0.11087281795511222,0.017877140494069355,
0.11092269326683292,-0.029014152417791816,
0.11097256857855362,-0.021175511068734124,
0.11102244389027431,0.011539086757991531,
0.111072319201995,-0.01715364956597813,
0.11112219451371572,-0.006271339360866228,
0.11117206982543641,-0.016781109190345242,
0.11122194513715711,-0.0008117313161772708,
0.1112718204488778,0.016337778902891745,
0.1113216957605985,-0.025015434116898643,
0.11137157107231921,0.002584700764229597,
0.1114214463840399,-0.02660174271334661,
0.1114713216957606,0.031002670673799176,
0.1115211970074813,-0.014034740207795049,
0.11157107231920199,0.008511873301887326,
0.11162094763092269,0.004761861525214115,
0.1116708229426434,0.0026891439684424523,
0.11172069825436409,-0.005635405407889696,
0.11177057356608479,-0.019288410445402734,
0.11182044887780548,0.023652096271718426,
0.11187032418952618,-0.012304574651482597,
0.11192019950124689,0.0003750497833954667,
0.11197007481296758,-0.0027486992336903443,
0.11201995012468828,0.01749889335073066,
0.11206982543640898,0.03717336936552833,
0.11211970074812967,-0.006859127071869492,
0.11216957605985037,0.005761368087192891,
0.11221945137157108,0.02010931933763642,
0.11226932668329177,0.024258045178805844,
0.11231920199501247,0.0022748582123118355,
0.11236907730673316,0.003155218364203425,
0.11241895261845386,0.024477209548952435,
0.11246882793017457,-0.022147014223239808,
0.11251870324189527,0.01952762438263588,
0.11256857855361596,-0.005819122937837861,
0.11261845386533666,0.008718291858371922,
0.11266832917705735,0.007736589443630872,
0.11271820448877805,-0.001990972189469872,
0.11276807980049876,0.012094491578246996,
0.11281795511221945,0.002379274570069265,
0.11286783042394015,0.023243459636171693,
0.11291770573566084,-0.00311478350477655,
0.11296758104738154,-0.006993792310543206,
0.11301745635910225,0.010680516359049388,
0.11306733167082295,0.00824372781537478,
0.11311720698254364,0.032315346141030515,
0.11316708229426434,0.00958113825026952,
0.11321695760598503,0.010263046118958827,
0.11326683291770574,-0.007537329410896774,
0.11331670822942644,0.013800098336099903,
0.11336658354114713,-0.005903777116067939,
0.11341645885286783,0.008725080394684842,
0.11346633416458853,-0.0019003816824417954,
0.11351620947630922,0.019873515566295397,
0.11356608478802993,0.010844768036295674,
0.11361596009975063,0.030040968670724765,
0.11366583541147132,-0.0019608886870033874,
0.11371571072319202,0.013971973857497197,
0.11376558603491271,0.015568214958913619,
0.11381546134663342,0.011716034554699464,
0.11386533665835412,0.030469594245640115,
0.11391521197007481,0.013415785208039252,
0.11396508728179551,-0.0009005628768379362,
0.1140149625935162,0.021065480205488717,
0.1140648379052369,0.04219099278393337,
0.11411471321695761,0.005400668850289631,
0.1141645885286783,0.014868750145499876,
0.114214463840399,0.01926993684033042,
0.1142643391521197,0.03060358876437986,
0.1143142144638404,0.02804741512988526,
0.1143640897755611,0.01894270165367166,
0.1144139650872818,0.01109840194896175,
0.1144638403990025,0.01062186095881916,
0.11451371571072319,0.02516235063507485,
0.11456359102244389,0.007558749596932465,
0.11461346633416458,-0.002176283964160655,
0.11466334164588529,0.015414663405653017,
0.11471321695760599,0.011340464547573618,
0.11476309226932668,0.01365735812371199,
0.11481296758104738,0.02766791403057043,
0.11486284289276807,0.021333516142940847,
0.11491271820448878,0.016697924589462104,
0.11496259351620948,0.0026512844359154915,
0.11501246882793018,0.01467481084256846,
0.11506234413965087,-0.0033082444103003997,
0.11511221945137157,0.009594296257940284,
0.11516209476309226,0.009392288243420322,
0.11521197007481297,0.021878776140461593,
0.11526184538653367,0.02281707137260664,
0.11531172069825436,0.0184161104426941,
0.11536159600997506,0.005330568087122987,
0.11541147132169575,-0.0031814834818455727,
0.11546134663341646,0.043122030021890786,
0.11551122194513716,0.010426519601262126,
0.11556109725685786,0.019007258094146405,
0.11561097256857855,0.01632455950452637,
0.11566084788029925,0.03669891436582784,
0.11571072319201996,0.028362467524613848,
0.11576059850374065,0.013441586524642037,
0.11581047381546135,0.032126788180991,
0.11586034912718204,0.004296647770253549,
0.11591022443890274,0.02326721886287087,
0.11596009975062344,-0.020082546076329776,
0.11600997506234415,0.029854240806398747,
0.11605985037406484,0.018962305531806282,
0.11610972568578554,0.022108900219926463,
0.11615960099750623,0.043800912453403035,
0.11620947630922693,0.014595557839675408,
0.11625935162094764,0.015405739196154036,
0.11630922693266833,0.003836102145915829,
0.11635910224438903,0.02703260550026801,
0.11640897755610972,0.02544207885953827,
0.11645885286783042,0.037538084250007174,
0.11650872817955112,0.026219607645976202,
0.11655860349127183,0.03190950102027395,
0.11660847880299252,0.03484136797071076,
0.11665835411471322,0.03257890776512988,
0.11670822942643391,0.025307412686252372,
0.11675810473815461,0.03545442632445408,
0.11680798004987532,0.0371853618318466,
0.11685785536159601,0.04265953755701897,
0.11690773067331671,0.061920972003334566,
0.1169576059850374,0.01284015086581746,
0.1170074812967581,0.035684180647669594,
0.1170573566084788,0.02777208588239638,
0.1171072319201995,0.031107026257923946,
0.1171571072319202,0.03953320070551599,
0.1172069825436409,0.03158578924832989,
0.1172568578553616,0.0123430427518379,
0.11730673316708229,0.02057075716350431,
0.117356608478803,0.03704883416996089,
0.1174064837905237,0.016878692597149376,
0.11745635910224439,0.012032051695082452,
0.11750623441396509,0.02405585967750529,
0.11755610972568578,0.006973144334570188,
0.11760598503740648,0.01725933654286688,
0.11765586034912719,0.057808194206049913,
0.11770573566084788,0.020551118788066584,
0.11775561097256858,0.034517996070957124,
0.11780548628428927,0.016417977817328934,
0.11785536159600997,0.0382456497997119,
0.11790523690773068,0.024878816532248,
0.11795511221945137,0.040672601455647495,
0.11800498753117207,0.023975807934505263,
0.11805486284289277,0.02179183962310324,
0.11810473815461346,0.026521326340200154,
0.11815461346633417,0.028851147659886736,
0.11820448877805487,0.0321913350795217,
0.11825436408977556,0.018316732418885213,
0.11830423940149626,0.015229571002726004,
0.11835411471321695,0.007467592085527216,
0.11840399002493765,0.019819046299448324,
0.11845386533665836,0.003204285908306112,
0.11850374064837906,0.009336590186319087,
0.11855361596009975,0.024838402372944313,
0.11860349127182045,0.037181953649529004,
0.11865336658354114,0.023279637183431054,
0.11870324189526185,0.05816403293874115,
0.11875311720698255,0.032764048827123915,
0.11880299251870324,0.031184842847101654,
0.11885286783042394,0.011071053873761866,
0.11890274314214463,0.036683628939823146,
0.11895261845386533,0.0365131597541386,
0.11900249376558604,0.013552930899834554,
0.11905236907730674,0.028258550855349496,
0.11910224438902743,0.05050889094752181,
0.11915211970074813,0.03136623765521576,
0.11920199501246882,0.040081899137196314,
0.11925187032418953,0.02213861317559452,
0.11930174563591023,0.0007591248465954846,
0.11935162094763092,0.034175041316284155,
0.11940149625935162,0.024456461557358682,
0.11945137157107232,0.030303791091664024,
0.11950124688279301,0.027254772590644866,
0.11955112219451372,0.014610334330074916,
0.11960099750623442,0.027197264082684705,
0.11965087281795511,0.01656466387291687,
0.11970074812967581,0.010483793055991166,
0.1197506234413965,0.03750226970746999,
0.11980049875311721,0.012917691752152174,
0.11985037406483791,0.02320200025380133,
0.1199002493765586,0.011919057213881886,
0.1199501246882793,0.04675694444736134,
0.12,0.032227019093978,
0.1200498753117207,0.009776331704254215,
0.1200997506234414,0.024589796638328148,
0.1201496259351621,0.024670506077870157,
0.12019950124688279,0.025713782903536056,
0.12024937655860349,0.014623012377601682,
0.12029925187032418,0.013595325355479118,
0.1203491271820449,0.04567419762381981,
0.12039900249376559,0.009827926767069364,
0.12044887780548628,0.007406056933628169,
0.12049875311720698,-0.004555036188377642,
0.12054862842892768,0.01880386561120704,
0.12059850374064839,0.003035542712119376,
0.12064837905236908,0.05511785102283974,
0.12069825436408978,0.0014921758844301664,
0.12074812967581047,0.010143244849672679,
0.12079800498753117,0.0540294503405352,
0.12084788029925186,0.03738603526893921,
0.12089775561097257,-0.0064702777208509275,
0.12094763092269327,0.02085789967287858,
0.12099750623441397,0.02399561615669772,
0.12104738154613466,0.005383982336313349,
0.12109725685785536,0.029129158111793316,
0.12114713216957607,-0.0017104762569690214,
0.12119700748129676,-0.006277451465133109,
0.12124688279301746,0.033327646914457776,
0.12129675810473815,0.027353839827314055,
0.12134663341645885,0.046118475394427524,
0.12139650872817954,0.01660898386198774,
0.12144638403990025,0.04131614237026261,
0.12149625935162095,0.009235573025805273,
0.12154613466334165,0.034586581928732846,
0.12159600997506234,0.045063786864632346,
0.12164588528678304,0.0030637772590968795,
0.12169576059850375,-0.010341884125940129,
0.12174563591022444,0.019538353118172598,
0.12179551122194514,0.018878189796614448,
0.12184538653366583,0.013263108750297029,
0.12189526184538653,0.02985946487319934,
0.12194513715710723,-0.001802672802418838,
0.12199501246882793,0.012931736463603287,
0.12204488778054863,0.0028662158162917895,
0.12209476309226933,0.03861527657617863,
0.12214463840399002,0.025482544142029426,
0.12219451371571072,0.0029347691224829633,
0.12224438902743143,0.013948119556362283,
0.12229426433915212,0.010375542567345316,
0.12234413965087282,-0.007109159840189949,
0.12239401496259351,0.03619929008651959,
0.12244389027431421,0.005629694084122962,
0.12249376558603492,0.05807768584521403,
0.12254364089775562,0.012007021495113743,
0.12259351620947631,0.02990502442264125,
0.122643391521197,0.011319722239719637,
0.1226932668329177,0.015199264106986073,
0.1227431421446384,0.004035328238981223,
0.12279301745635911,-0.016977177870702936,
0.1228428927680798,0.034718570088524706,
0.1228927680798005,0.0001951140318138412,
0.1229426433915212,0.031031282472043092,
0.12299251870324189,0.040134272347482375,
0.1230423940149626,-0.0014042290154004707,
0.1230922693266833,-0.004532741728778392,
0.12314214463840399,-0.0009042389097740702,
0.12319201995012469,-0.02112083495893983,
0.12324189526184538,0.01240238580726477,
0.12329177057356608,0.02633529503725669,
0.12334164588528679,-0.007595642172690445,
0.12339152119700748,0.013341740253141188,
0.12344139650872818,0.0025963447994761975,
0.12349127182044888,0.0023873249746138034,
0.12354114713216957,0.0050955193553225185,
0.12359102244389028,0.01005891343608978,
0.12364089775561098,-0.004792409759437436,
0.12369077306733167,0.004651406121338754,
0.12374064837905237,-0.004845907484874627,
0.12379052369077306,0.005797086993000157,
0.12384039900249376,-0.010203010407024829,
0.12389027431421447,0.016921715710533157,
0.12394014962593516,-0.002243127172709963,
0.12399002493765586,-0.016047669652259924,
0.12403990024937656,-0.0008153357080869449,
0.12408977556109725,0.0010058814669223783,
0.12413965087281796,-0.005514480031250875,
0.12418952618453866,-0.022634516699897266,
0.12423940149625935,-0.0006898247511023746,
0.12428927680798005,0.0034123270163063887,
0.12433915211970074,0.007035161391807213,
0.12438902743142144,0.015622059811387845,
0.12443890274314215,0.007654477783011024,
0.12448877805486284,0.004813980280512769,
0.12453865336658354,0.00813405651788551,
0.12458852867830424,-0.009169263618474848,
0.12463840399002493,0.013073706293837502,
0.12468827930174564,-0.0023510319207612675,
0.12473815461346634,-0.004313761447506791,
0.12478802992518703,-0.020421551997204357,
0.12483790523690773,0.004656250171294578,
0.12488778054862842,0.0028297274971009713,
0.12493765586034913,0.008681239087975214,
0.12498753117206983,-0.02349522312980938,
0.12503740648379053,0.00781519036930851,
0.12508728179551123,-0.005878992728181732,
0.12513715710723192,-0.016891538813842533,
0.12518703241895263,-0.010616995876217125,
0.1252369077306733,-0.01616181601487277,
0.12528678304239402,0.0007953265179906945,
0.1253366583541147,-0.01089917960882342,
0.1253865336658354,-0.005829871760060417,
0.12543640897755612,-0.011817096085024046,
0.1254862842892768,-0.006918349362825503,
0.1255361596009975,-0.022286490718487102,
0.1255860349127182,-0.035586852954639404,
0.1256359102244389,0.03424414051473052,
0.1256857855361596,-0.0052987488436774775,
0.1257356608478803,0.0382135207808581,
0.125785536159601,-0.00737979727537092,
0.12583541147132168,-0.006899628553072135,
0.1258852867830424,-0.011040142000282447,
0.1259351620947631,0.0015839676356655206,
0.12598503740648379,-0.005546130926942126,
0.1260349127182045,-0.027393740434083998,
0.12608478802992518,-0.023251186343936303,
0.1261346633416459,-0.025805215275764536,
0.1261845386533666,-0.006139334429769552,
0.12623441396508728,-0.005612820189789666,
0.126284289276808,-0.006472237344914498,
0.12633416458852867,-0.019028461302570764,
0.12638403990024938,-0.026618595071213773,
0.1264339152119701,0.008491804998711654,
0.12648379052369077,-0.005687052194990302,
0.12653366583541148,-0.00020341155530381738,
0.12658354114713216,0.00532760295206269,
0.12663341645885287,-0.039870222780870344,
0.12668329177057355,-0.008348995837814007,
0.12673316708229426,0.007370581362704654,
0.12678304239401497,-0.028035145173601395,
0.12683291770573565,-0.02658789359537156,
0.12688279301745636,-0.02701008260091673,
0.12693266832917705,-0.032786604652056184,
0.12698254364089775,-0.0013120121156714182,
0.12703241895261846,-0.007233721635426913,
0.12708229426433915,-0.028919034131201414,
0.12713216957605986,-0.03779169245581192,
0.12718204488778054,-0.023243248210065015,
0.12723192019950125,0.005637835182527513,
0.12728179551122196,-0.028251655614228148,
0.12733167082294264,-0.03701205743943328,
0.12738154613466335,-0.013268409172848456,
0.12743142144638403,-0.0295715490115809,
0.12748129675810474,0.013795943638579396,
0.12753117206982545,-0.009503044988021918,
0.12758104738154613,-0.017557319528857106,
0.12763092269326684,-0.01735226991079651,
0.12768079800498752,-0.020878072795744558,
0.12773067331670823,-0.019415145394610336,
0.1277805486284289,0.024213096050608677,
0.12783042394014962,0.002367777063915475,
0.12788029925187033,-0.015336020545329978,
0.12793017456359101,-0.008833099746212384,
0.12798004987531172,-0.023316337236848936,
0.1280299251870324,0.0029567512060498097,
0.12807980049875312,-0.06273051103512046,
0.12812967581047383,-0.021207850280175605,
0.1281795511221945,-0.028741775082758936,
0.12822942643391522,0.0006326115570902159,
0.1282793017456359,-0.013073957674267203,
0.1283291770573566,-0.039325239563593545,
0.12837905236907732,-0.014892869137414933,
0.128428927680798,-0.01350437259948169,
0.1284788029925187,0.008826031738159608,
0.1285286783042394,-0.009155108556487214,
0.1285785536159601,-0.014004169609182257,
0.1286284289276808,-0.01250081283370029,
0.1286783042394015,-0.04764065788230574,
0.1287281795511222,-0.025554226166852562,
0.12877805486284288,-0.042769599811655096,
0.1288279301745636,0.017179333383138564,
0.1288778054862843,-0.02025379966683554,
0.12892768079800498,-0.003187842278574245,
0.1289775561097257,-0.02816067361113439,
0.12902743142144638,-0.0186357154227826,
0.12907730673316709,-0.01767872638660674,
0.12912718204488777,-0.004705688594152442,
0.12917705735660848,-0.014768214432451025,
0.1292269326683292,-0.022217833400469657,
0.12927680798004987,-0.04316647262404942,
0.12932668329177058,0.021245974246199867,
0.12937655860349126,-0.01992615334447992,
0.12942643391521197,-0.01783320966986888,
0.12947630922693268,-0.020535571603863524,
0.12952618453865336,0.00935653411578924,
0.12957605985037407,-0.02148743497201699,
0.12962593516209475,-0.01866685276450939,
0.12967581047381546,-0.008090181143892788,
0.12972568578553617,0.007239203179561872,
0.12977556109725685,-0.011067748197013614,
0.12982543640897756,-0.009917283052967144,
0.12987531172069824,-0.01221721468831077,
0.12992518703241895,-0.017332093630590392,
0.12997506234413966,0.017654835045468338,
0.13002493765586035,-0.022064029226980086,
0.13007481296758105,-0.003693667261481648,
0.13012468827930174,-0.01792163337272957,
0.13017456359102245,-0.0003105300577751881,
0.13022443890274316,-0.009919233459204927,
0.13027431421446384,-0.005167805898230212,
0.13032418952618455,-0.007299142822125537,
0.13037406483790523,-0.024956798397464335,
0.13042394014962594,-0.00912963666404181,
0.13047381546134662,-0.0352478274181041,
0.13052369077306733,-0.004421040802418753,
0.13057356608478804,-0.015123314290513489,
0.13062344139650872,-0.01065987801498426,
0.13067331670822943,-0.006641729130814622,
0.1307231920199501,-0.004594945382297569,
0.13077306733167082,-0.04123154438221134,
0.13082294264339153,-0.01196141782000868,
0.13087281795511221,-0.00212760559732413,
0.13092269326683292,0.017836955514606914,
0.1309725685785536,0.03330635788492135,
0.13102244389027431,0.024609293827260924,
0.13107231920199502,-0.015965663540773323,
0.1311221945137157,0.0036021613329827173,
0.13117206982543642,0.012551131307797447,
0.1312219451371571,0.006137021483966272,
0.1312718204488778,-0.004061000157422906,
0.13132169576059852,0.001296954457080223,
0.1313715710723192,0.003378283609705062,
0.1314214463840399,-0.011273841872670809,
0.1314713216957606,0.0023028700131659365,
0.1315211970074813,-0.01986298464907239,
0.13157107231920198,0.034781690609005794,
0.1316209476309227,-0.005832411948403251,
0.1316708229426434,0.008491507008300286,
0.13172069825436408,0.004119256499037686,
0.1317705735660848,0.0029348009354992523,
0.13182044887780547,0.010571638939307735,
0.13187032418952618,0.018597278876797144,
0.1319201995012469,0.003629105389254371,
0.13197007481296757,0.014675408181125331,
0.13201995012468828,0.010008966348486432,
0.13206982543640897,-0.016108644647528043,
0.13211970074812968,0.003999124426964723,
0.13216957605985039,0.000619931846027798,
0.13221945137157107,0.013455198159860501,
0.13226932668329178,0.015066840264874645,
0.13231920199501246,0.006775761553896893,
0.13236907730673317,0.011095560867680973,
0.13241895261845388,0.007988005494234588,
0.13246882793017456,-0.002607687135203365,
0.13251870324189527,0.02497584486601019,
0.13256857855361595,0.015592382546865577,
0.13261845386533666,0.0357842643685282,
0.13266832917705737,0.00477052025487963,
0.13271820448877805,-0.0007818425031471711,
0.13276807980049876,-0.02342551930739146,
0.13281795511221944,0.043263685449762994,
0.13286783042394015,0.016951216419216198,
0.13291770573566083,0.021197937609935533,
0.13296758104738154,0.035481104917406595,
0.13301745635910225,0.012362479123652919,
0.13306733167082294,-8.59269811964887e-05,
0.13311720698254365,0.02445426721932476,
0.13316708229426433,0.00776580124707908,
0.13321695760598504,-0.015765195576315914,
0.13326683291770575,0.03459451096713388,
0.13331670822942643,-0.004297825712548092,
0.13336658354114714,0.001388576350358611,
0.13341645885286782,0.02446784317295254,
0.13346633416458853,-0.017085661867328905,
0.13351620947630924,0.014787413320321288,
0.13356608478802992,0.01746519860861465,
0.13361596009975063,0.030028452270542356,
0.1336658354114713,0.0233703237302139,
0.13371571072319202,0.02550895028483875,
0.13376558603491273,0.028389779727143516,
0.1338154613466334,0.037224962159803116,
0.13386533665835412,0.008610313125231625,
0.1339152119700748,0.0008993786049294236,
0.13396508728179551,0.001987920818896236,
0.1340149625935162,0.025778716248504953,
0.1340648379052369,0.012383765526410483,
0.13411471321695762,0.00795769523881434,
0.1341645885286783,0.033392793654241054,
0.134214463840399,0.02617303977078091,
0.1342643391521197,0.04146081227405754,
0.1343142144638404,0.022331340721509784,
0.1343640897755611,0.02675016383829732,
0.1344139650872818,0.012734482036282368,
0.1344638403990025,-0.01266989331007997,
0.13451371571072318,0.011359632644278523,
0.1345635910224439,0.008677968960656845,
0.1346134663341646,-0.00028479167089349305,
0.13466334164588528,0.022883312527592868,
0.134713216957606,0.03436439904458526,
0.13476309226932667,0.013847887565767889,
0.13481296758104738,0.027022695765208018,
0.1348628428927681,0.012779756795481736,
0.13491271820448877,0.019350908214623996,
0.13496259351620948,0.01289379539093894,
0.13501246882793017,0.026701583735932413,
0.13506234413965088,0.0312008654637763,
0.13511221945137158,0.048398685413750066,
0.13516209476309227,0.014367898643653182,
0.13521197007481298,0.01999058596998042,
0.13526184538653366,0.04034376211242399,
0.13531172069825437,0.018587377563996196,
0.13536159600997505,0.031467626189115104,
0.13541147132169576,0.01658877856783708,
0.13546134663341647,0.03029704788357756,
0.13551122194513715,0.0335577778687934,
0.13556109725685786,0.04438075816884179,
0.13561097256857854,0.013578669835957997,
0.13566084788029925,0.03258449830654336,
0.13571072319201996,0.023326078114089377,
0.13576059850374064,0.0010536015340961158,
0.13581047381546135,0.016487944668944758,
0.13586034912718203,0.014831273626170703,
0.13591022443890274,0.032670064784089556,
0.13596009975062345,0.013302418375725268,
0.13600997506234414,0.02798537041149119,
0.13605985037406484,0.026991960686231845,
0.13610972568578553,0.03669858418963124,
0.13615960099750624,0.019983011613514543,
0.13620947630922695,0.005108671681858183,
0.13625935162094763,0.04136911035040952,
0.13630922693266834,0.019211992170064904,
0.13635910224438902,0.04427286229268972,
0.13640897755610973,0.027646421588014905,
0.1364588528678304,0.029122686011528655,
0.13650872817955112,0.0373517647254175,
0.13655860349127183,0.038016799563456743,
0.1366084788029925,0.02735980273795793,
0.13665835411471322,0.02210130825819677,
0.1367082294264339,0.028070861171443855,
0.1367581047381546,0.001782540124091271,
0.13680798004987532,0.043697581828752184,
0.136857855361596,0.016191813702052107,
0.1369077306733167,0.021496318856498314,
0.1369576059850374,0.023323759066332383,
0.1370074812967581,0.034999167995521684,
0.13705735660847881,0.027517893433364717,
0.1371072319201995,0.03955311679045618,
0.1371571072319202,0.0373778004591123,
0.1372069825436409,0.017486397308163315,
0.1372568578553616,0.017635484202059248,
0.1373067331670823,0.025792563463175506,
0.137356608478803,0.040652296287826246,
0.1374064837905237,0.03801913804919037,
0.13745635910224438,0.03954732315547464,
0.1375062344139651,0.026203807033840096,
0.1375561097256858,0.045169812137768134,
0.13760598503740648,0.03537435876274224,
0.1376558603491272,0.021322483089096247,
0.13770573566084787,0.026267055756101308,
0.13775561097256858,0.04242968845444582,
0.13780548628428926,0.05281381572203063,
0.13785536159600997,0.0043298818093285805,
0.13790523690773068,0.034270510810691,
0.13795511221945136,0.006214144885366698,
0.13800498753117207,0.01904939568018052,
0.13805486284289276,0.03729796377405668,
0.13810473815461347,0.032001350371889864,
0.13815461346633418,0.018055226130858006,
0.13820448877805486,0.023642617468843066,
0.13825436408977557,0.044150750005698194,
0.13830423940149625,0.031359486483190015,
0.13835411471321696,0.030110967363297048,
0.13840399002493767,0.04538567039050978,
0.13845386533665835,0.041696617250293735,
0.13850374064837906,0.024233688764897954,
0.13855361596009974,0.03912845193595657,
0.13860349127182045,0.026070907413618373,
0.13865336658354116,0.03125257733997456,
0.13870324189526184,0.003986413406063375,
0.13875311720698255,0.021147654072720127,
0.13880299251870323,0.03191702253685964,
0.13885286783042394,0.012688635030956321,
0.13890274314214462,0.02448257196113194,
0.13895261845386533,0.0051981309198610125,
0.13900249376558604,0.039768367120574355,
0.13905236907730673,0.050035383665290645,
0.13910224438902744,0.013910808225791186,
0.13915211970074812,0.005184414472301429,
0.13920199501246883,0.036903885542822555,
0.13925187032418954,0.03237878632748548,
0.13930174563591022,0.03526526931861046,
0.13935162094763093,0.038930045994157496,
0.1394014962593516,0.03036429916062005,
0.13945137157107232,0.04863917507831814,
0.13950124688279303,0.05019067919239553,
0.1395511221945137,0.05655432350196908,
0.13960099750623442,0.05863080569860567,
0.1396508728179551,0.016826731594266148,
0.1397007481296758,0.04343693811176315,
0.13975062344139652,0.030072176086108432,
0.1398004987531172,-0.001597728312556012,
0.1398503740648379,0.03465771416577361,
0.1399002493765586,0.01598483375194938,
0.1399501246882793,0.026512561957801016,
0.14,0.009229151918723876,
0.1400498753117207,0.045731747067315504,
0.1400997506234414,0.012522165918104814,
0.1401496259351621,0.014704604738054784,
0.1401995012468828,0.042673130760774294,
0.14024937655860348,0.02949060335193623,
0.1402992518703242,0.052075004227786,
0.1403491271820449,0.03827038129398283,
0.14039900249376558,0.04123186534823493,
0.1404488778054863,0.008869698529695241,
0.14049875311720697,0.029524832557783546,
0.14054862842892768,0.0514906454428972,
0.1405985037406484,0.007521964465621023,
0.14064837905236907,0.02376663110719331,
0.14069825436408978,0.021884519642285046,
0.14074812967581046,0.02725672432598401,
0.14079800498753117,0.03432522236692102,
0.14084788029925188,0.024689744144803977,
0.14089775561097256,0.05282218156831312,
0.14094763092269327,-0.013167824955018864,
0.14099750623441396,-0.018380098583991693,
0.14104738154613466,0.01791072039126958,
0.14109725685785537,0.04054091765853364,
0.14114713216957606,0.018791401032719163,
0.14119700748129677,0.014553117623406187,
0.14124688279301745,-0.007892393851624636,
0.14129675810473816,0.015748996433352373,
0.14134663341645887,0.012122416604214393,
0.14139650872817955,0.017247275077455028,
