time,amplitude,label
0.0,0.006093063762499146,
4.987531172069826e-05,-0.002344435956113971,
9.975062344139652e-05,-0.010892210592909325,
0.00014962593516209475,0.02049988238525696,
0.00019950124688279303,-0.01447159780603811,
0.00024937655860349125,0.011064961184115204,
0.0002992518703241895,-0.01487242524203507,
0.00034912718204488776,0.00585408407089057,
0.00039900249376558606,0.012406956618760172,
0.0004488778054862843,-0.007787948693495878,
0.0004987531172069825,-0.0045375643414127045,
0.0005486284289276808,0.02201526830198289,
0.000598503740648379,-0.039376900248068995,
0.0006483790523690773,0.009300266165533103,
0.0006982543640897755,-0.008317104976771189,
0.0007481296758104738,-0.004413026396579181,
0.0007980049875311721,0.0024211633907195327,
0.0008478802992518703,0.0002943785911186438,
0.0008977556109725686,-0.014059568493806534,
0.0009476309226932668,-0.01597167462940647,
0.000997506234413965,0.008636012458202435,
0.0010473815461346633,0.010524804400590677,
0.0010972568578553616,0.023475161585451362,
0.00114713216957606,-0.0029312627194149005,
0.001197007481296758,0.023181458507162342,
0.0012468827930174563,0.00859128209205278,
0.0012967581047381546,-0.008812287190259142,
0.001346633416458853,0.023540674800567905,
0.001396508728179551,0.0022451010048696583,
0.0014463840399002493,-0.023749359776487764,
0.0014962593516209476,0.0005801334558012535,
0.001546134663341646,0.00614579331807402,
0.0015960099750623442,-0.0004638571942416356,
0.0016458852867830423,-0.003723431258415279,
0.0016957605985037406,0.006532875514747914,
0.001745635910224439,0.005446666993165004,
0.0017955112219451373,0.004296261878904587,
0.0018453865336658353,-0.011364251319462101,
0.0018952618453865336,-0.018745361649520363,
0.001945137157107232,0.011482884765858738,
0.00199501246882793,-0.00797497679243496,
0.0020448877805486283,0.009593610687360804,
0.0020947630922693266,-0.006089529615874571,
0.002144638403990025,-0.01523040585877383,
0.0021945137157107233,0.008822451098711668,
0.0022443890274314216,0.005147431563513206,
0.00229426433915212,-0.009855155747622045,
0.0023441396508728177,-0.007319986450057806,
0.002394014962593516,0.00048057182919650394,
0.0024438902743142144,0.016745836837511123,
0.0024937655860349127,0.037637919106620246,
0.002543640897755611,0.019678901957624013,
0.0025935162094763093,0.026204390592337604,
0.0026433915211970076,-0.008330661564363366,
0.002693266832917706,-0.0024159733665132244,
0.002743142144638404,0.043491252682510737,
0.002793017456359102,-0.013674652746344147,
0.0028428927680798004,0.01685665814082302,
0.0028927680798004987,0.018504158485562743,
0.002942643391521197,-0.0046879630148849525,
0.0029925187032418953,0.014925845170476404,
0.0030423940149625936,0.0017806307768674819,
0.003092269326683292,0.021410023771055026,
0.00314214463840399,0.015369399027850955,
0.0031920199501246885,0.039045036825001385,
0.0032418952618453864,0.005204681378877685,
0.0032917705735660847,-0.011415369682414299,
0.003341645885286783,0.021609341275607687,
0.0033915211970074813,0.022533182042665564,
0.0034413965087281796,0.027732216015150805,
0.003491271820448878,0.004953621218038797,
0.003541147132169576,0.019057441508104844,
0.0035910224438902745,0.02420085464245691,
0.0036408977556109724,0.0215292805664547,
0.0036907730673316707,-0.0027106099385366417,
0.003740648379052369,0.01691014944373985,
0.0037905236907730673,0.003781353005550131,
0.0038403990024937656,0.026182014990643224,
0.003890274314214464,0.02407570181702038,
0.003940149625935162,0.014624343640767156,
0.00399002493765586,0.009639943045466792,
0.004039900249376558,-0.008980297317356091,
0.004089775561097257,0.011918431517263602,
0.004139650872817955,-0.0036402929494527766,
0.004189526184538653,0.01730410122659342,
0.004239401496259352,0.008475838305211814,
0.00428927680798005,0.002493551555236685,
0.004339152119700748,0.03409871090355471,
0.0043890274314214465,0.022811211222984466,
0.004438902743142145,0.027578510630897057,
0.004488778054862843,0.01886455727352872,
0.004538653366583541,0.0019170255508428706,
0.00458852867830424,-0.0010668604453586868,
0.004638403990024938,0.023732200588987735,
0.0046882793017456355,0.0040957725787309236,
0.004738154613466334,0.0399242439287802,
0.004788029925187032,0.04456359697557703,
0.00483790523690773,0.010636992406226219,
0.004887780548628429,0.023574123421631593,
0.004937655860349127,0.011178731240397748,
0.004987531172069825,0.02734404180964511,
0.005037406483790524,0.013294469266703496,
0.005087281795511222,0.008530531356914228,
0.00513715710723192,0.04443688117800605,
0.0051870324189526185,0.016577698067795823,
0.005236907730673317,0.047246057324296334,
0.005286783042394015,0.029464773888428435,
0.0053366583541147134,-0.0009020732956052553,
0.005386533665835412,-0.007672836967611028,
0.00543640897755611,0.012354377528540319,
0.005486284289276808,0.0055680299551061786,
0.005536159600997507,0.024450746223956682,
0.005586034912718204,0.02751647808888142,
0.005635910224438902,-0.0022342902280413184,
0.005685785536159601,0.02004460042357429,
0.005735660847880299,-0.0009041257344962715,
0.005785536159600997,0.03862497131690283,
0.005835411471321696,0.0430236539642143,
0.005885286783042394,0.01704516585448934,
0.005935162094763092,0.017373020251204113,
0.0059850374064837905,0.03385245475006847,
0.006034912718204489,0.015539731093128882,
0.006084788029925187,0.006276062946568807,
0.0061346633416458855,0.003079971407213368,
0.006184538653366584,0.032099904854361,
0.006234413965087282,0.0006295984641866668,
0.00628428927680798,0.009087246918047742,
0.006334164588528679,0.0018149679346943018,
0.006384039900249377,0.03195646074731909,
0.006433915211970074,0.021552236438210862,
0.006483790523690773,0.03449151692271499,
0.006533665835411471,0.01205561732997132,
0.006583541147132169,0.022143888143683472,
0.006633416458852868,0.010166179445721348,
0.006683291770573566,0.017170285265374972,
0.006733167082294264,0.038758534736941866,
0.0067830423940149626,0.0003375775915154984,
0.006832917705735661,-0.00016588455468521252,
0.006882793017456359,0.0285025121105123,
0.0069326683291770575,0.03154630017533221,
0.006982543640897756,0.035890904130359294,
0.007032418952618454,0.02160435284216716,
0.007082294264339152,0.00731066965627835,
0.007132169576059851,0.0334212270979449,
0.007182044887780549,-0.004252346100931916,
0.007231920199501247,0.02601664157977935,
0.007281795511221945,0.0042750333490026455,
0.007331670822942643,0.021658589067158982,
0.007381546134663341,0.03660983695673506,
0.00743142144638404,0.016962873961545347,
0.007481296758104738,0.02972870106536401,
0.007531172069825436,0.04163675164184358,
0.007581047381546135,0.021196467508513655,
0.007630922693266833,0.001177299742377614,
0.007680798004987531,0.01581232124413612,
0.0077306733167082295,-0.0096638010537865,
0.007780548628428928,0.038781007691241765,
0.007830423940149626,0.039881733496336766,
0.007880299251870324,0.010309151567286064,
0.007930174563591023,0.049493552566050654,
0.00798004987531172,0.0256035459591127,
0.00802992518703242,0.02069989586604844,
0.008079800498753117,0.0005647195964514073,
0.008129675810473816,0.022784402702087675,
0.008179551122194513,0.01408568523477437,
0.008229426433915213,-0.014327761874644625,
0.00827930174563591,0.02157288166145425,
0.00832917705735661,0.018915629991358297,
0.008379052369077307,0.04357001724126421,
0.008428927680798006,0.03313080280007475,
0.008478802992518703,0.03961875163053509,
0.0085286783042394,-0.0031384613325256064,
0.0085785536159601,-0.00441497136436946,
0.008628428927680797,0.00661935000733105,
0.008678304239401496,0.029127033643288405,
0.008728179551122194,0.01970909100877245,
0.008778054862842893,0.010287796462407893,
0.00882793017456359,0.011137082152010652,
0.00887780548628429,0.022766359926467368,
0.008927680798004987,-0.0023201911540114157,
0.008977556109725686,0.011260381182590566,
0.009027431421446384,-0.0003479700178881436,
0.009077306733167083,0.0003009538116115658,
0.00912718204488778,-0.017719986087966398,
0.00917705735660848,0.014843739379085103,
0.009226932668329177,-0.000512804021415814,
0.009276807980049876,0.006274499208540835,
0.009326683291770574,0.04065088552716775,
0.009376558603491271,0.0018748884546002254,
0.00942643391521197,0.002465634094234298,
0.009476309226932668,0.022047561419452032,
0.009526184538653367,0.025934447975588117,
0.009576059850374064,-0.0053495967255534575,
0.009625935162094763,0.019895066739695332,
0.00967581047381546,0.00993936230155106,
0.00972568578553616,0.009139284383802342,
0.009775561097256857,0.0017604926748351095,
0.009825436408977557,0.0047220589178413284,
0.009875311720698254,0.009453360507687766,
0.009925187032418953,-0.008594296200888885,
0.00997506234413965,0.019079263976334505,
0.01002493765586035,0.0053450436037410735,
0.010074812967581047,0.026938085974176473,
0.010124688279301746,0.03883864124862775,
0.010174563591022444,0.010261856467045416,
0.010224438902743141,-0.017282440961074588,
0.01027431421446384,0.017612910751444947,
0.010324189526184538,-0.002337270642825639,
0.010374064837905237,0.013833857400826474,
0.010423940149625935,0.02113183525554275,
0.010473815461346634,-0.017414626941830526,
0.010523690773067331,-0.026567705547810686,
0.01057356608478803,-0.018661339320220967,
0.010623441396508728,-0.01947767860768326,
0.010673316708229427,-0.011132707603773575,
0.010723192019950124,-0.01291015446493586,
0.010773067331670824,0.008626638300034326,
0.010822942643391521,-0.027564195540808092,
0.01087281795511222,0.01818003947616787,
0.010922693266832918,-0.010943851312806447,
0.010972568578553617,0.000218547559188418,
0.011022443890274314,-0.007589169573513191,
0.011072319201995013,0.014758047489502272,
0.01112219451371571,-0.004242911480754191,
0.011172069825436408,-8.412320309845534e-05,
0.011221945137157107,-0.004946989531233629,
0.011271820448877805,-0.01128168187080067,
0.011321695760598504,0.007314965647036594,
0.011371571072319201,0.01540073909699368,
0.0114214463840399,-0.03580650806785072,
0.011471321695760598,0.04257611126836915,
0.011521197007481297,0.0016209478701159023,
0.011571072319201995,0.0024076975861711835,
0.011620947630922694,0.003133147894267728,
0.011670822942643391,-0.005192543241101074,
0.01172069825436409,0.010246033963950978,
0.011770573566084788,-0.0357673951741981,
0.011820448877805487,-0.003988374211149561,
0.011870324189526184,-0.04038123570872398,
0.011920199501246884,-0.008940273898361363,
0.011970074812967581,0.005040264794393484,
0.012019950124688279,-0.006039787618873649,
0.012069825436408978,-0.01469543939016451,
0.012119700748129675,0.009560026155578704,
0.012169576059850374,-0.03234647514758736,
0.012219451371571072,-0.005935271863735941,
0.012269326683291771,0.00851264621408977,
0.012319201995012468,0.0013586799650261248,
0.012369077306733168,0.007790768110006508,
0.012418952618453865,0.011305995497261467,
0.012468827930174564,-0.016546816590954933,
0.012518703241895262,0.010921818972265778,
0.01256857855361596,-0.03137918499875428,
0.012618453865336658,-0.0012221733813697847,
0.012668329177057357,-0.026492853252595004,
0.012718204488778055,-0.03361477177439497,
0.012768079800498754,-0.03270071754351628,
0.012817955112219451,0.0006800879223116917,
0.012867830423940149,-0.04371457911435723,
0.012917705735660848,-0.0005394704574877424,
0.012967581047381545,-0.012010774217048853,
0.013017456359102245,-0.02602612415935715,
0.013067331670822942,-0.014414306571930819,
0.013117206982543641,-0.004496013342850181,
0.013167082294264339,-0.022164173613816354,
0.013216957605985038,-0.011576393829587955,
0.013266832917705735,-0.009154080040112313,
0.013316708229426434,-0.024158788761076563,
0.013366583541147132,-0.012025409899204044,
0.013416458852867831,-0.015500889550573754,
0.013466334164588529,-0.01874386664728897,
0.013516209476309228,-0.010304739490524947,
0.013566084788029925,0.0016257289976996294,
0.013615960099750624,-0.028669528256104953,
0.013665835411471322,-0.03189332722794333,
0.01371571072319202,-0.046326672638742884,
0.013765586034912718,-0.02785069901245246,
0.013815461346633416,0.005048861357296085,
0.013865336658354115,-0.004465437238261281,
0.013915211970074812,-0.026760145057191945,
0.013965087281795512,-0.027491076594310368,
0.014014962593516209,-0.04151380515886301,
0.014064837905236908,-0.019119474843167963,
0.014114713216957606,-0.021536648239176198,
0.014164588528678305,-0.044114455297779326,
0.014214463840399002,-0.012144810911640753,
0.014264339152119701,-0.006238985575194991,
0.014314214463840399,-0.015908853462399838,
0.014364089775561098,-0.023341296628714335,
0.014413965087281795,0.013976796252421746,
0.014463840399002495,-0.029002800004769545,
0.014513715710723192,-0.00792872445250932,
0.01456359102244389,-0.0057380006603192785,
0.014613466334164589,0.010203962691841324,
0.014663341645885286,0.005117595240463891,
0.014713216957605985,-0.011083291100135458,
0.014763092269326683,-0.022728291996672267,
0.014812967581047382,-0.016193933090811383,
0.01486284289276808,-0.024612091043299963,
0.014912718204488778,-0.014565331310320718,
0.014962593516209476,-0.046669660154023074,
0.015012468827930175,-0.020645113137458586,
0.015062344139650873,-0.029549917387502747,
0.015112219451371572,-0.01510547647365847,
0.01516209476309227,-0.009278958488128675,
0.015211970074812968,-0.030541209894881065,
0.015261845386533666,0.0016600222120453194,
0.015311720698254365,0.0008577302177483273,
0.015361596009975062,-0.01870630583300305,
0.01541147132169576,-0.01965049303439274,
0.015461346633416459,-0.019112045919186787,
0.015511221945137156,-0.029096484034389348,
0.015561097256857856,-0.016446858869907,
0.015610972568578553,-0.017500280538222373,
0.015660847880299252,-0.0013264217180971975,
0.01571072319201995,-0.05214733710160266,
0.015760598503740647,-0.018919164681934632,
0.015810473815461346,-0.02018681049802556,
0.015860349127182045,-0.021184134354118984,
0.015910224438902745,-0.004724209817579329,
0.01596009975062344,-0.01964553083262728,
0.01600997506234414,-0.03477791408719797,
0.01605985037406484,-0.04664691315725979,
0.016109725685785538,-0.002570329723757713,
0.016159600997506234,-0.04819951396262601,
0.016209476309226933,-0.020358579088690567,
0.016259351620947632,-0.002194327644995723,
0.016309226932668328,-0.03262311106295933,
0.016359102244389027,0.0015671001409985064,
0.016408977556109726,-0.036814521858214364,
0.016458852867830425,-0.05359779484426009,
0.01650872817955112,-0.022371062676176376,
0.01655860349127182,-0.04446275521778671,
0.01660847880299252,-0.03837160585417489,
0.01665835411471322,-0.0013865906945798902,
0.016708229426433914,0.007162893572883185,
0.016758104738154613,-0.027120288888612176,
0.016807980049875312,0.002962196948811023,
0.01685785536159601,-0.013869894699559356,
0.016907730673316707,-0.03856846752637207,
0.016957605985037406,-0.02051388304168591,
0.017007481296758106,-0.027506091175278205,
0.0170573566084788,-0.02910655003566031,
0.0171072319201995,-0.019937688206504118,
0.0171571072319202,-0.013079061190863897,
0.0172069825436409,-0.03290626093900355,
0.017256857855361595,-0.010025196057215462,
0.017306733167082294,-0.007708960871712146,
0.017356608478802993,-0.005647795167222528,
0.017406483790523692,-0.034152430478734286,
0.017456359102244388,-0.008876721345463478,
0.017506234413965087,-0.011662456788806109,
0.017556109725685786,-0.0059282680373387315,
0.017605985037406485,0.0013599136660724723,
0.01765586034912718,-0.0004484724274863277,
0.01770573566084788,-0.016124025244450186,
0.01775561097256858,-0.011525983727680211,
0.01780548628428928,-0.029403015373201807,
0.017855361596009974,0.012595019634423863,
0.017905236907730673,-0.040903456440553834,
0.017955112219451373,-0.02230306233764867,
0.018004987531172068,-0.02689038266098897,
0.018054862842892767,-0.024040138927408344,
0.018104738154613467,0.005300883493080369,
0.018154613466334166,-0.008077202152073599,
0.01820448877805486,-0.017654503087770727,
0.01825436408977556,-0.0025585560260515637,
0.01830423940149626,-0.004313798504133638,
0.01835411471321696,-0.006963296542653052,
0.018403990024937655,-0.039507295932918705,
0.018453865336658354,-0.034875738288378984,
0.018503740648379053,-0.021093506994212356,
0.018553615960099752,0.007172282185251153,
0.018603491271820448,-0.02389793993910251,
0.018653366583541147,-0.016830899633739724,
0.018703241895261846,0.00045133270119442244,
0.018753117206982542,0.008429596038126996,
0.01880299251870324,-0.03542578016571828,
0.01885286783042394,-0.003142507427042778,
0.01890274314214464,-0.0068579032329051486,
0.018952618453865335,-0.0010809245494981037,
0.019002493765586034,-0.007791106514936159,
0.019052369077306733,-0.004660660798016215,
0.019102244389027433,-0.03493869609155583,
0.01915211970074813,-0.02497505242825237,
0.019201995012468828,0.0030824154670288737,
0.019251870324189527,-0.006891010364193159,
0.019301745635910226,0.01433082104633292,
0.01935162094763092,0.0043912208843494005,
0.01940149625935162,-0.014906003984458193,
0.01945137157107232,-0.027964738061066245,
0.01950124688279302,-0.008857573323377225,
0.019551122194513715,-0.011164609517825403,
0.019600997506234414,0.005168661080207929,
0.019650872817955113,0.005202251553992641,
0.01970074812967581,-0.0008434094475551161,
0.019750623441396508,-0.01010974604366821,
0.019800498753117207,0.00228098616651967,
0.019850374064837906,0.002508665218204746,
0.019900249376558602,0.004877847174407034,
0.0199501246882793,-0.009007651097435239,
0.02,-0.02030724338558029,
0.0200498753117207,-0.010053099924270482,
0.020099750623441395,-0.022557782289582183,
0.020149625935162094,-0.0013866876510826654,
0.020199501246882794,0.00295840902736397,
0.020249376558603493,-0.008625808906800335,
0.02029925187032419,0.0056718223222657965,
0.020349127182044888,-0.010697029481296052,
0.020399002493765587,0.0018943036791815794,
0.020448877805486283,0.0010164243955383208,
0.02049875311720698,0.03082703665197754,
0.02054862842892768,0.016313464260182365,
0.02059850374064838,-0.013885386854883263,
0.020648379052369076,-0.022033293581742924,
0.020698254364089775,-0.008997425544206175,
0.020748129675810474,0.029157998507115444,
0.020798004987531173,0.012979275437218645,
0.02084788029925187,0.009326051021886399,
0.020897755610972568,0.009250169376662391,
0.020947630922693267,0.005632473391188868,
0.020997506234413967,-0.0012970934032566633,
0.021047381546134662,-0.015904997048616677,
0.02109725685785536,6.008842588280539e-05,
0.02114713216957606,-0.006182273939628728,
0.02119700748129676,0.032989919315559994,
0.021246882793017455,0.029859143139951326,
0.021296758104738155,-0.02162821052208857,
0.021346633416458854,-0.0002550939218092397,
0.02139650872817955,-0.012972032181414545,
0.02144638403990025,0.01215461366948937,
0.021496259351620948,-0.004625670244269418,
0.021546134663341647,0.0075329111350995155,
0.021596009975062343,0.007038426748396979,
0.021645885286783042,0.00401791591431273,
0.02169576059850374,0.01745613541564692,
0.02174563591022444,0.008122287395147218,
0.021795511221945136,0.012005317321555738,
0.021845386533665835,0.008547761380964494,
0.021895261845386534,-0.001263383280272471,
0.021945137157107233,0.029205602408331775,
0.02199501246882793,0.016708304054732104,
0.02204488778054863,0.023862495670273636,
0.022094763092269327,0.005985335854803047,
0.022144638403990027,0.0010439997311044794,
0.022194513715710722,0.01291804494190274,
0.02224438902743142,-0.0042574627211710726,
0.02229426433915212,0.05237684209326247,
0.022344139650872816,0.001759390326077942,
0.022394014962593516,0.01100618175942135,
0.022443890274314215,-0.002522352314526405,
0.022493765586034914,0.013688002411320758,
0.02254364089775561,0.0013850708682693995,
0.02259351620947631,-0.003316706377601092,
0.022643391521197008,0.0038004324104631993,
0.022693266832917707,0.03292305438972929,
0.022743142144638403,0.032456598566799263,
0.022793017456359102,0.006288414617992263,
0.0228428927680798,-0.008000363445843098,
0.0228927680798005,0.0009019777577391024,
0.022942643391521196,0.014819301115816384,
0.022992518703241895,0.0012698913508242156,
0.023042394014962594,0.005942117386282739,
0.02309226932668329,0.014388708279736208,
0.02314214463840399,0.0038616925124652316,
0.02319201995012469,0.0438860583806398,
0.023241895261845388,-1.608051996370742e-05,
0.023291770573566083,0.00823532415197889,
0.023341645885286783,-0.013529942891786235,
0.02339152119700748,0.007241452485421792,
0.02344139650872818,0.03671445440460136,
0.023491271820448877,0.007400034423999009,
0.023541147132169576,0.01852506566443466,
0.023591022443890275,0.012578198548430519,
0.023640897755610974,0.009348255664900832,
0.02369077306733167,0.014052195220370732,
0.02374064837905237,0.013055504637445139,
0.023790523690773068,0.04707543180299907,
0.023840399002493767,0.026902676402517783,
0.023890274314214463,0.021036349092860222,
0.023940149625935162,0.027636093652243527,
0.02399002493765586,0.015971242273751438,
0.024039900249376557,0.013509366395173937,
0.024089775561097256,0.010122192843470556,
0.024139650872817955,0.023249573391643887,
0.024189526184538655,0.0028338513449508475,
0.02423940149625935,0.010696514414443735,
0.02428927680798005,0.036990602372167725,
0.02433915211970075,0.030927687889955736,
0.024389027431421448,0.010579210451631762,
0.024438902743142144,0.035227520941308654,
0.024488778054862843,-0.008074660727683352,
0.024538653366583542,0.01538316096808311,
0.02458852867830424,0.019464842971337694,
0.024638403990024937,-0.003907886325312998,
0.024688279301745636,0.044335339247184566,
0.024738154613466335,0.027296540472139308,
0.02478802992518703,0.0027497629942472984,
0.02483790523690773,0.012541030979148847,
0.02488778054862843,0.038325971260108865,
0.02493765586034913,0.04344289347147617,
0.024987531172069824,0.013997270864716943,
0.025037406483790523,0.04661081592943535,
0.025087281795511222,0.006885682053743422,
0.02513715710723192,0.02217829029671652,
0.025187032418952617,0.02426599753204786,
0.025236907730673316,0.01671748530740872,
0.025286783042394016,0.02702487092424028,
0.025336658354114715,0.009160892341618697,
0.02538653366583541,0.028343193558082208,
0.02543640897755611,0.021825155100866103,
0.02548628428927681,-0.00910612853110307,
0.025536159600997508,0.05623941077605313,
0.025586034912718204,0.03276465742224163,
0.025635910224438903,0.012099024736275448,
0.025685785536159602,0.015583041507936154,
0.025735660847880298,0.013471978346534144,
0.025785536159600997,0.030419892029131947,
0.025835411471321696,0.04402149587641782,
0.025885286783042395,0.03268273077333983,
0.02593516209476309,0.01741511517272177,
0.02598503740648379,0.015653446109631663,
0.02603491271820449,0.032754909188665575,
0.02608478802992519,0.008226894944180219,
0.026134663341645884,0.026450818552112003,
0.026184538653366583,0.029135940677120824,
0.026234413965087282,-0.018567839487175733,
0.02628428927680798,0.04493412426759078,
0.026334164588528677,0.01902037670107715,
0.026384039900249377,0.026424633666015725,
0.026433915211970076,0.010170121702177404,
0.02648379052369077,-0.016384851839041786,
0.02653366583541147,0.0017658188229370299,
0.02658354114713217,0.02563345093297111,
0.02663341645885287,0.010500311994811027,
0.026683291770573565,0.0067953142510173495,
0.026733167082294264,0.012457745077869,
0.026783042394014963,0.018826194463016532,
0.026832917705735662,0.03280467203866701,
0.026882793017456358,0.013522274015414247,
0.026932668329177057,0.02376455593105787,
0.026982543640897756,0.00966978930218487,
0.027032418952618455,0.01264559777643198,
0.02708229426433915,0.009779999325559651,
0.02713216957605985,0.00010757587134072044,
0.02718204488778055,0.015503111359883654,
0.02723192019950125,0.03199554846601467,
0.027281795511221944,0.0052813400893920535,
0.027331670822942643,0.005366718044252632,
0.027381546134663343,0.01708433058745031,
0.02743142144638404,0.022345790601627065,
0.027481296758104738,0.018634975144873864,
0.027531172069825437,0.02625377526407018,
0.027581047381546136,0.01114902034287432,
0.02763092269326683,0.002554905713301501,
0.02768079800498753,0.021474217000723567,
0.02773067331670823,0.019384255485302388,
0.02778054862842893,0.009971016601883258,
0.027830423940149625,0.02807759356485593,
0.027880299251870324,0.019330013113335303,
0.027930174563591023,0.03752610856826928,
0.027980049875311722,0.003866329882887331,
0.028029925187032418,0.004601109362536731,
0.028079800498753117,0.00975117484481158,
0.028129675810473816,0.028721556251084204,
0.028179551122194512,0.03297090684165638,
0.02822942643391521,0.02511324045747791,
0.02827930174563591,0.01562322513694248,
0.02832917705735661,0.016966121543048017,
0.028379052369077305,-0.0028317135393420914,
0.028428927680798004,-0.0028399664838550283,
0.028478802992518704,0.02660514174521892,
0.028528678304239403,0.01892158017963455,
0.0285785536159601,0.005804049795598534,
0.028628428927680798,0.02929208458242212,
0.028678304239401497,0.03082777515849605,
0.028728179551122196,0.01499131152245448,
0.02877805486284289,0.01658631053482799,
0.02882793017456359,0.034803241804112435,
0.02887780548628429,0.02988717793985583,
0.02892768079800499,0.0046622769042122605,
0.028977556109725685,0.020661640403074298,
0.029027431421446384,-0.0032288971045563615,
0.029077306733167083,0.012011285541192889,
0.02912718204488778,0.02383732000426196,
0.029177057356608478,0.03570376499346746,
0.029226932668329177,0.014733233364521647,
0.029276807980049877,0.005489378259793026,
0.029326683291770572,0.003060761814974359,
0.02937655860349127,0.01772964400099744,
0.02942643391521197,0.013131367341321996,
0.02947630922693267,0.005692067377131582,
0.029526184538653365,-0.0006275571633754702,
0.029576059850374065,0.01847848887219561,
0.029625935162094764,0.024023293798427655,
0.029675810473815463,-0.009781843714777,
0.02972568578553616,0.00727762558402314,
0.029775561097256858,-0.006645586908349857,
0.029825436408977557,0.007509387872827968,
0.029875311720698253,0.014810201607532988,
0.029925187032418952,-0.002668337283737157,
0.02997506234413965,0.002903650521343358,
0.03002493765586035,0.02209389451942674,
0.030074812967581046,0.0010381012539576826,
0.030124688279301745,-0.0003481542915367347,
0.030174563591022444,0.001985033397098071,
0.030224438902743143,-0.012595626250264766,
0.03027431421446384,-0.020764749133082423,
0.03032418952618454,-0.01927815294417833,
0.030374064837905237,-0.0020249546207160574,
0.030423940149625937,0.013965099848089678,
0.030473815461346632,0.006914799176107509,
0.03052369077306733,-0.0148633304957069,
0.03057356608478803,0.004508618881165932,
0.03062344139650873,-5.778012548055163e-05,
0.030673316708229426,0.007906070998192832,
0.030723192019950125,0.009528166944211587,
0.030773067331670824,-0.006416271580004498,
0.03082294264339152,-0.01474101787576603,
0.03087281795511222,0.019836768311723534,
0.030922693266832918,-0.00320670010607477,
0.030972568578553617,-0.016161216436780285,
0.031022443890274313,0.0034075361278106,
0.031072319201995012,0.00011286562204458335,
0.03112219451371571,-0.0021600294010110013,
0.03117206982543641,0.0026754268125293527,
0.031221945137157106,0.014606663064182658,
0.03127182044887781,-0.027507689182087118,
0.031321695760598504,-0.0031461718961103653,
0.0313715710723192,-0.01208788338143759,
0.0314214463840399,-0.013058759998790574,
0.0314713216957606,-0.010464620133985574,
0.031521197007481294,-0.02809938936589688,
0.031571072319202,0.008341839058720343,
0.03162094763092269,-0.0150910923442897,
0.03167082294264339,0.017860138037809975,
0.03172069825436409,-0.014003489641307414,
0.03177057356608479,0.01618663998476065,
0.03182044887780549,-0.0016642651012904299,
0.031870324189526185,-0.01660029887301925,
0.03192019950124688,0.01160675600828866,
0.03197007481296758,-0.009615575755191508,
0.03201995012468828,-0.019238395877786765,
0.032069825436408975,-0.03143925909216206,
0.03211970074812968,-0.031760415106396114,
0.03216957605985037,-0.016201583805187166,
0.032219451371571076,-0.02429454139343739,
0.03226932668329177,-0.0075951718639786425,
0.03231920199501247,-0.008147730119753036,
0.03236907730673317,0.0025477769129665174,
0.032418952618453865,0.007346853649188051,
0.03246882793017456,0.014743311062891753,
0.032518703241895264,-0.004291983615173264,
0.03256857855361596,0.014480742333588063,
0.032618453865336655,-0.016988909728038744,
0.03266832917705736,-0.0066210947109314,
0.032718204488778053,0.0032595636716487592,
0.032768079800498756,-0.01924997481012561,
0.03281795511221945,-0.02254916497115504,
0.03286783042394015,-0.03251791362755321,
0.03291770573566085,-0.024188124254585094,
0.032967581047381546,0.006408137656207695,
0.03301745635910224,0.015146009529413001,
0.033067331670822944,0.00853683615306956,
0.03311720698254364,-0.013756651225254216,
0.03316708229426434,-0.000626681975052841,
0.03321695760598504,0.002208962126804114,
0.033266832917705734,0.0036619136788766556,
0.03331670822942644,-0.0017559303226488687,
0.03336658354114713,-0.009570719196789335,
0.03341645885286783,0.00696346896000179,
0.03346633416458853,0.016148864254024176,
0.033516209476309226,-0.002552673880270046,
0.03356608478802992,0.011680083068690707,
0.033615960099750625,-0.026131329236156138,
0.03366583541147132,-0.03135249627586386,
0.03371571072319202,-0.010214084601798658,
0.03376558603491272,0.017597870360146435,
0.033815461346633414,-0.029572031406378162,
0.03386533665835412,-0.012086272747514329,
0.03391521197007481,-0.02558107453794581,
0.03396508728179551,-0.033584521248226196,
0.03401496259351621,-0.001463834017064753,
0.03406483790523691,-0.017673229894368425,
0.0341147132169576,-0.01214994629750823,
0.034164588528678305,0.024051151595242185,
0.034214463840399,-0.00019740643489512578,
0.034264339152119704,-0.020405452921444286,
0.0343142144638404,-0.017299420017255554,
0.034364089775561095,-0.01541585437805819,
0.0344139650872818,0.007743022757382291,
0.03446384039900249,-0.02277572414811361,
0.03451371571072319,-0.011782198218242381,
0.03456359102244389,-3.165207289787357e-05,
0.03461346633416459,-0.023415263861098372,
0.03466334164588529,-0.008738351824913997,
0.034713216957605986,-0.012817287342663955,
0.03476309226932668,-0.026789955846115782,
0.034812967581047384,-0.02235865910778487,
0.03486284289276808,-0.007375077818268716,
0.034912718204488775,-0.001813730142699305,
0.03496259351620948,-0.04459533306636474,
0.035012468827930174,-0.011898837874912468,
0.03506234413965087,-0.03643582939353762,
0.03511221945137157,-0.026369225613193187,
0.03516209476309227,-0.020696712432816355,
0.03521197007481297,-0.010253494132572972,
0.035261845386533666,-0.023605278818623114,
0.03531172069825436,-0.027480911639613106,
0.035361596009975065,-0.019409633310239732,
0.03541147132169576,0.0017486560582502565,
0.035461346633416456,-0.014566091808512437,
0.03551122194513716,-0.051801500510679534,
0.035561097256857854,0.005683157216126323,
0.03561097256857856,-0.0374084727272642,
0.03566084788029925,-0.02870023351339801,
0.03571072319201995,0.018928321888551147,
0.03576059850374065,0.0071320399484666695,
0.03581047381546135,-0.013349861677341564,
0.03586034912718204,-0.024038308497342186,
0.035910224438902745,-0.03953527425735673,
0.03596009975062344,0.009580866812448376,
0.036009975062344136,-0.03388254684805396,
0.03605985037406484,-0.010576901713902376,
0.036109725685785535,0.01241635382260424,
0.03615960099750624,-0.022080221799767877,
0.03620947630922693,0.009179465541393466,
0.03625935162094763,-0.047422823573837855,
0.03630922693266833,-0.019998862196541574,
0.03635910224438903,-0.015131212623001503,
0.03640897755610972,-0.016209403200800256,
0.036458852867830426,-0.020132551811086755,
0.03650872817955112,-0.017984577457983767,
0.036558603491271824,-0.007167294383720435,
0.03660847880299252,-0.026579607119591477,
0.036658354114713215,-0.00013566683401017993,
0.03670822942643392,-0.015992210672249565,
0.036758104738154614,-0.03198283004167605,
0.03680798004987531,-0.021296587666336655,
0.03685785536159601,-0.010229892517226193,
0.03690773067331671,-0.0057447324278313925,
0.0369576059850374,-0.059820037197290316,
0.037007481296758106,-0.03602320509365767,
0.0370573566084788,-0.01785878033931521,
0.037107231920199504,-0.007993607966237224,
0.0371571072319202,-0.001405138960262729,
0.037206982543640896,-0.01503500896867157,
0.0372568578553616,-0.01644732688067202,
0.037306733167082294,-0.01565050595399566,
0.03735660847880299,-0.0042627694156602055,
0.03740648379052369,-0.04301659379775399,
0.03745635910224439,0.014816190504866517,
0.037506234413965084,-0.00572016004547524,
0.037556109725685786,-0.03573095367162478,
0.03760598503740648,-0.008393285810582098,
0.037655860349127185,-0.041794392947874716,
0.03770573566084788,-0.019478588676083368,
0.037755610972568576,-0.01741226731005238,
0.03780548628428928,-0.02185859113907578,
0.037855361596009975,-0.003133975896961667,
0.03790523690773067,-0.04152330023052819,
0.03795511221945137,-0.015386481760232463,
0.03800498753117207,-0.016553325783909917,
0.03805486284289277,-0.03322035033783312,
0.03810473815461347,-0.027429955557771526,
0.03815461346633416,-0.017610382223542515,
0.038204488778054865,-0.0199364579441042,
0.03825436408977556,0.00768574441403545,
0.03830423940149626,-0.01885830675249303,
0.03835411471321696,-0.008634417918120293,
0.038403990024937655,-0.013367163037199535,
0.03845386533665835,-0.018226005778710225,
0.03850374064837905,-0.006127986168887174,
0.03855361596009975,0.0015495715829845023,
0.03860349127182045,-0.03537821616113633,
0.03865336658354115,-0.000634209871526641,
0.03870324189526184,-0.01286384095491377,
0.038753117206982546,-0.028148540925377864,
0.03880299251870324,-0.006947353662760411,
0.03885286783042394,-0.03336098789612971,
0.03890274314214464,3.305426227394673e-05,
0.038952618453865336,-0.01096515323621863,
0.03900249376558604,-0.01884727478089706,
0.039052369077306734,-0.013667151023601524,
0.03910224438902743,-0.015526590895087369,
0.03915211970074813,-0.017054633291690206,
0.03920199501246883,-0.020599877387941876,
0.039251870324189524,0.010128208948427824,
0.039301745635910226,-0.008383029550701804,
0.03935162094763092,-0.025113798304612488,
0.03940149625935162,-0.004716658573365496,
0.03945137157107232,0.0004599406906622113,
0.039501246882793016,0.00048561591124795644,
0.03955112219451372,-0.01752996843499153,
0.039600997506234414,-0.018226200832291362,
0.03965087281795511,0.011101042940679984,
0.03970074812967581,-0.002492188078883421,
0.03975062344139651,-0.013141071731067988,
0.039800498753117204,0.00036065097632668065,
0.03985037406483791,-0.003180728444869746,
0.0399002493765586,-0.011782826468860632,
0.039950124688279305,0.011389839129650057,
0.04,-0.010469352467899207,
0.0400498753117207,-0.00786261559086803,
0.0400997506234414,-0.022628567241937268,
0.040149625935162095,-0.005356410233169144,
0.04019950124688279,-0.020857681000493507,
0.04024937655860349,-0.01584888903180162,
0.04029925187032419,0.018130624180497584,
0.040349127182044885,-0.03252463293585075,
0.04039900249376559,-0.009441913861033276,
0.04044887780548628,0.02197659704219957,
0.040498753117206986,0.004354125398515894,
0.04054862842892768,-0.00915105000753727,
0.04059850374064838,-0.01847188509264648,
0.04064837905236908,0.0015432632197663679,
0.040698254364089775,-0.019257482932838178,
0.04074812967581047,0.007607400458427524,
0.040798004987531174,0.005470542499924098,
0.04084788029925187,-0.010298368404289675,
0.040897755610972565,0.02104518574588576,
0.04094763092269327,0.01726488308014595,
0.04099750623441396,-0.0005937107374488996,
0.041047381546134666,0.018232433083597004,
0.04109725685785536,0.02672583910921765,
0.04114713216957606,-0.008594979397914435,
0.04119700748129676,-0.00011535176628221788,
0.041246882793017456,0.0033296070097867483,
0.04129675810473815,0.017209657942290867,
0.041346633416458854,-0.024567256935647267,
0.04139650872817955,0.007465233163982356,
0.04144638403990025,0.0015701464523377043,
0.04149625935162095,0.01521478476111654,
0.041546134663341644,0.006697970290477892,
0.04159600997506235,0.015106795310803195,
0.04164588528678304,0.022825430409483934,
0.04169576059850374,0.020624582457192935,
0.04174563591022444,-0.0013184982651889797,
0.041795511221945136,-0.0026102341872442023,
0.04184538653366583,-0.013783402977948233,
0.041895261845386535,0.012997586281966435,
0.04194513715710723,-0.009918921029654052,
0.04199501246882793,-0.020819985296064242,
0.04204488778054863,0.012041322764043572,
0.042094763092269324,-0.003957109068286986,
0.04214463840399003,-0.015115045322819914,
0.04219451371571072,0.027384953333713127,
0.04224438902743142,0.0007426130586923492,
0.04229426433915212,0.04324496351721759,
0.04234413965087282,0.010675672740864563,
0.04239401496259352,0.014235785017308582,
0.042443890274314215,0.013688008051488443,
0.04249376558603491,0.04796352629582247,
0.042543640897755614,0.022085078955933955,
0.04259351620947631,0.02451226755021057,
0.042643391521197005,0.022224875884339593,
0.04269326683291771,0.0068688570282962125,
0.0427431421446384,0.017637034218693365,
0.0427930174563591,0.0026205857270931564,
0.0428428927680798,0.006033009064926341,
0.0428927680798005,0.01023499670535699,
0.0429426433915212,0.0010502505859727972,
0.042992518703241896,0.015640689981797247,
0.04304239401496259,0.01908718390786019,
0.043092269326683294,0.01619816863503272,
0.04314214463840399,0.028097681681477853,
0.043192019950124685,0.016395747340637583,
0.04324189526184539,0.01654204684826159,
0.043291770573566084,0.032136054600153334,
0.043341645885286786,0.04296607101521574,
0.04339152119700748,0.0008920920118811251,
0.04344139650872818,0.031631162325879765,
0.04349127182044888,0.0327816857541296,
0.043541147132169576,0.019228851027641082,
0.04359102244389027,0.009646038287265115,
0.043640897755610975,0.01461441704460012,
0.04369077306733167,0.035181901423378834,
0.043740648379052366,0.014400656562744106,
0.04379052369077307,0.02754674345119633,
0.043840399002493764,0.01116595507808704,
0.04389027431421447,0.03781395962077356,
0.04394014962593516,0.003970832511726596,
0.04399002493765586,0.004191988786465754,
0.04403990024937656,0.02709269138863451,
0.04408977556109726,0.0031040640050218685,
0.04413965087281795,0.02334543775248846,
0.044189526184538655,0.022986527551542624,
0.04423940149625935,0.006120005516301439,
0.04428927680798005,0.02725054867677825,
0.04433915211970075,-0.0011079801665345237,
0.044389027431421445,-0.00018395374063013073,
0.04443890274314215,0.013083501582760334,
0.04448877805486284,0.029016127231667722,
0.04453865336658354,0.02653150435933181,
0.04458852867830424,0.022176459229840455,
0.04463840399002494,0.042000169222226075,
0.04468827930174563,-0.012983628632339598,
0.044738154613466335,0.028500034723477518,
0.04478802992518703,0.03909305121243352,
0.044837905236907734,0.03926401813667352,
0.04488778054862843,0.021980085972410572,
0.044937655860349125,0.00326883335830791,
0.04498753117206983,0.01234491641047908,
0.045037406483790524,0.008688220779247286,
0.04508728179551122,0.026709213752888285,
0.04513715710723192,0.02310938765366911,
0.04518703241895262,0.03209769914996578,
0.04523690773067331,0.013460111401354108,
0.045286783042394016,0.004609618550290816,
0.04533665835411471,0.026379417900170427,
0.045386533665835414,0.022713897172069227,
0.04543640897755611,0.008498263983943776,
0.045486284289276806,0.003424535490716807,
0.04553615960099751,0.021067109666059465,
0.045586034912718204,0.04473870347847736,
0.0456359102244389,0.011613390541373577,
0.0456857855361596,0.016553216346809632,
0.0457356608478803,0.013594211699996939,
0.045785536159601,0.028306210990247556,
0.045835411471321696,0.01904255391852574,
0.04588528678304239,0.020662436195180635,
0.045935162094763095,0.010833740003879301,
0.04598503740648379,0.01629455673832144,
0.046034912718204486,0.017978224273452876,
0.04608478802992519,0.031693737489235804,
0.046134663341645885,0.019314509950589222,
0.04618453865336658,0.036418087405292524,
0.04623441396508728,0.02804661510343144,
0.04628428927680798,0.009886409506339422,
0.04633416458852868,0.0005572587391147119,
0.04638403990024938,0.033275425533205144,
0.04643391521197007,0.014569903386272854,
0.046483790523690775,0.016544202101719318,
0.04653366583541147,0.021774736274117704,
0.04658354114713217,0.019667862636032162,
0.04663341645885287,0.03356878403780573,
0.046683291770573565,0.00967214337355171,
0.04673316708229427,0.030560839937119322,
0.04678304239401496,-0.017712931169188505,
0.04683291770573566,0.02275184954664726,
0.04688279301745636,0.040372420241250304,
0.04693266832917706,0.034027376297906586,
0.04698254364089775,0.02715372331075689,
0.047032418952618456,-0.014036772486669295,
0.04708229426433915,0.0178156616012738,
0.04713216957605985,0.01180378415563371,
0.04718204488778055,0.02989437280748988,
0.047231920199501246,0.005002593964587583,
0.04728179551122195,0.024541692466904522,
0.047331670822942644,0.03397836863671894,
0.04738154613466334,0.017280677617275444,
0.04743142144638404,6.849831633713721e-05,
0.04748129675810474,0.02747591550204347,
0.047531172069825434,0.05010049251769455,
0.047581047381546136,0.0424416295856985,
0.04763092269326683,0.04861592853906689,
0.047680798004987535,0.01757999683575131,
0.04773067331670823,0.04080788343897501,
0.047780548628428926,0.010680166332707275,
0.04783042394014963,0.03619388531740182,
0.047880299251870324,0.01536855296248158,
0.04793017456359102,0.02015089227752962,
0.04798004987531172,0.0026400552465456334,
0.04802992518703242,0.009686020410335248,
0.048079800498753114,0.0169171650103036,
0.04812967581047382,0.027464928167892443,
0.04817955112219451,0.04389318550804779,
0.048229426433915215,0.0055030991087584614,
0.04827930174563591,0.037748673175885775,
0.048329177057356607,0.015540914072222111,
0.04837905236907731,0.0023447563469798788,
0.048428927680798005,0.018236393515348635,
0.0484788029925187,0.018648030039505194,
0.0485286783042394,-0.003227214928968127,
0.0485785536159601,0.04041271202602231,
0.048628428927680795,-0.005162468231598792,
0.0486783042394015,0.02803276409502458,
0.04872817955112219,0.01396495689697862,
0.048778054862842896,0.02669452114287127,
0.04882793017456359,0.014467334874805594,
0.04887780548628429,-0.009575852003520943,
0.04892768079800499,0.00465324185290413,
0.048977556109725685,0.018726238715749563,
0.04902743142144638,-0.0024804091524857214,
0.049077306733167084,0.009023453992558031,
0.04912718204488778,0.036602806319691567,
0.04917705735660848,0.013696233458170738,
0.04922693266832918,0.007556265742943764,
0.04927680798004987,0.007339088420677253,
0.049326683291770576,-0.0006503005319454785,
0.04937655860349127,0.03436605976817352,
0.04942643391521197,0.005712292138379593,
0.04947630922693267,0.00013859835046058956,
0.049526184538653366,-0.0014346307536294896,
0.04957605985037406,0.020626405226465423,
0.049625935162094764,0.006034001210721688,
0.04967581047381546,0.008134846716212741,
0.04972568578553616,0.028803055000026636,
0.04977556109725686,0.017127933486515028,
0.049825436408977554,0.011938581845547443,
0.04987531172069826,0.006040538008769802,
0.04992518703241895,-0.0028869406279499153,
0.04997506234413965,0.01628083724629051,
0.05002493765586035,0.010313737417158624,
0.050074812967581046,0.023721766149540302,
0.05012468827930175,-0.005164942921444945,
0.050174563591022445,0.03688318480136806,
0.05022443890274314,0.023721312379058473,
0.05027431421446384,0.004006360167255634,
0.05032418952618454,-0.008356085099337416,
0.050374064837905234,0.016425419424418792,
0.05042394014962594,-0.013714538721983277,
0.05047381546134663,-0.004261329435500784,
0.05052369077306733,0.0006435624725447059,
0.05057356608478803,-0.0003410845677358767,
0.05062344139650873,0.0011520812315784024,
0.05067331670822943,-0.013342768058577432,
0.050723192019950125,-0.002059648343914841,
0.05077306733167082,-0.004032760241471781,
0.050822942643391524,0.0015607442018639572,
0.05087281795511222,0.0016074893563539174,
0.050922693266832915,-0.0007386991420316015,
0.05097256857855362,0.005357407423841617,
0.05102244389027431,-0.008675308102630322,
0.051072319201995016,-0.01316289234282606,
0.05112219451371571,-0.03324531350449982,
0.05117206982543641,-0.01707641165740048,
0.05122194513715711,-0.013832977298667086,
0.051271820448877806,0.018496013682932442,
0.0513216957605985,0.03428528986094113,
0.051371571072319204,0.019119055666305305,
0.0514214463840399,0.003292008745933473,
0.051471321695760595,-0.005914840717855684,
0.0515211970074813,-0.0046165169630437985,
0.051571072319201994,0.01907188110170975,
0.051620947630922696,0.014955129107732699,
0.05167082294264339,0.006478730083314536,
0.05172069825436409,0.006348788183907335,
0.05177057356608479,0.012686915837652017,
0.051820448877805486,-0.010657231350538723,
0.05187032418952618,0.020384447622753862,
0.051920199501246884,0.01083555585382384,
0.05197007481296758,0.0013884238238809723,
0.052019950124688276,-0.002132104314562434,
0.05206982543640898,-0.022567176890795248,
0.052119700748129674,-0.006732888111663279,
0.05216957605985038,-0.0015629821181093757,
0.05221945137157107,-0.029751689208635728,
0.05226932668329177,0.019732159434237027,
0.05231920199501247,-0.020065379952903185,
0.05236907730673317,0.016784669864993093,
0.05241895261845386,-0.029791616749335337,
0.052468827930174565,-0.004034091932397693,
0.05251870324189526,0.019383317575911455,
0.05256857855361596,0.0009331275443408846,
0.05261845386533666,-0.021634914059541877,
0.052668329177057355,-0.0023012258172898942,
0.05271820448877806,-0.012293338900636505,
0.05276807980049875,0.012096133264952073,
0.05281795511221945,-0.006458267057745454,
0.05286783042394015,0.005234809055561047,
0.05291770573566085,0.007076992112818453,
0.05296758104738154,-0.024909852460364527,
0.053017456359102245,-0.0028958900980055984,
0.05306733167082294,0.008266434100009788,
0.053117206982543644,-0.0005355227723429813,
0.05316708229426434,-0.009257577438123533,
0.053216957605985035,0.018197333228422225,
0.05326683291770574,-0.0337245330112351,
0.053316708229426434,-0.006562566900086057,
0.05336658354114713,0.01465835480921622,
0.05341645885286783,0.01426231935770952,
0.05346633416458853,-0.001941146838857653,
0.05351620947630923,-0.03674510907610616,
0.053566084788029926,-0.00019427079169463332,
0.05361596009975062,0.007517696708533805,
0.053665835411471324,-0.031051847811711292,
0.05371571072319202,-0.005825881029523975,
0.053765586034912716,-0.04465144203809003,
0.05381546134663342,0.0008273167389284929,
0.053865336658354114,-0.004279463236889727,
0.05391521197007481,-0.008633712178088308,
0.05396508728179551,-0.00626853522981,
0.05401496259351621,-0.03490471054293224,
0.05406483790523691,-0.029825305881625894,
0.054114713216957606,0.008026307228659792,
0.0541645885286783,-0.02841121514080497,
0.054214463840399005,0.004718809424539373,
0.0542643391521197,-0.017098748823949163,
0.054314214463840396,-0.011918189793984,
0.0543640897755611,-0.025504917803868692,
0.054413965087281795,-0.020146960876999083,
0.0544638403990025,-0.014086900484491642,
0.05451371571072319,0.0011742092164424185,
0.05456359102244389,-0.022379454130654515,
0.05461346633416459,-0.017247859042456973,
0.05466334164588529,-0.013918311433650342,
0.05471321695760598,-0.006217890841262466,
0.054763092269326685,-0.021140439099281733,
0.05481296758104738,-0.013762604275999181,
0.05486284289276808,-0.02138388888970586,
0.05491271820448878,-0.010735000663528078,
0.054962593516209475,0.016861740397057665,
0.05501246882793018,-0.0077191067780301575,
0.05506234413965087,-0.016378322086897757,
0.05511221945137157,-0.021308464063261458,
0.05516209476309227,-0.006939709507055513,
0.05521197007481297,-0.012522747093938394,
0.05526184538653366,-0.01297816595063282,
0.055311720698254366,-0.026782082347661083,
0.05536159600997506,-0.025636302767086623,
0.05541147132169576,-0.0003798764010872237,
0.05546134663341646,0.0010302022195495322,
0.055511221945137156,-0.024655118293913245,
0.05556109725685786,-0.015867600850528785,
0.055610972568578554,-0.013134263768698532,
0.05566084788029925,-0.02049166465559314,
0.05571072319201995,-0.024912230512080413,
0.05576059850374065,-0.012200165676547713,
0.055810473815461344,-0.03105879789342918,
0.055860349127182046,-0.0057849759570154265,
0.05591022443890274,-0.01650160779689629,
0.055960099750623445,-0.01895152095368202,
0.05600997506234414,-0.018878863951331006,
0.056059850374064836,-0.03290317915986616,
0.05610972568578554,-0.02688718157894912,
0.056159600997506234,0.007370025043358555,
0.05620947630922693,0.008741630343780695,
0.05625935162094763,-0.021282547983449432,
0.05630922693266833,-0.021407895909997837,
0.056359102244389024,-0.009242859425792877,
0.05640897755610973,-0.007824131615250224,
0.05645885286783042,-0.008022210139057474,
0.056508728179551125,-0.017226587977772854,
0.05655860349127182,0.0012837042372688123,
0.056608478802992516,-0.006850710456946338,
0.05665835411471322,0.005496663048218008,
0.056708229426433915,-0.020832619352823267,
0.05675810473815461,-0.04024765583948848,
0.05680798004987531,0.0094071808422386,
0.05685785536159601,-0.03976946805498416,
0.05690773067331671,-0.0026116539097390864,
0.05695760598503741,-0.013102683845601048,
0.0570074812967581,-0.007810813474074835,
0.057057356608478806,-0.015443990928137717,
0.0571072319201995,-0.004140804743362238,
0.0571571072319202,-0.03139660775966144,
0.0572069825436409,-0.04343724245670983,
0.057256857855361595,0.004787386475007548,
0.05730673316708229,0.008207521712879098,
0.057356608478802994,0.0159876147659935,
0.05740648379052369,-0.003763129792412204,
0.05745635910224439,-0.023910535678128127,
0.05750623441396509,-0.012378912232873148,
0.05755610972568578,-0.038233684092520426,
0.057605985037406486,-0.0010048183248106083,
0.05765586034912718,-0.006969238245251302,
0.05770573566084788,-0.01481844594959864,
0.05775561097256858,-0.00687162707587168,
0.057805486284289276,-0.01851991281313034,
0.05785536159600998,-0.00874692044865566,
0.057905236907730674,-0.021075900230698164,
0.05795511221945137,-0.028254564807352167,
0.05800498753117207,0.005564375259655002,
0.05805486284289277,-0.020013851129913864,
0.058104738154613464,-0.018516791432678478,
0.05815461346633417,-0.007020325346284425,
0.05820448877805486,-0.021157999915900495,
0.05825436408977556,0.006137688556596785,
0.05830423940149626,-0.02727553690848905,
0.058354114713216956,-0.0029419379826306144,
0.05840399002493766,-0.0106204945701311,
0.058453865336658355,0.01115358918056291,
0.05850374064837905,-0.009772616672157246,
0.05855361596009975,-0.007792688631570913,
0.05860349127182045,-0.01918894552658972,
0.058653366583541144,-0.01130159328787651,
0.05870324189526185,-0.015355520562854594,
0.05875311720698254,-0.01657861404329707,
0.05880299251870324,0.018104087816269626,
0.05885286783042394,-0.026957506385234156,
0.05890274314214464,-0.018942609367468128,
0.05895261845386534,-0.009081188434658456,
0.059002493765586035,-0.008345408182494874,
0.05905236907730673,0.009817827174854842,
0.059102244389027433,-0.01386970682790616,
0.05915211970074813,0.0075849186022960355,
0.059201995012468825,-0.01292166127574649,
0.05925187032418953,0.0036380268122444973,
0.05930174563591022,-0.0022696066958167596,
0.059351620947630926,-0.027564792150895183,
0.05940149625935162,-0.004237556546907191,
0.05945137157107232,-0.015328037277115607,
0.05950124688279302,-0.003516004984803629,
0.059551122194513716,-0.032949855927253614,
0.05960099750623441,0.0010664428667948598,
0.059650872817955114,-0.014403260425374573,
0.05970074812967581,0.001218080016651031,
0.059750623441396505,-0.0001226026683919918,
0.05980049875311721,-0.013170041860184969,
0.059850374064837904,0.004606839196099723,
0.059900249376558606,-0.018551317915674652,
0.0599501246882793,-0.015617018965215685,
0.06,-0.013219899384165259,
0.0600498753117207,0.007044464422034776,
0.060099750623441396,-0.022993985587845125,
0.06014962593516209,-5.004443208962375e-05,
0.060199501246882794,0.0071547712602455125,
0.06024937655860349,-0.010007034827990875,
0.06029925187032419,-0.016929166811826313,
0.06034912718204489,0.008045199400448023,
0.060399002493765584,-0.003294094415698456,
0.06044887780548629,-0.006424661262117857,
0.06049875311720698,0.007390254150500066,
0.06054862842892768,-0.02412888959769615,
0.06059850374064838,0.010435434531830216,
0.06064837905236908,-0.006346980566778274,
0.06069825436408977,0.008292686176769804,
0.060748129675810475,0.004767253840926369,
0.06079800498753117,0.010700422355387443,
0.06084788029925187,-0.0017267221719346757,
0.06089775561097257,0.003588391593856476,
0.060947630922693265,2.3733628563126635e-06,
0.06099750623441397,-0.0021093801766884123,
0.06104738154613466,0.01639961182448809,
0.06109725685785536,-0.010389748373715518,
0.06114713216957606,-0.0023059272215340708,
0.06119700748129676,0.008141952431443895,
0.06124688279301746,0.006414375599581914,
0.061296758104738155,0.00015133693992158085,
0.06134663341645885,0.019075691179955473,
0.061396508728179554,-0.006403256883197343,
0.06144638403990025,0.005121410077424756,
0.061496259351620945,0.02055483503046933,
0.06154613466334165,-0.007399899189796373,
0.061596009975062344,0.02639948868509652,
0.06164588528678304,0.00996346016459159,
0.06169576059850374,-0.021412084978296966,
0.06174563591022444,-0.002627882065289017,
0.06179551122194514,0.0239509255318948,
0.061845386533665836,0.014980509492655277,
0.06189526184538653,0.017117283724050886,
0.061945137157107234,-0.010205971366578803,
0.06199501246882793,0.04033099746332545,
0.062044887780548626,0.01464076111874334,
0.06209476309226933,0.017777405065235508,
0.062144638403990024,0.02062404669314849,
0.06219451371571072,-0.014443591775895633,
0.06224438902743142,0.01232191277544876,
0.06229426433915212,0.045722148080602376,
0.06234413965087282,-0.001850957459408789,
0.062394014962593516,0.02148319654707219,
0.06244389027431421,0.013063378439949579,
0.062493765586034915,0.0062889145603173165,
0.06254364089775562,0.024773791273368474,
0.06259351620947631,-0.007055791998945987,
0.06264339152119701,0.0283364570847109,
0.0626932668329177,-0.0003220262005859207,
0.0627431421446384,0.03117091564824002,
0.0627930174563591,0.0184317930619964,
0.0628428927680798,0.006729679936052509,
0.0628927680798005,0.04082691228435423,
0.0629426433915212,0.021207035452419896,
0.06299251870324189,0.0191021692791459,
0.06304239401496259,0.030188604347575386,
0.0630922693266833,0.04127198894032867,
0.063142144638404,0.014556091340632384,
0.06319201995012469,0.02071488463031581,
0.06324189526184539,-0.0012699783823408202,
0.06329177057356608,0.018407530983961157,
0.06334164588528678,0.02810473194755516,
0.06339152119700749,-0.0029299497051796797,
0.06344139650872818,0.0374963100617393,
0.06349127182044888,0.036795640721247386,
0.06354114713216957,0.016719194731831213,
0.06359102244389027,0.01539779971628736,
0.06364089775561098,0.020565479467376288,
0.06369077306733167,0.012821017378572334,
0.06374064837905237,0.007081787626095475,
0.06379052369077307,0.02122226205735947,
0.06384039900249376,-0.02480697331409539,
0.06389027431421446,0.016941468472209686,
0.06394014962593517,0.023944189503373875,
0.06399002493765586,0.04293934962416937,
0.06403990024937656,0.006892108005448549,
0.06408977556109725,0.010802979696324544,
0.06413965087281795,0.02427004561356402,
0.06418952618453866,0.002741067134402194,
0.06423940149625935,0.031474181333235235,
0.06428927680798005,0.03802716491447018,
0.06433915211970075,0.04898795578592108,
0.06438902743142144,0.014558541321723704,
0.06443890274314215,0.030106137258516553,
0.06448877805486285,0.018615087092428182,
0.06453865336658354,-0.01272024389890937,
0.06458852867830424,0.033545867400557525,
0.06463840399002493,0.007999958284874285,
0.06468827930174563,0.02893023420649006,
0.06473815461346634,0.036494135502894334,
0.06478802992518704,0.016165772494002563,
0.06483790523690773,0.010867040543955455,
0.06488778054862843,0.03687733307860811,
0.06493765586034912,0.050287569775331845,
0.06498753117206983,0.04804537586402351,
0.06503740648379053,-0.0015616253832463935,
0.06508728179551122,0.006522014463663163,
0.06513715710723192,0.03343362527062688,
0.06518703241895261,0.018992076638451295,
0.06523690773067331,0.004897352358041344,
0.06528678304239402,0.029429936068570358,
0.06533665835411472,0.013226280780941629,
0.06538653366583541,0.027105955083254814,
0.06543640897755611,0.0020982136582121842,
0.0654862842892768,0.011526675425054285,
0.06553615960099751,0.06486307381284859,
0.06558603491271821,0.03298117875067063,
0.0656359102244389,0.04392249471219077,
0.0656857855361596,0.019241103683411538,
0.0657356608478803,0.037706637828341036,
0.06578553615960099,0.027960149591959086,
0.0658354114713217,0.02961632578236698,
0.0658852867830424,-0.016280577769898323,
0.06593516209476309,-0.005567164122751548,
0.06598503740648379,0.03233215952956998,
0.06603491271820448,0.02298847593489097,
0.06608478802992519,0.02005848224394553,
0.06613466334164589,0.0313542510585475,
0.06618453865336658,0.01809588423780497,
0.06623441396508728,0.0008470082033657164,
0.06628428927680798,0.009288820419658141,
0.06633416458852869,0.029469811616091596,
0.06638403990024938,0.016188513886593855,
0.06643391521197008,0.03992355313164167,
0.06648379052369077,0.025996377994114417,
0.06653366583541147,0.0628503840036361,
0.06658354114713216,0.028854477396939797,
0.06663341645885287,0.06665410593810607,
0.06668329177057357,0.031202925522283303,
0.06673316708229426,0.03837212583077439,
0.06678304239401496,0.021482194956089603,
0.06683291770573566,0.02487457786933286,
0.06688279301745637,0.010558119898578426,
0.06693266832917706,0.009140936474011482,
0.06698254364089776,0.019881369969079014,
0.06703241895261845,0.0356663874294777,
0.06708229426433915,0.010261844047542566,
0.06713216957605984,0.04674508952226173,
0.06718204488778055,0.03881237432256767,
0.06723192019950125,0.022993087449948265,
0.06728179551122195,0.004566615068274622,
0.06733167082294264,0.010723300231441146,
0.06738154613466334,0.0512181754739713,
0.06743142144638405,0.03018791135724716,
0.06748129675810474,0.02270935541840677,
0.06753117206982544,0.036954803398513314,
0.06758104738154613,0.044924286781352865,
0.06763092269326683,0.0018871081827352282,
0.06768079800498752,0.04534896221644665,
0.06773067331670823,0.03297966900405053,
0.06778054862842893,0.05216771551008431,
0.06783042394014963,0.017127873230650993,
0.06788029925187032,0.0010710964638786756,
0.06793017456359102,0.01725854315993365,
0.06798004987531173,0.008368840985808439,
0.06802992518703242,0.03094441653673871,
0.06807980049875312,0.016473269174917475,
0.06812967581047381,0.021348183467723495,
0.06817955112219451,0.010367588422433446,
0.0682294264339152,0.01635316857276521,
0.06827930174563591,-0.004570403661582349,
0.06832917705735661,0.020485808928406395,
0.0683790523690773,0.034044866374857805,
0.068428927680798,0.05607683112775415,
0.0684788029925187,0.01778302820487419,
0.06852867830423941,0.03281647941725134,
0.0685785536159601,0.031135735477025375,
0.0686284289276808,0.047208044833645664,
0.0686783042394015,0.010111381788028775,
0.06872817955112219,0.029416127320609345,
0.0687780548628429,0.018251025914250606,
0.0688279301745636,0.02332366567456934,
0.06887780548628429,0.022466374354230278,
0.06892768079800499,0.005890361580543419,
0.06897755610972568,-0.018169147031957246,
0.06902743142144638,0.026515985643701626,
0.06907730673316709,0.00952968978556993,
0.06912718204488778,-0.025725114314809356,
0.06917705735660848,0.03976553105328091,
0.06922693266832917,0.0017821298532566462,
0.06927680798004987,0.01824817312587483,
0.06932668329177058,0.028088284724099154,
0.06937655860349128,0.0030462613671502527,
0.06942643391521197,0.03664966773070349,
0.06947630922693267,0.0393695987799784,
0.06952618453865336,-0.01015511886996728,
0.06957605985037406,0.014210066867616888,
0.06962593516209477,0.0027068402121852957,
0.06967581047381546,0.015617044595757523,
0.06972568578553616,0.012742793792429768,
0.06977556109725686,-0.01409375462969665,
0.06982543640897755,0.026215493894475743,
0.06987531172069826,0.01333344483965104,
0.06992518703241896,0.007890974656599992,
0.06997506234413965,-0.015027182233993127,
0.07002493765586035,0.005793813657185885,
0.07007481296758104,-0.00030006039340469554,
0.07012468827930174,0.006492735578420989,
0.07017456359102245,0.021303222903706332,
0.07022443890274314,0.001913336085856773,
0.07027431421446384,0.022319128024834912,
0.07032418952618454,0.0335912247721105,
0.07037406483790523,0.005677736590003996,
0.07042394014962594,0.02188375107400552,
0.07047381546134664,0.01189401627823625,
0.07052369077306733,-0.012630245255846393,
0.07057356608478803,0.017103915743239637,
0.07062344139650872,-0.036600547177609556,
0.07067331670822943,0.007316560717245942,
0.07072319201995013,0.029546296326849582,
0.07077306733167082,0.015116034244352719,
0.07082294264339152,-0.015276589793619866,
0.07087281795511222,0.0006852507317804167,
0.07092269326683291,0.0036320749791942395,
0.07097256857855362,-0.009737503146891285,
0.07102244389027432,0.0006906683857057184,
0.07107231920199501,-0.00919928046466505,
0.07112219451371571,0.001123269928932903,
0.0711720698254364,-0.009208473596733395,
0.07122194513715711,-0.014011955539476673,
0.07127182044887781,0.03742802634319883,
0.0713216957605985,0.015662494713580045,
0.0713715710723192,-0.00010162734312934045,
0.0714214463840399,-0.01658902462921456,
0.07147132169576059,0.010113393936254005,
0.0715211970074813,0.007015141253254522,
0.071571072319202,-0.00962213132144251,
0.0716209476309227,0.0035589899267325456,
0.07167082294264339,0.003404307840754775,
0.07172069825436408,0.006239727373687506,
0.0717705735660848,0.02986822410995526,
0.07182044887780549,0.0034088100652197575,
0.07187032418952619,0.013634632561468279,
0.07192019950124688,-0.018199906142626246,
0.07197007481296758,-0.012692229343111518,
0.07201995012468827,0.002350904816344541,
0.07206982543640898,0.012308405442978603,
0.07211970074812968,-0.0015113601858066648,
0.07216957605985037,0.0025521701082024447,
0.07221945137157107,-0.0018250022800304342,
0.07226932668329177,0.012940629767782652,
0.07231920199501247,-0.007291337402486291,
0.07236907730673317,-0.024295501368277555,
0.07241895261845387,0.031411986188834624,
0.07246882793017456,0.005988781194890362,
0.07251870324189526,-0.0019302419945477585,
0.07256857855361595,0.010551501662959768,
0.07261845386533666,-0.019732415673695946,
0.07266832917705736,0.009134692314118311,
0.07271820448877805,0.00690098880735377,
0.07276807980049875,0.027938578192696916,
0.07281795511221945,-0.009433426828430062,
0.07286783042394016,-0.030230739184350396,
0.07291770573566085,0.01277923951895911,
0.07296758104738155,-0.02059306326528821,
0.07301745635910224,0.02786988871948725,
0.07306733167082294,-0.0145240328523235,
0.07311720698254365,-0.01171416606491461,
0.07316708229426434,-0.016986533901831188,
0.07321695760598504,0.001556909439770355,
0.07326683291770573,-0.03483679465252677,
0.07331670822942643,-0.03391623457098489,
0.07336658354114713,-0.01421131705006676,
0.07341645885286784,-0.018415123571870782,
0.07346633416458853,-0.0106683718213108,
0.07351620947630923,-0.01284723260260349,
0.07356608478802992,0.007267107617224197,
0.07361596009975062,-0.013971897925360436,
0.07366583541147133,0.006578266176081447,
0.07371571072319202,-0.01870330245087619,
0.07376558603491272,-0.022644964914104802,
0.07381546134663342,-0.013482382786533728,
0.07386533665835411,-0.004550232364985919,
0.0739152119700748,0.0014676997350628815,
0.07396508728179552,0.005512867769299913,
0.07401496259351621,-0.009924446539470395,
0.07406483790523691,-0.01771651505484053,
0.0741147132169576,-0.011573956788245281,
0.0741645885286783,-0.008324279152905576,
0.07421446384039901,-0.02615121771350741,
0.0742643391521197,-0.022024867676918407,
0.0743142144638404,-0.03132150382966988,
0.0743640897755611,-0.021817487265590997,
0.07441396508728179,0.022040215855910372,
0.07446384039900249,-0.04447060100987523,
0.0745137157107232,-0.013439292842523586,
0.07456359102244389,-0.01024460355381392,
0.07461346633416459,-0.0051981258029083635,
0.07466334164588528,-0.0058816123026888545,
0.07471321695760598,-0.041162159857898006,
0.07476309226932669,-0.01353526544238509,
0.07481296758104738,-0.026846292045489502,
0.07486284289276808,-0.025788139031210848,
0.07491271820448878,-0.01750687431914845,
0.07496259351620947,0.027059487044567936,
0.07501246882793017,-0.011818935242147614,
0.07506234413965088,-0.0019438884479742943,
0.07511221945137157,-0.031611072763896166,
0.07516209476309227,-0.029932438905762904,
0.07521197007481296,-0.02004562390171073,
0.07526184538653366,-0.005592617705122661,
0.07531172069825437,-0.010702703468571093,
0.07536159600997507,-0.03874300366475136,
0.07541147132169576,0.0038250993928976244,
0.07546134663341646,-0.013515714974508866,
0.07551122194513715,-0.021583769435678128,
0.07556109725685786,-0.03211474722052819,
0.07561097256857856,-0.015071875765608023,
0.07566084788029925,-0.023354939103481277,
0.07571072319201995,-0.014702419412140757,
0.07576059850374064,-0.012282169081712079,
0.07581047381546134,0.0014702342464062833,
0.07586034912718205,-0.02498835773268076,
0.07591022443890275,-0.016386468145324087,
0.07596009975062344,-0.002507139241057386,
0.07600997506234414,-0.01154865174396403,
0.07605985037406483,-0.026018133874735803,
0.07610972568578554,-0.02340993126013479,
0.07615960099750624,-0.00011869524136573495,
0.07620947630922693,-0.023257803022166262,
0.07625935162094763,-0.00791651350143204,
0.07630922693266833,-0.055596106406844585,
0.07635910224438902,-0.014816545936952103,
0.07640897755610973,-0.018335747023506696,
0.07645885286783043,0.0018166573232861194,
0.07650872817955112,-0.023167049214912087,
0.07655860349127182,-0.030855644365656437,
0.07660847880299251,0.0096390720176683,
0.07665835411471322,0.0021910788067453415,
0.07670822942643392,-0.002721736137877191,
0.07675810473815461,-0.013688148035587223,
0.07680798004987531,-0.010531848977288729,
0.076857855361596,-0.019651741756266872,
0.0769077306733167,-0.03313590273251085,
0.07695760598503741,-0.024008839166259004,
0.0770074812967581,-0.01916313672150003,
0.0770573566084788,0.0009124666403964327,
0.0771072319201995,-0.004771356749027853,
0.0771571072319202,-0.0066728822572728885,
0.0772069825436409,-0.012778897825813054,
0.0772568578553616,-0.003747757952454984,
0.0773067331670823,-0.020688519740490827,
0.07735660847880299,-0.009143985319417937,
0.07740648379052369,-0.008010208725314329,
0.0774563591022444,-0.01655682197748518,
0.07750623441396509,-0.0255286073016672,
0.07755610972568579,-0.03284377887800685,
0.07760598503740648,-0.006856434065067302,
0.07765586034912718,0.02194517355419594,
0.07770573566084787,-0.010386356099599845,
0.07775561097256858,0.00867234871327929,
0.07780548628428928,-0.006878699733483909,
0.07785536159600998,-0.00917917090634279,
0.07790523690773067,-0.022800988605760804,
0.07795511221945137,-0.016967675657134917,
0.07800498753117208,-0.015965279695462263,
0.07805486284289277,-0.017628928953309433,
0.07810473815461347,0.0031062082956263577,
0.07815461346633416,0.024036124181514733,
0.07820448877805486,0.011111568712562473,
0.07825436408977555,-0.01561145962680824,
0.07830423940149626,0.0012809344388283184,
0.07835411471321696,-0.006866295442790328,
0.07840399002493766,-0.005571495197385954,
0.07845386533665835,0.0019475396280090214,
0.07850374064837905,-0.011335129551176196,
0.07855361596009976,-0.0011843656671419534,
0.07860349127182045,-0.020068605932468724,
0.07865336658354115,-0.005314771918686343,
0.07870324189526184,-0.00717693083684961,
0.07875311720698254,-0.013763303601147537,
0.07880299251870324,-0.0023373213478224113,
0.07885286783042394,-6.55025626133416e-05,
0.07890274314214464,-0.00709460459607788,
0.07895261845386534,-0.021101554834429746,
0.07900249376558603,0.014524124029455156,
0.07905236907730673,-0.008579647191156042,
0.07910224438902744,-0.009871569061163002,
0.07915211970074813,-0.01561032004083628,
0.07920199501246883,0.028353825299748104,
0.07925187032418952,-0.017219156042507854,
0.07930174563591022,-0.002863924486648202,
0.07935162094763092,-0.0002504847294838228,
0.07940149625935163,0.0180491913775004,
0.07945137157107232,0.012584425664523653,
0.07950124688279302,-0.0007769924244464704,
0.07955112219451371,-0.020115635115764068,
0.07960099750623441,0.0039791729220630505,
0.07965087281795512,-0.007517389792864894,
0.07970074812967581,0.003055539833296545,
0.07975062344139651,-0.011000249542432351,
0.0798004987531172,-0.019443694109825986,
0.0798503740648379,-0.006435625251473136,
0.07990024937655861,0.009733842816264847,
0.0799501246882793,-0.023643504909063053,
0.08,0.023564740646014822,
0.0800498753117207,0.007432554154377166,
0.0800997506234414,0.03347132797292252,
0.08014962593516209,-0.01461912302137131,
0.0801995012468828,0.0060670999656969845,
0.0802493765586035,0.01179033938590188,
0.08029925187032419,0.027268931474945482,
0.08034912718204489,-0.008474036320365738,
0.08039900249376558,-0.01487299733877137,
0.08044887780548629,-0.00380978408836054,
0.08049875311720699,-0.018748556438309562,
0.08054862842892768,0.017009363383480743,
0.08059850374064838,-0.011267816660703731,
0.08064837905236907,0.02797724590700518,
0.08069825436408977,0.004826030098652111,
0.08074812967581048,0.013206054940569534,
0.08079800498753117,0.018894115150077665,
0.08084788029925187,0.012180762109589996,
0.08089775561097257,0.0013099609712800553,
0.08094763092269326,0.04066390974386485,
0.08099750623441397,-0.009853546022769978,
0.08104738154613467,0.004043472445814224,
0.08109725685785536,0.02666083559153872,
0.08114713216957606,0.03145239345611538,
0.08119700748129675,0.01981784238189642,
0.08124688279301745,0.031233216671971917,
0.08129675810473816,0.0004900213681810223,
0.08134663341645886,0.024889742113912296,
0.08139650872817955,0.002441281033847214,
0.08144638403990025,0.0047899017422578065,
0.08149625935162094,0.01927709475928622,
0.08154613466334165,0.021408013401201104,
0.08159600997506235,-0.02318099791974073,
0.08164588528678304,0.022595084176319148,
0.08169576059850374,-0.007766447494063739,
0.08174563591022443,-0.0030370901116069486,
0.08179551122194513,0.022462784287389893,
0.08184538653366584,-0.012307449334791486,
0.08189526184538654,0.02183214169905396,
0.08194513715710723,0.015198691079517438,
0.08199501246882793,0.0050231033523270964,
0.08204488778054862,-0.019572661228270144,
0.08209476309226933,0.02839688470085224,
0.08214463840399003,0.030623729068598247,
0.08219451371571072,0.006388302150836078,
0.08224438902743142,-0.009193604455571845,
0.08229426433915212,0.006938723721893331,
0.08234413965087282,0.019632623140584515,
0.08239401496259352,0.014359894503816441,
0.08244389027431422,0.03796491544943743,
0.08249376558603491,0.011020682130782706,
0.08254364089775561,0.012262321676512792,
0.0825935162094763,0.07050891176644009,
0.08264339152119701,0.015455212478170223,
0.08269326683291771,0.03340171450020249,
0.0827431421446384,0.017863833345260566,
0.0827930174563591,0.02986287419561777,
0.0828428927680798,0.01094535473713757,
0.0828927680798005,-0.003052861199497478,
0.0829426433915212,0.014311199355234422,
0.0829925187032419,0.024730180221347948,
0.08304239401496259,0.030426095905079234,
0.08309226932668329,0.021962535736150906,
0.08314214463840398,0.01945622490783867,
0.0831920199501247,0.03996793185482768,
0.08324189526184539,0.009722798444491228,
0.08329177057356608,0.02678787060054497,
0.08334164588528678,0.015263041137278305,
0.08339152119700748,-0.006693743904280448,
0.08344139650872819,0.02365257557035772,
0.08349127182044888,-0.008661690207288898,
0.08354114713216958,0.031566310799794335,
0.08359102244389027,0.018441565369364046,
0.08364089775561097,0.05043258971091946,
0.08369077306733166,0.04614289042543927,
0.08374064837905237,0.005948944724209881,
0.08379052369077307,-0.0065322061456666684,
0.08384039900249377,0.004716562740998607,
0.08389027431421446,0.05741413023506186,
0.08394014962593516,0.016151704847679547,
0.08399002493765587,0.012158733509502416,
0.08403990024937656,0.018745035957464965,
0.08408977556109726,0.02108031217665958,
0.08413965087281795,0.025508611610026856,
0.08418952618453865,0.004873782542858935,
0.08423940149625936,0.03442275190502834,
0.08428927680798005,0.04872527501015866,
0.08433915211970075,0.04367806149128409,
0.08438902743142145,0.011400982196228638,
0.08443890274314214,0.014778096282602276,
0.08448877805486284,0.027778097657453035,
0.08453865336658355,0.024758959729232734,
0.08458852867830424,0.035975419952376665,
0.08463840399002494,0.013421187646885085,
0.08468827930174563,0.0434131196694148,
0.08473815461346633,0.02366219286212742,
0.08478802992518704,0.02556018444028605,
0.08483790523690773,0.004860989349567621,
0.08488778054862843,0.03604394709832698,
0.08493765586034913,0.020770902219187606,
0.08498753117206982,0.01858833168862062,
0.08503740648379052,0.02043524082777331,
0.08508728179551123,0.02424928740343454,
0.08513715710723192,0.02281852726903856,
0.08518703241895262,0.02147039623145131,
0.08523690773067331,0.06061155743592354,
0.08528678304239401,0.036107154359465085,
0.08533665835411472,0.03480341053445385,
0.08538653366583542,0.024376671993414832,
0.08543640897755611,0.030006350942556357,
0.0854862842892768,0.025523012489003113,
0.0855361596009975,0.012172679689364538,
0.0855860349127182,0.018895680555212933,
0.08563591022443891,0.04315742111001006,
0.0856857855361596,0.026084481147779167,
0.0857356608478803,0.025933936368394663,
0.085785536159601,0.04108542676160075,
0.08583541147132169,0.01290790447985332,
0.0858852867830424,0.03088511667887344,
0.0859351620947631,0.029600393218002223,
0.08598503740648379,0.004183039181498191,
0.08603491271820449,0.01247725313765486,
0.08608478802992518,0.029164151040326408,
0.08613466334164588,0.014587837545766077,
0.08618453865336659,0.0164527425245288,
0.08623441396508728,0.04071085186638193,
0.08628428927680798,0.019182470386090243,
0.08633416458852868,0.04835302675717766,
0.08638403990024937,0.03522342778782838,
0.08643391521197008,0.045393964684109424,
0.08648379052369078,0.05098947169725273,
0.08653366583541147,0.03802106520825306,
0.08658354114713217,0.04008333795658747,
0.08663341645885286,0.031078988336051376,
0.08668329177057357,0.024571010634231307,
0.08673316708229427,0.04431007952833166,
0.08678304239401496,0.061361962304517514,
0.08683291770573566,0.036070833031658624,
0.08688279301745636,0.041467806817715974,
0.08693266832917705,0.032434831248930006,
0.08698254364089776,0.029986982178113096,
0.08703241895261846,0.04024746594038,
0.08708229426433915,0.03040119642586547,
0.08713216957605985,0.033877952668387085,
0.08718204488778054,0.01538594367466372,
0.08723192019950125,0.01117723797985926,
0.08728179551122195,0.004264877858193079,
0.08733167082294264,0.01840195827022584,
0.08738154613466334,0.025462739137991384,
0.08743142144638404,0.019969759733392572,
0.08748129675810473,0.04323349670158651,
0.08753117206982544,0.03826719793143292,
0.08758104738154614,0.0098671481358933,
0.08763092269326683,0.0271519107274884,
0.08768079800498753,-0.004338524691501516,
0.08773067331670822,0.02453858757769274,
0.08778054862842893,0.030878975622914622,
0.08783042394014963,0.031715014512056446,
0.08788029925187033,0.025164364862467533,
0.08793017456359102,0.02125513421817357,
0.08798004987531172,0.0341445127293402,
0.08802992518703241,0.015002189615695629,
0.08807980049875312,0.023051446700683126,
0.08812967581047382,0.008240122896404675,
0.08817955112219451,0.032439026264241486,
0.08822942643391521,0.023585461406735446,
0.0882793017456359,0.038976568526353804,
0.08832917705735661,0.025851416085939227,
0.08837905236907731,0.00512526240527094,
0.088428927680798,0.009902057487095706,
0.0884788029925187,0.03337551346786907,
0.0885286783042394,0.05290134092185447,
0.0885785536159601,0.01420740108604576,
0.0886284289276808,0.007874356862499403,
0.0886783042394015,0.017072887476068763,
0.0887281795511222,0.012067962247194745,
0.08877805486284289,0.005800444248761324,
0.08882793017456359,0.01024292628957551,
0.0888778054862843,0.024544414058401205,
0.08892768079800499,-0.011877824652614128,
0.08897755610972569,0.04427154600511652,
0.08902743142144638,0.04427822676094346,
0.08907730673316708,0.013667134482152819,
0.08912718204488779,0.00410110325718302,
0.08917705735660848,0.005320928856909079,
0.08922693266832918,0.0056203557258963244,
0.08927680798004987,0.027097221737901883,
0.08932668329177057,-0.020939880080069348,
0.08937655860349127,0.008667723453258919,
0.08942643391521198,0.024944576838106296,
0.08947630922693267,0.04287881743869783,
0.08952618453865337,-0.012795935419302597,
0.08957605985037406,-0.0013341966221806466,
0.08962593516209476,0.03367075520683914,
0.08967581047381547,0.01153510383562658,
0.08972568578553616,-0.01565776090803342,
0.08977556109725686,0.023546247579814883,
0.08982543640897755,0.011832063569995681,
0.08987531172069825,0.02109777034155045,
0.08992518703241895,0.01498926474595105,
0.08997506234413966,0.005577731558965005,
0.09002493765586035,0.0076068207940601885,
0.09007481296758105,0.013247171941604947,
0.09012468827930174,0.009816937902583738,
0.09017456359102244,-0.010088836350013553,
0.09022443890274315,0.007890579358271798,
0.09027431421446384,0.0267971876325759,
0.09032418952618454,0.01648656371479114,
0.09037406483790524,-0.001163557976634635,
0.09042394014962593,0.00501563766626657,
0.09047381546134663,0.02102140035162408,
0.09052369077306734,0.007678663688813644,
0.09057356608478803,0.010582091875418627,
0.09062344139650873,0.008361264761558027,
0.09067331670822942,0.02202572125244142,
0.09072319201995012,0.03716303915169896,
0.09077306733167083,0.005932872033324035,
0.09082294264339152,0.03177317203255047,
0.09087281795511222,0.03531264713600187,
0.09092269326683292,0.01286759290571547,
0.09097256857855361,0.0011581637127106312,
0.09102244389027432,-0.009592911418417942,
0.09107231920199502,0.017303670517316065,
0.09112219451371571,2.585972351335647e-05,
0.09117206982543641,0.015416453030441802,
0.0912219451371571,0.018565488925742234,
0.0912718204488778,0.03772498946819206,
0.09132169576059851,-0.011131098053324656,
0.0913715710723192,0.018141221394827302,
0.0914214463840399,0.005728924456061058,
0.0914713216957606,0.007272442782730794,
0.09152119700748129,0.024859025995256606,
0.091571072319202,-0.015304732031016663,
0.0916209476309227,-0.01744775957711958,
0.09167082294264339,0.013032542829134616,
0.09172069825436409,0.010146370248960607,
0.09177057356608478,0.019525875298704445,
0.09182044887780548,0.0014675978159349719,
0.09187032418952619,0.01564565310493386,
0.09192019950124689,0.004366434546612289,
0.09197007481296758,0.016653746882923717,
0.09201995012468828,0.005203872285494331,
0.09206982543640897,-0.009103502124505693,
0.09211970074812968,0.009902469796764738,
0.09216957605985038,-0.007986963455644907,
0.09221945137157107,-0.025816083061593442,
0.09226932668329177,0.01657109839090474,
0.09231920199501246,0.0009064980654111881,
0.09236907730673316,0.006306530897967998,
0.09241895261845387,-0.007075623372197533,
0.09246882793017457,-0.005375567068514192,
0.09251870324189526,-0.010753933410747691,
0.09256857855361596,-0.014082384548465167,
0.09261845386533665,0.0088934769516033,
0.09266832917705736,0.0005937524993609167,
0.09271820448877806,0.003297247819894996,
0.09276807980049875,-0.018997118479385972,
0.09281795511221945,-0.005844735612982693,
0.09286783042394015,-0.04508253738826808,
0.09291770573566084,-0.002216574166323196,
0.09296758104738155,-0.03593851542457482,
0.09301745635910225,-0.01634059379163754,
0.09306733167082294,-0.002172585862573135,
0.09311720698254364,-0.005566655360756589,
0.09316708229426433,0.010773676232850748,
0.09321695760598504,-0.013643983058166574,
0.09326683291770574,-0.024615275718898898,
0.09331670822942643,-0.02439871654103313,
0.09336658354114713,-0.007562447188399179,
0.09341645885286783,-0.0070194221890096595,
0.09346633416458854,-0.029151269774766564,
0.09351620947630923,-0.009910374285505768,
0.09356608478802993,-0.013973168988068649,
0.09361596009975062,0.018702569766149812,
0.09366583541147132,-0.003589885154589959,
0.09371571072319201,0.009408205139726664,
0.09376558603491272,-0.004442602712590253,
0.09381546134663342,-0.008711290742348204,
0.09386533665835411,-0.003142903430635854,
0.09391521197007481,-0.005092065466001824,
0.0939650872817955,0.013124469299767693,
0.09401496259351622,0.03049235996341428,
0.09406483790523691,-0.017963393616877477,
0.09411471321695761,0.039183918393880496,
0.0941645885286783,-0.018473240012734593,
0.094214463840399,-0.011018140266206962,
0.0942643391521197,-0.005643240853523967,
0.0943142144638404,-0.009800592922350507,
0.0943640897755611,0.011023865824638407,
0.0944139650872818,-0.028861643619744838,
0.09446384039900249,0.012141987645624545,
0.09451371571072319,-0.02104669013481484,
0.0945635910224439,-0.005547580542648657,
0.09461346633416459,-0.0327835868382714,
0.09466334164588529,-0.025313733348774056,
0.09471321695760598,-0.029602953231385343,
0.09476309226932668,-0.01762333519971858,
0.09481296758104737,0.006311964401088322,
0.09486284289276808,-0.019353759564443216,
0.09491271820448878,-0.025085039635560108,
0.09496259351620948,-0.03588474416270165,
0.09501246882793017,-0.011374826154234385,
0.09506234413965087,-0.022941640067069207,
0.09511221945137158,0.004554003540936075,
0.09516209476309227,-0.024868459429081925,
0.09521197007481297,-0.006992017274061406,
0.09526184538653366,-0.029212054495787194,
0.09531172069825436,0.0030740875710739742,
0.09536159600997507,-0.008088074421610716,
0.09541147132169576,0.00017465703085797236,
0.09546134663341646,-0.01581542765845737,
0.09551122194513716,-0.015477979067211165,
0.09556109725685785,0.006689861958976549,
0.09561097256857855,-0.036493305263469486,
0.09566084788029926,-0.01694188719922805,
0.09571072319201995,-0.017675806047265773,
0.09576059850374065,3.8953074998735945e-05,
0.09581047381546134,-0.0007734082531111863,
0.09586034912718204,-0.008368036162805549,
0.09591022443890275,-0.0332978835032194,
0.09596009975062345,-0.0110906517743786,
0.09600997506234414,-0.014732611284319404,
0.09605985037406484,0.0055954829086727435,
0.09610972568578553,0.000894066077637961,
0.09615960099750623,-0.0052792417832326684,
0.09620947630922694,-0.019674021650504313,
0.09625935162094763,-0.0022796857974888216,
0.09630922693266833,-0.011815005270571038,
0.09635910224438902,-0.029319933637570718,
0.09640897755610972,-0.005471421045654834,
0.09645885286783043,-0.017864380273306946,
0.09650872817955113,-0.02552689767980005,
0.09655860349127182,0.0225367158416439,
0.09660847880299252,-0.005942653639937938,
0.09665835411471321,-0.027130330343774316,
0.09670822942643391,-0.009122799145680729,
0.09675810473815462,-0.025412063907564612,
0.09680798004987531,-0.01361976632780632,
0.09685785536159601,-0.009001288759975048,
0.0969077306733167,-0.027362491839048805,
0.0969576059850374,-0.008493855933969978,
0.09700748129675811,0.0008600154267378087,
0.0970573566084788,0.0019300030965601362,
0.0971072319201995,-0.02597006862824394,
0.0971571072319202,-0.01873809515932467,
0.0972069825436409,-0.005422358387101605,
0.09725685785536159,0.010933178633691382,
0.0973067331670823,0.0009636413869646247,
0.097356608478803,-0.02342857279451325,
0.09740648379052369,0.00571895709598084,
0.09745635910224439,-0.01374737644587443,
0.09750623441396508,-0.0004963598857997079,
0.09755610972568579,-0.037998199638757044,
0.09760598503740649,-0.016202810756569843,
0.09765586034912718,-0.01142733523431293,
0.09770573566084788,-0.005079935527164113,
0.09775561097256857,-0.02236290186512998,
0.09780548628428928,-0.026307055544674166,
0.09785536159600998,-0.01055514068487067,
0.09790523690773068,-0.008983141368968757,
0.09795511221945137,0.004636352886378498,
0.09800498753117207,-0.017535733885949104,
0.09805486284289276,-0.04960974751261556,
0.09810473815461347,-0.022100726060708127,
0.09815461346633417,-0.026440355974916854,
0.09820448877805486,0.0006757210653668523,
0.09825436408977556,-0.02219870808955999,
0.09830423940149625,0.002257529164369192,
0.09835411471321696,-0.001777000403669465,
0.09840399002493766,0.0010942882575290334,
0.09845386533665836,-0.018461317471364397,
0.09850374064837905,-0.016176067149457886,
0.09855361596009975,-0.011152060299037297,
0.09860349127182044,-0.019031714550121724,
0.09865336658354115,0.007665362827543766,
0.09870324189526185,-0.004154067889620312,
0.09875311720698254,0.0019324025796445404,
0.09880299251870324,0.015505862859432151,
0.09885286783042393,-0.011966168442494794,
0.09890274314214464,-0.02742376256667407,
0.09895261845386534,0.010413085434754457,
0.09900249376558604,0.020003412965681817,
0.09905236907730673,0.0026042708533368063,
0.09910224438902743,0.016407037592626805,
0.09915211970074812,0.002057309767158134,
0.09920199501246883,-0.009281034358908227,
0.09925187032418953,0.0013748760306130257,
0.09930174563591022,0.013732000848169243,
0.09935162094763092,0.007371947066618378,
0.09940149625935162,-0.021643970827029388,
0.09945137157107233,-0.002554792007729067,
0.09950124688279302,-0.0023792155195041962,
0.09955112219451372,-0.0038811440843788568,
0.09960099750623441,-0.017769326827110663,
0.09965087281795511,-0.017941355341230647,
0.0997007481296758,-0.0016477470273680392,
0.09975062344139651,-0.0006523906316007451,
0.09980049875311721,0.014061545733698926,
0.0998503740648379,-0.00034817793044430306,
0.0999002493765586,-0.002718093424209719,
0.0999501246882793,-0.008515882020372734,
0.1,0.001046538842149591,
0.1000498753117207,0.0026000033566448335,
0.1000997506234414,-0.003620086201919599,
0.10014962593516209,-0.0034018071778662727,
0.10019950124688279,0.012855136544754798,
0.1002493765586035,0.023479232776846517,
0.1002992518703242,0.013988280914613538,
0.10034912718204489,-0.00724533300352973,
0.10039900249376559,-0.017456598092457337,
0.10044887780548628,-0.0014992735653748769,
0.10049875311720698,-0.004980984352320484,
0.10054862842892769,0.006033948916152578,
0.10059850374064838,-0.003227691531861372,
0.10064837905236908,0.02620876193433496,
0.10069825436408977,0.014234739505220119,
0.10074812967581047,0.0018370846062937566,
0.10079800498753118,-0.007662157186956219,
0.10084788029925187,-0.0029158211240477867,
0.10089775561097257,-0.018059503661578886,
0.10094763092269327,-0.0015506493178757963,
0.10099750623441396,0.019416280011106898,
0.10104738154613466,-0.008392799154630957,
0.10109725685785537,0.019572057401796218,
0.10114713216957606,0.00012399863985658975,
0.10119700748129676,-0.0013408844514604112,
0.10124688279301745,0.019123968778546788,
0.10129675810473815,0.023172165379894992,
0.10134663341645886,-0.0030476427146851545,
0.10139650872817955,0.020384901137324107,
0.10144638403990025,-0.0030571800401900905,
0.10149625935162095,0.018906163074060248,
0.10154613466334164,-0.0027373359907067584,
0.10159600997506234,0.019888092545376525,
0.10164588528678305,-0.00876354117143175,
0.10169576059850374,0.005343708731601106,
0.10174563591022444,-0.008674074311065285,
0.10179551122194513,0.04841290897220593,
0.10184538653366583,0.0032959877210451596,
0.10189526184538654,-0.009348970013598062,
0.10194513715710724,0.013434360894700733,
0.10199501246882793,0.02465199432251322,
0.10204488778054863,0.006667190429634764,
0.10209476309226932,0.03784045517635897,
0.10214463840399003,0.004985669414716464,
0.10219451371571073,0.04121164557468409,
0.10224438902743142,0.05028497155740222,
0.10229426433915212,0.011448608740472014,
0.10234413965087281,0.01984500404932662,
0.10239401496259351,0.01607857017472365,
0.10244389027431422,0.0008634231031506845,
0.10249376558603492,0.031131328417149787,
0.10254364089775561,-0.004443087753093572,
0.10259351620947631,0.0486159613821053,
0.102643391521197,0.035440282571583714,
0.10269326683291771,0.01396123549415879,
0.10274314214463841,0.020952799249274498,
0.1027930174563591,0.016876626602248188,
0.1028428927680798,0.02583497865866803,
0.1028927680798005,0.007748998831129958,
0.10294264339152119,0.0430910782942338,
0.1029925187032419,0.003229488075608883,
0.1030423940149626,0.005386722798247581,
0.10309226932668329,0.020823032700938975,
0.10314214463840399,0.008758705790302686,
0.10319201995012468,0.03569648052638624,
0.10324189526184539,0.02413624530831803,
0.10329177057356609,0.006604105887442105,
0.10334164588528678,0.02845866568160188,
0.10339152119700748,0.008454705704536391,
0.10344139650872818,0.030639852515324355,
0.10349127182044887,0.025512467610969435,
0.10354114713216958,0.014742525836927249,
0.10359102244389028,-0.008727874800143264,
0.10364089775561097,0.008110321697246715,
0.10369077306733167,0.022991060022809515,
0.10374064837905236,0.010423579899211182,
0.10379052369077307,-0.0036841787556229043,
0.10384039900249377,0.016461428127007946,
0.10389027431421446,0.04452560465685643,
0.10394014962593516,0.028243483871775006,
0.10399002493765586,0.019378162875315748,
0.10403990024937655,0.016989212588619147,
0.10408977556109726,0.020174948962288247,
0.10413965087281796,0.013314099541958295,
0.10418952618453865,0.03957328048513044,
0.10423940149625935,0.012237851299009053,
0.10428927680798004,0.010812340082103078,
0.10433915211970075,0.014336656703353774,
0.10438902743142145,0.008991861188988998,
0.10443890274314215,0.023190058540632594,
0.10448877805486284,0.014002353898506185,
0.10453865336658354,0.024256319346680433,
0.10458852867830425,0.042001749833313305,
0.10463840399002494,0.009416722426001774,
0.10468827930174564,0.053594871716007006,
0.10473815461346633,0.056520366041981185,
0.10478802992518703,-0.003629698198810972,
0.10483790523690772,0.004151190843298368,
0.10488778054862843,0.0400310014337946,
0.10493765586034913,-0.005205383706548085,
0.10498753117206983,0.017905452729465608,
0.10503740648379052,0.035721209089329464,
0.10508728179551122,0.03992831282534859,
0.10513715710723193,0.03288152370418932,
0.10518703241895262,-0.007016852916868946,
0.10523690773067332,0.05257789187379837,
0.10528678304239401,0.010209000463235543,
0.10533665835411471,0.04239291439709389,
0.1053865336658354,0.017557918388422016,
0.10543640897755611,0.0311553006785417,
0.10548628428927681,0.030597033964157264,
0.1055361596009975,-0.0013752041791841065,
0.1055860349127182,0.04075868371985613,
0.1056359102244389,0.03512706312095807,
0.10568578553615961,0.027119998611506903,
0.1057356608478803,0.031892409650711655,
0.105785536159601,0.026660650322113812,
0.1058354114713217,0.033172264900774504,
0.10588528678304239,0.007305898804048097,
0.10593516209476309,0.03226733815703359,
0.1059850374064838,0.06458480866644908,
0.10603491271820449,0.05627862575219203,
0.10608478802992519,0.02904318970918348,
0.10613466334164588,0.03319924380750522,
0.10618453865336658,0.06091928681336071,
0.10623441396508729,0.0328846454618925,
0.10628428927680798,0.03813948348964902,
0.10633416458852868,-0.006734510666056792,
0.10638403990024937,0.021770431103963532,
0.10643391521197007,0.03674179823260292,
0.10648379052369077,0.025678315140997054,
0.10653366583541148,0.030801731758253768,
0.10658354114713217,0.040822072611334886,
0.10663341645885287,0.01889764662283346,
0.10668329177057356,0.048404666977724636,
0.10673316708229426,0.0517269057996162,
0.10678304239401497,0.021240264233800946,
0.10683291770573566,0.022597463049633663,
0.10688279301745636,0.030163591209018396,
0.10693266832917706,0.009891969810175198,
0.10698254364089775,0.022456383675380942,
0.10703241895261846,0.026287242401526245,
0.10708229426433916,0.0266089921302558,
0.10713216957605985,0.02876381951735784,
0.10718204488778055,-0.0018496553366514276,
0.10723192019950124,0.0037116925849973656,
0.10728179551122194,0.03836243380765417,
0.10733167082294265,0.02392225397484328,
0.10738154613466334,0.04924920569766528,
0.10743142144638404,0.030894958002269452,
0.10748129675810474,0.025608439935216106,
0.10753117206982543,0.01289241725099341,
0.10758104738154614,0.020272998112216018,
0.10763092269326684,0.04559202570113999,
0.10768079800498753,0.04017295777418785,
0.10773067331670823,0.01810902626277295,
0.10778054862842892,0.04620030656041875,
0.10783042394014962,0.04513833859110958,
0.10788029925187033,0.018750161110696204,
0.10793017456359102,0.005204148137232301,
0.10798004987531172,0.016125323136431544,
0.10802992518703242,0.026839614228693614,
0.10807980049875311,0.016634113175796415,
0.10812967581047382,-0.010906738798745916,
0.10817955112219452,0.024961862106042128,
0.10822942643391521,0.04908145109285178,
0.10827930174563591,0.024663795539172875,
0.1083291770573566,0.034228128281238626,
0.1083790523690773,0.045218272025848265,
0.10842892768079801,0.01734164012678526,
0.1084788029925187,0.01396368113794926,
0.1085286783042394,-0.006980665335946389,
0.1085785536159601,-0.0005682006090658408,
0.10862842892768079,0.015709115172282396,
0.1086783042394015,0.018964193566764515,
0.1087281795511222,0.05841765385311823,
0.1087780548628429,0.021444110225390202,
0.10882793017456359,0.03221991576284025,
0.10887780548628428,0.031436973799473134,
0.108927680798005,0.008535793331618679,
0.10897755610972569,0.024379118392872233,
0.10902743142144639,0.002369554865952965,
0.10907730673316708,0.016796993533517903,
0.10912718204488778,0.033729101270892826,
0.10917705735660847,0.03934396898093657,
0.10922693266832918,0.04891892316922211,
0.10927680798004988,0.021390361782942915,
0.10932668329177057,0.03767620530071468,
0.10937655860349127,0.003442406004483086,
0.10942643391521197,0.032452021777780886,
0.10947630922693267,0.022709705512664838,
0.10952618453865337,0.0012343440810766906,
0.10957605985037407,0.034112150232950236,
0.10962593516209476,0.012872983610608065,
0.10967581047381546,0.014776160752656047,
0.10972568578553615,0.0012107759725374853,
0.10977556109725686,0.049394451125419916,
0.10982543640897756,0.00305571815155415,
0.10987531172069825,0.0021812614723291466,
0.10992518703241895,0.00724886468396785,
0.10997506234413965,0.009754803752638999,
0.11002493765586036,-0.001296171201078949,
0.11007481296758105,0.031631665903321005,
0.11012468827930175,0.03398247819426577,
0.11017456359102244,-0.01848021817251613,
0.11022443890274314,0.0003419743150976824,
0.11027431421446383,0.017794988100006383,
0.11032418952618454,0.008422654993051169,
0.11037406483790524,-0.006393370377618425,
0.11042394014962593,0.011874429475941434,
0.11047381546134663,0.013906329266500358,
0.11052369077306733,-0.015624039264067226,
0.11057356608478804,-0.006896323749658822,
0.11062344139650873,-0.0005143513770544967,
0.11067331670822943,-0.01074042488644069,
0.11072319201995012,0.02814778005365249,
0.11077306733167082,0.004853479171992557,
0.11082294264339151,0.007210818031427627,
0.11087281795511222,0.017456371070241714,
0.11092269326683292,-0.002841164110897765,
0.11097256857855362,0.012970114546961942,
0.11102244389027431,0.009031470403920976,
0.111072319201995,0.01332379300045921,
0.11112219451371572,0.007617174538788479,
0.11117206982543641,0.02780643160101973,
0.11122194513715711,-0.010296004112848166,
0.1112718204488778,-0.0014246236309842864,
0.1113216957605985,0.005900658790588389,
0.11137157107231921,0.02820824497326833,
0.1114214463840399,0.04323752556191781,
0.1114713216957606,0.03269197056290012,
0.1115211970074813,-0.0009618086251213798,
0.11157107231920199,0.009451417313294581,
0.11162094763092269,0.004336477196186194,
0.1116708229426434,0.008696808969918169,
0.11172069825436409,-0.0012014247624173718,
0.11177057356608479,0.0004611436018724085,
0.11182044887780548,0.012696746790023479,
0.11187032418952618,-0.012119167676739147,
0.11192019950124689,-0.00417599458301946,
0.11197007481296758,0.006826577903923826,
0.11201995012468828,0.01150428936486309,
0.11206982543640898,0.003231461202311093,
0.11211970074812967,0.011148831529465254,
0.11216957605985037,0.01563454109894357,
0.11221945137157108,-0.009760987047444162,
0.11226932668329177,-0.010770393240970877,
0.11231920199501247,-0.012520293544129566,
0.11236907730673316,-0.012427685938586315,
0.11241895261845386,-0.009049107952862458,
0.11246882793017457,0.010534821502612184,
0.11251870324189527,0.015668335153874814,
0.11256857855361596,0.013344884534786423,
0.11261845386533666,0.0019813952870365017,
0.11266832917705735,-0.006894066454425647,
0.11271820448877805,0.0034088877133001206,
0.11276807980049876,0.006448115014671048,
0.11281795511221945,-0.015575519271062594,
0.11286783042394015,-0.022938427131291877,
0.11291770573566084,-0.005039763291188693,
0.11296758104738154,-0.012438136129411333,
0.11301745635910225,-0.02719119721548928,
0.11306733167082295,0.013688574656115112,
0.11311720698254364,0.000482476940878304,
0.11316708229426434,-0.01166396906918293,
0.11321695760598503,-0.014036867356977921,
0.11326683291770574,0.013671257607854861,
0.11331670822942644,-0.034312937343003516,
0.11336658354114713,-0.00605684620018438,
0.11341645885286783,-0.01776746013025158,
0.11346633416458853,-0.0262447668471847,
0.11351620947630922,-0.028511126842383577,
0.11356608478802993,-0.026682527633076134,
0.11361596009975063,0.0010322837467428708,
0.11366583541147132,-0.02300971980754221,
0.11371571072319202,0.01907892390828335,
0.11376558603491271,-0.014548226162977965,
0.11381546134663342,0.0044951756878632045,
0.11386533665835412,-0.02012644938783939,
0.11391521197007481,-0.01601773325856093,
0.11396508728179551,-0.011140879108806801,
0.1140149625935162,0.00872735805338678,
0.1140648379052369,-0.016067332342562416,
0.11411471321695761,-0.038078776762317815,
0.1141645885286783,-0.0011547661499835887,
0.114214463840399,-0.004547337562627881,
0.1142643391521197,-0.01788529345961552,
0.1143142144638404,-0.024389872606637462,
0.1143640897755611,0.028097815281943897,
0.1144139650872818,-0.015662131296287206,
0.1144638403990025,0.00655399926310293,
0.11451371571072319,-0.01769592979532955,
0.11456359102244389,-0.009945240390421268,
0.11461346633416458,0.0024149522267936374,
0.11466334164588529,0.0011279063416604253,
0.11471321695760599,0.0007852005385639137,
0.11476309226932668,-0.007514739144803951,
0.11481296758104738,0.0004297325924841489,
0.11486284289276807,0.0032751508219344243,
0.11491271820448878,-0.005775922421977906,
0.11496259351620948,-0.026074678277630183,
0.11501246882793018,-0.029732241670674085,
0.11506234413965087,-0.022451787353674063,
0.11511221945137157,-0.019545262477216857,
0.11516209476309226,-0.006337731379690497,
0.11521197007481297,-0.009658407657124935,
0.11526184538653367,-0.007637237316390556,
0.11531172069825436,-0.03748056952428781,
0.11536159600997506,0.01090817282456126,
0.11541147132169575,-0.031471878716044385,
0.11546134663341646,0.01457749933961858,
0.11551122194513716,-0.017622142492063828,
0.11556109725685786,-0.004670474220272404,
0.11561097256857855,-0.01812349873685474,
0.11566084788029925,-0.0012287454619738219,
0.11571072319201996,-0.011031525522237403,
0.11576059850374065,-0.029983328636921908,
0.11581047381546135,-0.006376449307204691,
0.11586034912718204,-0.002592121341025896,
0.11591022443890274,-0.03815376263242845,
0.11596009975062344,-0.003113800950538377,
0.11600997506234415,-0.040159348914061435,
0.11605985037406484,-0.018680009866066664,
0.11610972568578554,9.577115789470396e-05,
0.11615960099750623,-0.010088284229293152,
0.11620947630922693,-0.012383372290719672,
0.11625935162094764,0.0029798271019360768,
0.11630922693266833,-0.017310425876410823,
0.11635910224438903,-0.02808801013775735,
0.11640897755610972,-0.010550100786564284,
0.11645885286783042,-0.014633291956547972,
0.11650872817955112,-0.013211620033355093,
0.11655860349127183,-0.02562458671675983,
0.11660847880299252,-0.03322428112896809,
0.11665835411471322,0.013637143372257335,
0.11670822942643391,-0.0021797484386547328,
0.11675810473815461,-0.0005380361748195134,
0.11680798004987532,-0.010287372875359512,
0.11685785536159601,-0.020652489634191973,
0.11690773067331671,0.01319975062903068,
0.1169576059850374,0.009833728124373779,
0.1170074812967581,0.0047958691017497435,
0.1170573566084788,-0.016065396611865276,
0.1171072319201995,0.011632533464517042,
0.1171571072319202,-0.003995880034472149,
0.1172069825436409,-0.0014546926188353255,
0.1172568578553616,-0.008828772298725085,
0.11730673316708229,-0.008245067854321528,
0.117356608478803,-8.156227871765342e-05,
0.1174064837905237,-0.03096576785410849,
0.11745635910224439,-0.01152082126500249,
0.11750623441396509,0.010490027993171645,
0.11755610972568578,-0.004026319885824716,
0.11760598503740648,0.012948203839069842,
0.11765586034912719,-0.00795777071703073,
0.11770573566084788,0.0006639229888893931,
0.11775561097256858,0.013345567497249295,
0.11780548628428927,0.00366471647555368,
0.11785536159600997,-0.015365840449722055,
0.11790523690773068,-0.019383553774202464,
0.11795511221945137,-0.02699653406610903,
0.11800498753117207,-0.011967483026465973,
0.11805486284289277,-0.01953846447845225,
0.11810473815461346,-0.01244614492520131,
0.11815461346633417,-0.011021446556687808,
0.11820448877805487,-0.010849081568461627,
0.11825436408977556,0.016092672347323478,
0.11830423940149626,-0.010973581971353515,
0.11835411471321695,0.010455686503081558,
0.11840399002493765,-0.0004841343674747865,
0.11845386533665836,0.019684690875590424,
0.11850374064837906,-0.01654270874878458,
0.11855361596009975,-0.010718235265112888,
0.11860349127182045,-0.011526793961631834,
0.11865336658354114,0.016894414846220625,
0.11870324189526185,0.02156212899858701,
0.11875311720698255,0.019770739878142967,
0.11880299251870324,-0.0040799628148919425,
0.11885286783042394,-0.01755573907734303,
0.11890274314214463,-0.0329994554783103,
0.11895261845386533,-0.005740174644870281,
0.11900249376558604,-0.008062697207174042,
0.11905236907730674,-0.0021036771728463076,
0.11910224438902743,-0.01673552864216713,
0.11915211970074813,0.010642575976673844,
0.11920199501246882,-0.0060801177684534444,
0.11925187032418953,-0.008208939191729499,
0.11930174563591023,-0.009817714687386306,
0.11935162094763092,-0.02904844666188791,
0.11940149625935162,-0.027459980149290603,
0.11945137157107232,-0.00654946241986603,
0.11950124688279301,0.019270770861581243,
0.11955112219451372,0.009798386925051838,
0.11960099750623442,0.025543241905922002,
0.11965087281795511,0.004130725326887966,
0.11970074812967581,-0.002062817842369559,
0.1197506234413965,-6.694940232626623e-05,
0.11980049875311721,0.018943105396472544,
0.11985037406483791,-0.008295967277691725,
0.1199002493765586,-0.016632389028466116,
0.1199501246882793,-0.016998756494970818,
0.12,0.002294855088421714,
0.1200498753117207,0.02209800971521082,
0.1200997506234414,0.01375833092778989,
0.1201496259351621,0.023328201790968308,
0.12019950124688279,0.003061207435646962,
0.12024937655860349,0.015510709883088235,
0.12029925187032418,0.005259160545361364,
0.1203491271820449,-0.021109090500397568,
0.12039900249376559,0.002126636548358073,
0.12044887780548628,-0.003697271781647353,
0.12049875311720698,0.014572719684065032,
0.12054862842892768,-0.007355012912009324,
0.12059850374064839,0.020215695101438155,
0.12064837905236908,0.02282190494254,
0.12069825436408978,0.017018874190928943,
0.12074812967581047,0.007097990210534093,
0.12079800498753117,-0.0023513999565657195,
0.12084788029925186,-0.007932059079057916,
0.12089775561097257,0.017301750692386184,
0.12094763092269327,0.021459839936871145,
0.12099750623441397,0.003941266030088134,
0.12104738154613466,0.03257938501800141,
0.12109725685785536,0.05496048261018922,
0.12114713216957607,0.015410873505721616,
0.12119700748129676,0.002078332670377549,
0.12124688279301746,-0.025278048134179495,
0.12129675810473815,0.015399472426307848,
0.12134663341645885,0.0118320307834362,
0.12139650872817954,0.01693983340916405,
0.12144638403990025,0.03325175460734353,
0.12149625935162095,0.002671335596943405,
0.12154613466334165,0.016648128022066423,
0.12159600997506234,-0.011161081215865825,
0.12164588528678304,0.0019966814773977725,
0.12169576059850375,0.04278112725459566,
0.12174563591022444,0.027533757474139442,
0.12179551122194514,-0.0011316359425764307,
0.12184538653366583,0.0469423333389254,
0.12189526184538653,2.1344022692217426e-05,
0.12194513715710723,0.015708079722331462,
0.12199501246882793,0.003896396214188807,
0.12204488778054863,0.006354237170255047,
0.12209476309226933,-0.008578010242544981,
0.12214463840399002,0.028247246984618387,
0.12219451371571072,0.0063724089530124775,
0.12224438902743143,0.024865905897582155,
0.12229426433915212,-0.000818325678649378,
0.12234413965087282,0.013661569796289071,
0.12239401496259351,0.003958861643360437,
0.12244389027431421,0.011867533962536042,
0.12249376558603492,0.026447658226841905,
0.12254364089775562,0.013403812483365415,
0.12259351620947631,-0.007593722070524351,
0.122643391521197,0.021706003694707106,
0.1226932668329177,0.029110314456849997,
0.1227431421446384,0.012450342474352147,
0.12279301745635911,0.026010975926202315,
0.1228428927680798,0.016116244366966334,
0.1228927680798005,0.03431225862615573,
0.1229426433915212,0.02095918670672028,
0.12299251870324189,0.017294100410364607,
0.1230423940149626,0.034705067626776914,
0.1230922693266833,-0.0013329545805158202,
0.12314214463840399,0.023520427423132217,
0.12319201995012469,0.014030679042326945,
0.12324189526184538,0.02060981215277198,
0.12329177057356608,0.014070911729894608,
0.12334164588528679,0.002903209317591776,
0.12339152119700748,0.011446078644719656,
0.12344139650872818,-0.007511453693468711,
0.12349127182044888,0.020715514691898328,
0.12354114713216957,0.024709079641474115,
0.12359102244389028,0.03228279440149859,
0.12364089775561098,0.0058205571167961635,
0.12369077306733167,0.0258558226631386,
0.12374064837905237,0.008942505251900764,
0.12379052369077306,0.00476142454140786,
0.12384039900249376,0.05446129352687568,
0.12389027431421447,0.013702716441578059,
0.12394014962593516,-0.010272295456557924,
0.12399002493765586,0.027086015045375465,
0.12403990024937656,0.009213676923655156,
0.12408977556109725,0.03288880888818324,
0.12413965087281796,0.04624534827516153,
0.12418952618453866,0.018881718775843426,
0.12423940149625935,0.017859357485519034,
0.12428927680798005,0.030480118581790786,
0.12433915211970074,-0.004639444612061179,
0.12438902743142144,0.038142498495591926,
0.12443890274314215,0.010476737744289862,
0.12448877805486284,0.019471494315384467,
0.12453865336658354,0.013068181192926487,
0.12458852867830424,0.030846556233582324,
0.12463840399002493,0.03258112431523133,
0.12468827930174564,0.04539072892569178,
0.12473815461346634,0.028062663840780953,
0.12478802992518703,0.043182019546437224,
0.12483790523690773,0.0173392152408559,
0.12488778054862842,0.02297222791070021,
0.12493765586034913,0.04186389895950077,
0.12498753117206983,0.05152989570536334,
0.12503740648379053,0.0262587421529159,
0.12508728179551123,0.024132189960098322,
0.12513715710723192,0.016230727725227732,
0.12518703241895263,0.029115961158571086,
0.1252369077306733,-0.0007965337158489412,
0.12528678304239402,0.012802001918426092,
0.1253366583541147,0.0260861244843477,
0.1253865336658354,0.015983245636297175,
0.12543640897755612,0.02787361640594636,
0.1254862842892768,0.03196728607224813,
0.1255361596009975,0.03807151395219749,
0.1255860349127182,0.020066134450193007,
0.1256359102244389,0.041573231463541,
0.1256857855361596,0.01648889311865737,
0.1257356608478803,0.04307207500522926,
0.125785536159601,-0.012683348101637702,
0.12583541147132168,0.025990694336213312,
0.1258852867830424,0.012096016725858055,
0.1259351620947631,0.02962694511925759,
0.12598503740648379,0.04719182897535987,
0.1260349127182045,0.010799992727560066,
0.12608478802992518,0.00606224988072606,
0.1261346633416459,0.032442299597363236,
0.1261845386533666,0.03604979141878084,
0.12623441396508728,0.03839932822064631,
0.126284289276808,0.0684656001381499,
0.12633416458852867,0.0372277741523325,
0.12638403990024938,0.03414422764620227,
0.1264339152119701,0.046054706176753855,
0.12648379052369077,0.03621167620496883,
0.12653366583541148,0.011132740371750507,
0.12658354114713216,0.0220506420066953,
0.12663341645885287,0.05266006760689445,
0.12668329177057355,0.017230005260395413,
0.12673316708229426,0.030821983778039685,
0.12678304239401497,0.04909935499753877,
0.12683291770573565,0.019867601120368915,
0.12688279301745636,0.010573413272666293,
0.12693266832917705,0.04019777194869048,
0.12698254364089775,0.033279142072916906,
0.12703241895261846,0.004172518606402411,
0.12708229426433915,0.004395497208195931,
0.12713216957605986,0.05688476679101981,
0.12718204488778054,0.059517897612254664,
0.12723192019950125,0.01757717499007766,
0.12728179551122196,-0.0028073138419277763,
0.12733167082294264,0.040130391302541354,
0.12738154613466335,0.011932218167284472,
0.12743142144638403,0.008882167354684528,
0.12748129675810474,0.028966050245035558,
0.12753117206982545,0.02337239376947401,
0.12758104738154613,0.04361919147438485,
0.12763092269326684,0.027768688980481678,
0.12768079800498752,0.04059542161196739,
0.12773067331670823,0.02621933780189051,
0.1277805486284289,0.020882685915997908,
0.12783042394014962,0.013355451768065317,
0.12788029925187033,0.023562649611136754,
0.12793017456359101,0.035395483103439186,
0.12798004987531172,0.032699940187736004,
0.1280299251870324,0.018141891625553918,
0.12807980049875312,0.056946682258302066,
0.12812967581047383,0.023408181718605175,
0.1281795511221945,0.01738021710137609,
0.12822942643391522,0.028896067709423857,
0.1282793017456359,0.004214016586378034,
0.1283291770573566,0.009879845702617483,
0.12837905236907732,0.00986892131205529,
0.128428927680798,0.027926690361667273,
0.1284788029925187,0.014240770598469867,
0.1285286783042394,0.03919685176552076,
0.1285785536159601,0.010702431800482406,
0.1286284289276808,0.03945295559849642,
0.1286783042394015,0.04432462290884945,
0.1287281795511222,0.044971317226394955,
0.12877805486284288,0.02166465292715805,
0.1288279301745636,0.005578714401175723,
0.1288778054862843,0.012026699660650274,
0.12892768079800498,0.009577633113959011,
0.1289775561097257,0.04016838664035402,
0.12902743142144638,0.02108587614595324,
0.12907730673316709,0.012122215546275353,
0.12912718204488777,0.035374926223793894,
0.12917705735660848,0.016333905236773298,
0.1292269326683292,0.010142400801622606,
0.12927680798004987,0.030206347656518938,
0.12932668329177058,0.02000016583634181,
0.12937655860349126,0.007540780889955922,
0.12942643391521197,0.0015581057913787652,
0.12947630922693268,0.015285914529012463,
0.12952618453865336,0.028176626267544323,
0.12957605985037407,0.031000787673245187,
0.12962593516209475,-0.025918768691685967,
0.12967581047381546,0.006316706282703215,
0.12972568578553617,0.008360641245820227,
0.12977556109725685,0.02019900414277383,
0.12982543640897756,0.005839266342357433,
0.12987531172069824,0.011582589693570063,
0.12992518703241895,0.013070601520725523,
0.12997506234413966,0.010071831962987781,
0.13002493765586035,0.01693357364453745,
0.13007481296758105,0.037191896885803516,
0.13012468827930174,0.004728003056389516,
0.13017456359102245,-0.00218848685967973,
0.13022443890274316,-0.000908017428649233,
0.13027431421446384,0.016581561570524418,
0.13032418952618455,0.004737843364618367,
0.13037406483790523,0.027057300076714905,
0.13042394014962594,0.0055024905203568735,
0.13047381546134662,0.013942561054741703,
0.13052369077306733,0.003055857313339112,
0.13057356608478804,-0.004959814378596425,
0.13062344139650872,0.007064423147049629,
0.13067331670822943,0.011736978545593852,
0.1307231920199501,-0.002124183244237408,
0.13077306733167082,0.010398168965894709,
0.13082294264339153,0.002338529004025057,
0.13087281795511221,0.021179291848274325,
0.13092269326683292,-0.0026819688818628604,
0.1309725685785536,0.0021219092433646366,
0.13102244389027431,0.01285493129370775,
0.13107231920199502,0.013131342315856886,
0.1311221945137157,-0.011153157377326937,
0.13117206982543642,-0.0202388372790639,
0.1312219451371571,0.009237948274675634,
0.1312718204488778,-0.00782344022358301,
0.13132169576059852,0.005769901869121886,
0.1313715710723192,0.0074171456138100115,
0.1314214463840399,-0.008540893932410545,
0.1314713216957606,-0.011465408464745981,
0.1315211970074813,0.006594007405043538,
0.13157107231920198,4.376744145889386e-05,
0.1316209476309227,-0.021076172939575925,
0.1316708229426434,0.023327863594674564,
0.13172069825436408,0.004119221763744839,
0.1317705735660848,0.004783427411428872,
0.13182044887780547,-0.005370881096340158,
0.13187032418952618,-0.014331617992893245,
0.1319201995012469,-0.00959563365529844,
0.13197007481296757,0.032480144470419754,
0.13201995012468828,0.023744789570953218,
0.13206982543640897,-0.0047037879556391035,
0.13211970074812968,-0.03203743260403142,
0.13216957605985039,0.01766783218486432,
0.13221945137157107,0.006726704793724042,
0.13226932668329178,0.019831287316293467,
0.13231920199501246,-0.002579412912233612,
0.13236907730673317,0.008815309955719476,
0.13241895261845388,0.026127755657860595,
0.13246882793017456,-0.0017199525546532676,
0.13251870324189527,0.0015253926455218003,
0.13256857855361595,0.02068905066765847,
0.13261845386533666,0.004310479506619057,
0.13266832917705737,-0.0017439713198408903,
0.13271820448877805,-0.008628943182958487,
0.13276807980049876,0.02429256671756108,
0.13281795511221944,0.02457967883846031,
0.13286783042394015,-0.005975415502054084,
0.13291770573566083,-0.009212668396951857,
0.13296758104738154,-0.0005450925720851595,
0.13301745635910225,-0.012261025227392064,
0.13306733167082294,-0.011478526776027238,
0.13311720698254365,0.010692427765731495,
0.13316708229426433,-0.004231757152601259,
0.13321695760598504,-0.027313337337883627,
0.13326683291770575,0.007002388306772906,
0.13331670822942643,-0.013045791943090173,
0.13336658354114714,0.005563293361979905,
0.13341645885286782,-0.005797100551092479,
0.13346633416458853,0.022460511046599907,
0.13351620947630924,0.017146939600371863,
0.13356608478802992,0.008847893079691388,
0.13361596009975063,-0.004242658191847279,
0.1336658354114713,-0.00030431204420642167,
0.13371571072319202,-0.024014130986893978,
0.13376558603491273,-0.023493413595182908,
0.1338154613466334,-0.02562520073911416,
0.13386533665835412,0.004423744555858091,
0.1339152119700748,-0.00022683480157294732,
0.13396508728179551,-0.024340191005083674,
0.1340149625935162,-0.03205711523415661,
0.1340648379052369,0.0011961463463488623,
0.13411471321695762,0.03381799067545896,
0.1341645885286783,-0.006805687211377812,
0.134214463840399,0.038043817106831246,
0.1342643391521197,-0.0037035454759320663,
0.1343142144638404,0.0029458780343469358,
0.1343640897755611,0.0094204139876351,
0.1344139650872818,0.007318900196601108,
0.1344638403990025,-0.032160999695456986,
0.13451371571072318,-0.01112401752511428,
0.1345635910224439,-0.03913617139207019,
0.1346134663341646,0.003868978811698927,
0.13466334164588528,-0.034650339788062715,
0.134713216957606,-0.002147032855146903,
0.13476309226932667,-0.006976201868914297,
0.13481296758104738,0.008741140756305209,
0.1348628428927681,-0.0015172211649514128,
0.13491271820448877,-0.004946458572623959,
0.13496259351620948,-0.011560074055910228,
0.13501246882793017,0.007859414200578953,
0.13506234413965088,0.0028262863365353854,
0.13511221945137158,-0.04009592237373581,
0.13516209476309227,0.004449737239309916,
0.13521197007481298,-0.01349811598713084,
0.13526184538653366,-0.017901742887240953,
0.13531172069825437,0.01150609630959484,
0.13536159600997505,-0.03938327940891839,
0.13541147132169576,-0.02778683074184365,
0.13546134663341647,0.0212136821670783,
0.13551122194513715,-0.011170821599291201,
0.13556109725685786,-0.02412869386330979,
0.13561097256857854,-0.012731619984356578,
0.13566084788029925,-0.02592378973907128,
0.13571072319201996,-0.009821841089526351,
0.13576059850374064,-0.009772956712485837,
0.13581047381546135,-0.003700648858642265,
0.13586034912718203,-0.005486439178886569,
0.13591022443890274,-0.020223932441598404,
0.13596009975062345,-0.01443425332727511,
0.13600997506234414,-0.008843130499774794,
0.13605985037406484,-0.026399984318888,
0.13610972568578553,-0.00232633161588355,
0.13615960099750624,-0.044985428611065775,
0.13620947630922695,-0.019590086994703503,
0.13625935162094763,-0.03353337326136993,
0.13630922693266834,0.009864753911536963,
0.13635910224438902,-0.02215514853970315,
0.13640897755610973,-0.0038094189137452376,
0.1364588528678304,-0.02456374183895673,
0.13650872817955112,-0.027297438148899126,
0.13655860349127183,-0.007024256155370761,
0.1366084788029925,0.028388734198813246,
0.13665835411471322,-0.03478034689212515,
0.1367082294264339,-0.001955622892201722,
0.1367581047381546,-0.01708250423842152,
0.13680798004987532,-0.015542973541287336,
0.136857855361596,-0.017885427525145492,
0.1369077306733167,-0.021041354980674633,
0.1369576059850374,-0.001847433653621981,
0.1370074812967581,-0.010017104239292628,
0.13705735660847881,0.004297127624514084,
0.1371072319201995,-0.004239722885964782,
0.1371571072319202,-0.010870657912268003,
0.1372069825436409,0.004136822159562743,
0.1372568578553616,-0.0009061250502826745,
0.1373067331670823,-0.0012473175281133885,
0.137356608478803,-0.021685758771088953,
0.1374064837905237,-0.03430922909905974,
0.13745635910224438,-0.005117521774285353,
0.1375062344139651,-0.014140770058504094,
0.1375561097256858,-0.01059306363225418,
0.13760598503740648,-0.010424795401695795,
0.1376558603491272,0.013704400579796609,
0.13770573566084787,0.005426936012770911,
0.13775561097256858,-0.007212184224355832,
0.13780548628428926,-0.012991731913658197,
0.13785536159600997,-0.003526439758850201,
0.13790523690773068,-0.0038345283791648183,
0.13795511221945136,-0.02790112115207101,
0.13800498753117207,-0.017974711391485917,
0.13805486284289276,-0.0022387513944649748,
0.13810473815461347,-0.003949897720649352,
0.13815461346633418,0.010356529041032488,
0.13820448877805486,0.0016036557321781435,
0.13825436408977557,-0.020843351731013565,
0.13830423940149625,-0.019743997873438397,
0.13835411471321696,0.00947265949703773,
0.13840399002493767,0.010258345290065553,
0.13845386533665835,-0.014842946090647693,
0.13850374064837906,-0.005628343383656056,
0.13855361596009974,0.030153317013605907,
0.13860349127182045,0.005787917302354633,
0.13865336658354116,-0.025463353785972125,
0.13870324189526184,0.0007972036003228346,
0.13875311720698255,0.007606888056124915,
0.13880299251870323,-0.004699721984266549,
0.13885286783042394,0.001955147205326988,
0.13890274314214462,0.010682241145265255,
0.13895261845386533,0.006295858505691822,
0.13900249376558604,-0.006458445286938835,
0.13905236907730673,0.011299373573083074,
0.13910224438902744,-0.013499662962530778,
0.13915211970074812,0.02177362754782001,
0.13920199501246883,0.005433967957868941,
0.13925187032418954,0.006252346735740451,
0.13930174563591022,0.02190412560862095,
0.13935162094763093,-0.004236780729119863,
0.1394014962593516,-0.00698359265792412,
0.13945137157107232,0.0016589628856703174,
0.13950124688279303,0.0032760333315971476,
0.1395511221945137,0.0030056383652291912,
0.13960099750623442,0.010150325218538004,
0.1396508728179551,-0.014108624652844785,
0.1397007481296758,-0.018119470157191536,
0.13975062344139652,0.022578085928997224,
0.1398004987531172,0.002699935172616709,
0.1398503740648379,0.010288743934376194,
0.1399002493765586,-0.0002966706018268563,
0.1399501246882793,-0.013137869955812948,
0.14,0.008397799028761057,
0.1400498753117207,0.0026638708603392534,
0.1400997506234414,0.0002585585036381415,
0.1401496259351621,0.012503815970644962,
0.1401995012468828,0.014690316386739028,
0.14024937655860348,-0.00030436969756202515,
0.1402992518703242,0.012819382186789045,
0.1403491271820449,0.004945940637973774,
0.14039900249376558,0.0017019373466655944,
0.1404488778054863,0.0014872274852218972,
0.14049875311720697,-0.011588761810741498,
0.14054862842892768,-0.0058859185910496905,
0.1405985037406484,-0.0034769890608539154,
0.14064837905236907,0.011375878521807152,
0.14069825436408978,0.02932897122761036,
0.14074812967581046,0.004899206951105894,
0.14079800498753117,0.007275445370580146,
0.14084788029925188,0.041687225920019874,
0.14089775561097256,-0.011048127450626524,
0.14094763092269327,-0.00589647161107652,
0.14099750623441396,0.021555872066676942,
0.14104738154613466,0.046371211260320816,
0.14109725685785537,0.003183389787550594,
0.14114713216957606,-0.022006139609262905,
0.14119700748129677,0.008719764778336959,
0.14124688279301745,0.022746109191833733,
0.14129675810473816,-0.0034395288640736085,
