time,amplitude,label
0.0,-0.019791564775326027,
4.987531172069826e-05,-0.01669624409483109,
9.975062344139652e-05,-0.009647286379799428,
0.00014962593516209475,-0.01553024213917841,
0.00019950124688279303,-0.02688137084136038,
0.00024937655860349125,-0.0032143299850285797,
0.0002992518703241895,-0.03092991951873496,
0.00034912718204488776,-0.008501547345382464,
0.00039900249376558606,-0.024349780985372743,
0.0004488778054862843,-0.029809636560573966,
0.0004987531172069825,0.0027921793760788335,
0.0005486284289276808,-0.00154583328746331,
0.000598503740648379,-0.018959702800139977,
0.0006483790523690773,-0.03040372749079271,
0.0006982543640897755,-0.01791829662524245,
0.0007481296758104738,-0.023627508010238916,
0.0007980049875311721,-0.003502239395368048,
0.0008478802992518703,-0.01307888108799081,
0.0008977556109725686,-0.006507220587716942,
0.0009476309226932668,0.006345337479581995,
0.000997506234413965,-0.02213771534492866,
0.0010473815461346633,-0.026947356648066224,
0.0010972568578553616,0.016245554643382704,
0.00114713216957606,-0.03924098774491284,
0.001197007481296758,-0.012557019524199875,
0.0012468827930174563,0.0026767018290106952,
0.0012967581047381546,-0.005517998426800442,
0.001346633416458853,-0.02737453953649386,
0.001396508728179551,0.010469843152968719,
0.0014463840399002493,0.007740911959150679,
0.0014962593516209476,-0.029656989144990317,
0.001546134663341646,-0.012245887191054978,
0.0015960099750623442,0.013514830136472773,
0.0016458852867830423,-0.008194430654980118,
0.0016957605985037406,-0.0034276755465742106,
0.001745635910224439,0.00745228143723994,
0.0017955112219451373,-0.002498399408568915,
0.0018453865336658353,0.007711095910425519,
0.0018952618453865336,0.005098399918272106,
0.001945137157107232,0.008515918668340481,
0.00199501246882793,0.002511247158333697,
0.0020448877805486283,0.01322683713337506,
0.0020947630922693266,0.01683824193378435,
0.002144638403990025,-0.0062899974937161585,
0.0021945137157107233,0.005849592896648175,
0.0022443890274314216,-0.019047445634889693,
0.00229426433915212,-0.0028498870254165293,
0.0023441396508728177,-0.00015367455425449746,
0.002394014962593516,0.006531871689117801,
0.0024438902743142144,0.020328357206290774,
0.0024937655860349127,0.021173899656869798,
0.002543640897755611,-0.033617146419695904,
0.0025935162094763093,-0.010490187656858888,
0.0026433915211970076,0.02469281938785324,
0.002693266832917706,0.022238487895951925,
0.002743142144638404,0.010120501554585529,
0.002793017456359102,0.010762489023081433,
0.0028428927680798004,0.015533982637040467,
0.0028927680798004987,-0.015632830296376514,
0.002942643391521197,-0.002697674195472837,
0.0029925187032418953,0.01996612284660469,
0.0030423940149625936,-0.0030793338886320413,
0.003092269326683292,-0.03878656835197332,
0.00314214463840399,0.0019061814487100531,
0.0031920199501246885,0.015382293356926677,
0.0032418952618453864,-0.004464054539689467,
0.0032917705735660847,0.012356669238443536,
0.003341645885286783,-0.003276668644271466,
0.0033915211970074813,0.003761680258182699,
0.0034413965087281796,0.02427191339865257,
0.003491271820448878,0.004075276720165436,
0.003541147132169576,-0.00629065450393012,
0.0035910224438902745,-0.00313698831994667,
0.0036408977556109724,0.007085065847433796,
0.0036907730673316707,-0.0008840134063881752,
0.003740648379052369,0.010181039176715824,
0.0037905236907730673,0.013833823806963342,
0.0038403990024937656,0.016745142215008127,
0.003890274314214464,-0.009509549174053868,
0.003940149625935162,-0.00989837869341279,
0.00399002493765586,0.013049989686536891,
0.004039900249376558,0.0052918158948536825,
0.004089775561097257,0.03089358872563098,
0.004139650872817955,0.004452582030925511,
0.004189526184538653,-0.009488522892294677,
0.004239401496259352,0.03864505999883859,
0.00428927680798005,0.01027609601054293,
0.004339152119700748,0.004013942486073984,
0.0043890274314214465,-0.008071730586065175,
0.004438902743142145,0.005818652525576594,
0.004488778054862843,0.018410037563686706,
0.004538653366583541,0.01516224744287507,
0.00458852867830424,-0.01543519770534639,
0.004638403990024938,-0.006183196627829075,
0.0046882793017456355,0.027343544617818086,
0.004738154613466334,0.036902604254121965,
0.004788029925187032,0.022575559848480066,
0.00483790523690773,0.01031791675416455,
0.004887780548628429,0.026203094119149013,
0.004937655860349127,0.013511612769719641,
0.004987531172069825,0.00879131797083841,
0.005037406483790524,0.011499602838540767,
0.005087281795511222,0.0020610233471294193,
0.00513715710723192,-0.01085478057258656,
0.0051870324189526185,-0.009732155399471157,
0.005236907730673317,0.02684011723210282,
0.005286783042394015,-0.004107370425534456,
0.0053366583541147134,0.010080929337786385,
0.005386533665835412,0.0157640541621453,
0.00543640897755611,0.031478619507133224,
0.005486284289276808,0.014723630946306202,
0.005536159600997507,0.049598342201319326,
0.005586034912718204,0.022390810990907742,
0.005635910224438902,0.00715552318586643,
0.005685785536159601,0.035579877473365704,
0.005735660847880299,0.020994664836406385,
0.005785536159600997,0.040091810839107164,
0.005835411471321696,0.0048867003748887475,
0.005885286783042394,0.010125332002674483,
0.005935162094763092,0.021616118783905,
0.0059850374064837905,0.0078050963458702795,
0.006034912718204489,0.02073575551749459,
0.006084788029925187,0.005503170532622172,
0.0061346633416458855,0.020258554675737027,
0.006184538653366584,0.014370806946373327,
0.006234413965087282,0.004379804953556993,
0.00628428927680798,0.014996686985726357,
0.006334164588528679,0.028064155003105277,
0.006384039900249377,0.018043753881390186,
0.006433915211970074,0.033061335150657054,
0.006483790523690773,0.028573365116167176,
0.006533665835411471,0.04656721469950234,
0.006583541147132169,0.02765229027994208,
0.006633416458852868,-0.005650143286413226,
0.006683291770573566,0.027402315764996354,
0.006733167082294264,0.00708636678152153,
0.0067830423940149626,0.03596227271509535,
0.006832917705735661,0.007493850373034941,
0.006882793017456359,0.015216665480119188,
0.0069326683291770575,0.026397521153456508,
0.006982543640897756,0.01785425834727395,
0.007032418952618454,0.007709132824917038,
0.007082294264339152,-0.002245807175736983,
0.007132169576059851,-0.005510065313604692,
0.007182044887780549,0.03434240884701307,
0.007231920199501247,0.019341706367493546,
0.007281795511221945,0.0025038122669455744,
0.007331670822942643,0.06432083306636383,
0.007381546134663341,0.025274027713001183,
0.00743142144638404,0.03267516911449041,
0.007481296758104738,0.014950510658918718,
0.007531172069825436,0.035447930509696045,
0.007581047381546135,0.012335062077087195,
0.007630922693266833,0.02762255205334243,
0.007680798004987531,0.013316548707199309,
0.0077306733167082295,0.01539491509176251,
0.007780548628428928,0.03679806763001352,
0.007830423940149626,0.010526417873555616,
0.007880299251870324,0.022076213485228348,
0.007930174563591023,0.006478005351778242,
0.00798004987531172,-0.0024745510441952813,
0.00802992518703242,0.0160738555543095,
0.008079800498753117,-0.015166520439426703,
0.008129675810473816,0.019272471408757923,
0.008179551122194513,0.030430078625530703,
0.008229426433915213,0.019933980493691383,
0.00827930174563591,0.029450093954113778,
0.00832917705735661,0.02837444780954,
0.008379052369077307,0.007009710792937378,
0.008428927680798006,0.022718858467149293,
0.008478802992518703,0.026510705552749828,
0.0085286783042394,0.009131713349743978,
0.0085785536159601,0.04580892156632892,
0.008628428927680797,0.02467794474713719,
0.008678304239401496,0.009078370836315313,
0.008728179551122194,0.02530231495789217,
0.008778054862842893,0.01711828024554725,
0.00882793017456359,0.0013443522577217815,
0.00887780548628429,0.03690007443753798,
0.008927680798004987,0.003595255748150587,
0.008977556109725686,-0.006859478964444856,
0.009027431421446384,-0.005949671811970751,
0.009077306733167083,-0.0016355211444689446,
0.00912718204488778,0.006157398873926764,
0.00917705735660848,0.025473500921957822,
0.009226932668329177,-0.00467215461152309,
0.009276807980049876,0.030002979312481984,
0.009326683291770574,0.0028799315579984153,
0.009376558603491271,0.007436989036208281,
0.00942643391521197,0.018342303182309852,
0.009476309226932668,-0.000643054380967921,
0.009526184538653367,0.018691930396481732,
0.009576059850374064,-0.013670380169683818,
0.009625935162094763,0.00545630927606758,
0.00967581047381546,0.015135456755539949,
0.00972568578553616,0.031618051854310714,
0.009775561097256857,0.017627709531714202,
0.009825436408977557,0.010538619186126719,
0.009875311720698254,0.018477584368483124,
0.009925187032418953,0.01760119048163597,
0.00997506234413965,-0.02193535857534637,
0.01002493765586035,0.010988457958174758,
0.010074812967581047,0.00892775000131683,
0.010124688279301746,0.004948887144961396,
0.010174563591022444,0.014052831167956428,
0.010224438902743141,0.010316945484450833,
0.01027431421446384,0.015280939933506392,
0.010324189526184538,-0.01156519009127073,
0.010374064837905237,0.028048725529921964,
0.010423940149625935,0.026755763438290628,
0.010473815461346634,0.004411433545862898,
0.010523690773067331,0.01874316313798614,
0.01057356608478803,0.01651898863073723,
0.010623441396508728,0.02212254121094269,
0.010673316708229427,0.03631677546860619,
0.010723192019950124,-0.002748245844431948,
0.010773067331670824,0.022783591016575865,
0.010822942643391521,0.024702518199040024,
0.01087281795511222,0.01234414908785072,
0.010922693266832918,-0.013252037874378966,
0.010972568578553617,0.011792748920364,
0.011022443890274314,0.014850729408278262,
0.011072319201995013,0.04841554807984646,
0.01112219451371571,0.003889543174987794,
0.011172069825436408,0.024258633321175158,
0.011221945137157107,0.036719302759209906,
0.011271820448877805,0.03821550272402621,
0.011321695760598504,0.053013049358310964,
0.011371571072319201,0.022898562347590082,
0.0114214463840399,0.007803388439797257,
0.011471321695760598,-0.00224303197153442,
0.011521197007481297,-0.0015854315218762852,
0.011571072319201995,0.0008614830578988391,
0.011620947630922694,-0.033637934620328463,
0.011670822942643391,0.004168071524787546,
0.01172069825436409,-0.0037763355643957537,
0.011770573566084788,0.018211783830616873,
0.011820448877805487,-0.014406952374707075,
0.011870324189526184,0.011581436108306644,
0.011920199501246884,0.010329553277680727,
0.011970074812967581,0.0081757664879359,
0.012019950124688279,0.01848892434059187,
0.012069825436408978,-0.010996157859103718,
0.012119700748129675,-0.0073821768918054444,
0.012169576059850374,-0.011735151669997376,
0.012219451371571072,-0.004021191108587112,
0.012269326683291771,0.0013035626163132243,
0.012319201995012468,0.001101824640777582,
0.012369077306733168,-0.009024068173255016,
0.012418952618453865,0.0066398823745232516,
0.012468827930174564,0.04531936609626055,
0.012518703241895262,0.002396530456756587,
0.01256857855361596,-0.005766187867728527,
0.012618453865336658,-0.02391382629383415,
0.012668329177057357,-0.0035988452307660593,
0.012718204488778055,0.0057703660911705,
0.012768079800498754,0.004295720173004107,
0.012817955112219451,0.014072958534100233,
0.012867830423940149,0.022744420131166055,
0.012917705735660848,0.011409823051715798,
0.012967581047381545,0.01180004532440116,
0.013017456359102245,0.017201713965352524,
0.013067331670822942,-0.014501694256005268,
0.013117206982543641,0.0031238906585827715,
0.013167082294264339,0.015571236844952149,
0.013216957605985038,0.006821532022125609,
0.013266832917705735,-0.019497019438495453,
0.013316708229426434,-0.003137981773109423,
0.013366583541147132,0.019352538685261267,
0.013416458852867831,-0.007057446572597484,
0.013466334164588529,-0.01714067988839381,
0.013516209476309228,-0.0019136403799880583,
0.013566084788029925,-0.02050210536379715,
0.013615960099750624,-0.009912661782613692,
0.013665835411471322,0.007585533274912085,
0.01371571072319202,-0.028154008464609713,
0.013765586034912718,0.00815654253383816,
0.013815461346633416,-0.012764303603910638,
0.013865336658354115,-0.0026837720269877667,
0.013915211970074812,0.006967535416060189,
0.013965087281795512,-0.00886077950458013,
0.014014962593516209,-0.0010198841831642706,
0.014064837905236908,-0.0019627255865083196,
0.014114713216957606,-0.013837943621296079,
0.014164588528678305,0.0153466188910671,
0.014214463840399002,-0.01785189633891637,
0.014264339152119701,-0.011075568645290527,
0.014314214463840399,0.013372621291263353,
0.014364089775561098,-0.024456994818388707,
0.014413965087281795,0.00798456776024586,
0.014463840399002495,-0.003965804413843526,
0.014513715710723192,0.023482967295751882,
0.01456359102244389,-0.0037257997457504225,
0.014613466334164589,-0.019594154240590085,
0.014663341645885286,-0.021665348279073023,
0.014713216957605985,-0.01975182977205476,
0.014763092269326683,0.00547301827071262,
0.014812967581047382,-0.026633021495570758,
0.01486284289276808,-0.031990857800235514,
0.014912718204488778,-0.015191491735694479,
0.014962593516209476,0.0030805106719302266,
0.015012468827930175,-0.012489537190504135,
0.015062344139650873,-0.04643410965335039,
0.015112219451371572,-0.004167874044954049,
0.01516209476309227,0.01031239054617128,
0.015211970074812968,-0.02290560758783536,
0.015261845386533666,-0.0343385989775996,
0.015311720698254365,-0.0217263589757671,
0.015361596009975062,-0.006804733935405332,
0.01541147132169576,-0.014827417197607677,
0.015461346633416459,-0.009623207550365977,
0.015511221945137156,-0.006158719879844664,
0.015561097256857856,-0.002588132980961588,
0.015610972568578553,-0.0018883376114926017,
0.015660847880299252,-0.018406318791793552,
0.01571072319201995,-0.020809309688688944,
0.015760598503740647,-0.009479966696689993,
0.015810473815461346,-0.006056176724482732,
0.015860349127182045,0.021729725005175775,
0.015910224438902745,0.0018917282411210143,
0.01596009975062344,-0.02003045420784695,
0.01600997506234414,-0.014408602012399654,
0.01605985037406484,0.0021461765901526243,
0.016109725685785538,-0.008440550746454962,
0.016159600997506234,-0.01756549393735624,
0.016209476309226933,-0.017884831244278008,
0.016259351620947632,-0.035374369046524815,
0.016309226932668328,-0.0021849873530788537,
0.016359102244389027,-0.020795870908497684,
0.016408977556109726,-0.017579729473631078,
0.016458852867830425,-0.02614222530619499,
0.01650872817955112,-0.018986903324291135,
0.01655860349127182,-0.01621765650284365,
0.01660847880299252,-0.003596966169062542,
0.01665835411471322,-0.03209486691675551,
0.016708229426433914,-0.008929200962446631,
0.016758104738154613,-0.006396978591371052,
0.016807980049875312,-0.023697521334606134,
0.01685785536159601,-0.015419458467502346,
0.016907730673316707,-0.007602433636665495,
0.016957605985037406,0.019501139527364795,
0.017007481296758106,-0.03303836294741802,
0.0170573566084788,-0.023110479995693024,
0.0171072319201995,-0.018069776219818465,
0.0171571072319202,-0.027921467082058858,
0.0172069825436409,-0.02000386001868751,
0.017256857855361595,-0.031108629900274184,
0.017306733167082294,-0.005016677596009605,
0.017356608478802993,-0.005993226392007953,
0.017406483790523692,-0.01492613127018317,
0.017456359102244388,-0.01827315934312111,
0.017506234413965087,-0.01838585281710155,
0.017556109725685786,-0.013719233958803295,
0.017605985037406485,-0.02857826240205517,
0.01765586034912718,0.008761150889720775,
0.01770573566084788,-0.014722474046582265,
0.01775561097256858,-0.03189057827656695,
0.01780548628428928,0.005750640882317897,
0.017855361596009974,-0.009802455447503014,
0.017905236907730673,-0.02382328596272688,
0.017955112219451373,-0.016283955452486107,
0.018004987531172068,-0.03809110256586516,
0.018054862842892767,-0.028160126551400322,
0.018104738154613467,-0.03186394494905317,
0.018154613466334166,-0.023014268667015673,
0.01820448877805486,0.011978901047096747,
0.01825436408977556,-0.04500125623342056,
0.01830423940149626,-0.02363605850965326,
0.01835411471321696,-0.018251781361441635,
0.018403990024937655,-0.04013367565393526,
0.018453865336658354,-0.026488810486375636,
0.018503740648379053,-0.03159666825381458,
0.018553615960099752,-0.01683263788063187,
0.018603491271820448,-0.00407881759141775,
0.018653366583541147,-0.001456793918307702,
0.018703241895261846,-0.01225789786476113,
0.018753117206982542,-0.037466668218900184,
0.01880299251870324,-0.02552702211198759,
0.01885286783042394,-0.027388818783999194,
0.01890274314214464,-0.006053573502044269,
0.018952618453865335,-0.044820756615011975,
0.019002493765586034,-0.007224762098996895,
0.019052369077306733,-0.04185002074845359,
0.019102244389027433,-0.022529271622267515,
0.01915211970074813,-0.006794495954768363,
0.019201995012468828,0.010217012051222538,
0.019251870324189527,-0.019435623292994624,
0.019301745635910226,-0.01395019040377538,
0.01935162094763092,-0.016108337102275716,
0.01940149625935162,-0.01133311844374578,
0.01945137157107232,0.0003334893718999459,
0.01950124688279302,-0.021527533991610892,
0.019551122194513715,-0.017346990929569546,
0.019600997506234414,-0.028648181323087538,
0.019650872817955113,-0.007677424010093598,
0.01970074812967581,-0.01587879247262874,
0.019750623441396508,-0.030326324738241928,
0.019800498753117207,-0.0030682909701328608,
0.019850374064837906,-0.0025417068845221234,
0.019900249376558602,-0.02506406828665774,
0.0199501246882793,0.015418483748105376,
0.02,0.010346066618060474,
0.0200498753117207,0.016059042098872614,
0.020099750623441395,-0.007240466386796024,
0.020149625935162094,-0.010057341791840759,
0.020199501246882794,-0.022839609151724734,
0.020249376558603493,-0.018170368409110516,
0.02029925187032419,-0.01612940027741927,
0.020349127182044888,-0.024090833647075312,
0.020399002493765587,-0.010523375529255367,
0.020448877805486283,-0.013779958326346858,
0.02049875311720698,-0.011624856504419035,
0.02054862842892768,-0.014281553764118625,
0.02059850374064838,-0.0035954284483004162,
0.020648379052369076,-0.023501305395214275,
0.020698254364089775,0.016124133878317428,
0.020748129675810474,-0.02253934431377002,
0.020798004987531173,-0.007774762555431036,
0.02084788029925187,-0.010148650896187146,
0.020897755610972568,-0.009475208813215372,
0.020947630922693267,-0.02192618713422424,
0.020997506234413967,-0.01174899507530805,
0.021047381546134662,-0.01761275698647964,
0.02109725685785536,0.008634896666557656,
0.02114713216957606,-0.02123518593613309,
0.02119700748129676,-0.008471903162401383,
0.021246882793017455,0.008401342395908205,
0.021296758104738155,-0.006180164600168557,
0.021346633416458854,-0.010525282061396576,
0.02139650872817955,0.010009104836215353,
0.02144638403990025,-0.005875310378664627,
0.021496259351620948,-0.01288538028121389,
0.021546134663341647,-0.006854448523004911,
0.021596009975062343,0.00896527127624811,
0.021645885286783042,0.02905935953885526,
0.02169576059850374,-0.017638675735395487,
0.02174563591022444,0.010824921371704705,
0.021795511221945136,-0.006705567167163453,
0.021845386533665835,0.01969953186092436,
0.021895261845386534,-0.01755703967873984,
0.021945137157107233,-0.018146105660035387,
0.02199501246882793,0.014411033427980707,
0.02204488778054863,-0.007755211882089417,
0.022094763092269327,-0.003332093300592686,
0.022144638403990027,-0.010585021230782858,
0.022194513715710722,0.002905162899847073,
0.02224438902743142,0.012350001285164967,
0.02229426433915212,0.000940725579071339,
0.022344139650872816,0.002823648936470618,
0.022394014962593516,-0.03204592734723864,
0.022443890274314215,-0.0064852116799383915,
0.022493765586034914,0.005659579725818644,
0.02254364089775561,0.002278924105796267,
0.02259351620947631,-0.003325127679661326,
0.022643391521197008,-0.012715091362214897,
0.022693266832917707,0.004116098785732052,
0.022743142144638403,-0.02687819444635955,
0.022793017456359102,0.03784581465506933,
0.0228428927680798,-0.01978156963305277,
0.0228927680798005,0.012805355843795423,
0.022942643391521196,0.018632565544731965,
0.022992518703241895,-0.023756454462219283,
0.023042394014962594,-0.002324818292393195,
0.02309226932668329,0.016898723905141712,
0.02314214463840399,0.014953596804425906,
0.02319201995012469,0.022977571144578275,
0.023241895261845388,-0.019691262110843117,
0.023291770573566083,-0.007226120921272543,
0.023341645885286783,0.004755957900260004,
0.02339152119700748,0.03810055049239828,
0.02344139650872818,0.011201306173419575,
0.023491271820448877,-0.002634295374498872,
0.023541147132169576,0.024476499583343858,
0.023591022443890275,0.028653544629869986,
0.023640897755610974,-0.0015374976785198545,
0.02369077306733167,0.018443412950062184,
0.02374064837905237,-0.0017633263236495715,
0.023790523690773068,0.010350764141169245,
0.023840399002493767,0.015343179056372456,
0.023890274314214463,0.01696107777913628,
0.023940149625935162,0.03399132164904983,
0.02399002493765586,-0.010231917314855768,
0.024039900249376557,0.011800231149957844,
0.024089775561097256,0.026732231880526085,
0.024139650872817955,-0.0033437531003667684,
0.024189526184538655,0.01942138221934897,
0.02423940149625935,0.011791050929669242,
0.02428927680798005,-0.0011230372413606141,
0.02433915211970075,0.035794911923414344,
0.024389027431421448,0.028915592718863542,
0.024438902743142144,0.02816744822863554,
0.024488778054862843,0.01843877824552878,
0.024538653366583542,0.02741946158155309,
0.02458852867830424,0.030605104763352382,
0.024638403990024937,0.019824134644523587,
0.024688279301745636,0.011731630750028742,
0.024738154613466335,0.004160451632655594,
0.02478802992518703,0.02089981321725049,
0.02483790523690773,0.0015151866619668112,
0.02488778054862843,0.04254070137360212,
0.02493765586034913,0.031651386741864886,
0.024987531172069824,0.0002865936335913026,
0.025037406483790523,0.0004620229898275232,
0.025087281795511222,0.03067631762771509,
0.02513715710723192,0.010184089227925481,
0.025187032418952617,0.004591137060111048,
0.025236907730673316,0.012504871983195791,
0.025286783042394016,-0.0037256563371018056,
0.025336658354114715,0.02542577353696894,
0.02538653366583541,0.03828485381024565,
0.02543640897755611,0.03596125425678512,
0.02548628428927681,0.015701284109302306,
0.025536159600997508,-0.005786684163702142,
0.025586034912718204,0.031990722521286236,
0.025635910224438903,0.01879871498114112,
0.025685785536159602,0.03195726261858948,
0.025735660847880298,0.009009767895904628,
0.025785536159600997,0.0005141085906609603,
0.025835411471321696,0.04058932956905971,
0.025885286783042395,0.019283133098272218,
0.02593516209476309,0.011246449542709945,
0.02598503740648379,0.03029939656119985,
0.02603491271820449,0.03115403115022089,
0.02608478802992519,0.0029160446367450348,
0.026134663341645884,-0.006255091903266261,
0.026184538653366583,0.030467547057420573,
0.026234413965087282,0.009593778361235419,
0.02628428927680798,0.00031560702263719667,
0.026334164588528677,0.03287327357855992,
0.026384039900249377,0.029853505976390714,
0.026433915211970076,0.013578252894342049,
0.02648379052369077,0.01941070445513591,
0.02653366583541147,0.007921318912622046,
0.02658354114713217,0.02315337698610025,
0.02663341645885287,0.026264585312305848,
0.026683291770573565,0.020913813431355188,
0.026733167082294264,0.027168148854417325,
0.026783042394014963,0.023315280051769846,
0.026832917705735662,0.0022443682789397984,
0.026882793017456358,0.028410844645732198,
0.026932668329177057,-0.011996389070526452,
0.026982543640897756,0.01800975247948565,
0.027032418952618455,0.012932782498537647,
0.02708229426433915,0.012894759201858343,
0.02713216957605985,0.004258869822284038,
0.02718204488778055,0.022782602572050274,
0.02723192019950125,0.032432651875707014,
0.027281795511221944,0.02855201653497093,
0.027331670822942643,0.03705181095986909,
0.027381546134663343,0.01493825566424603,
0.02743142144638404,0.04367683336848517,
0.027481296758104738,0.025997940262466542,
0.027531172069825437,0.027966400685017413,
0.027581047381546136,0.031294764924015166,
0.02763092269326683,0.007418474223902988,
0.02768079800498753,0.02737222309050674,
0.02773067331670823,0.0036615575666318033,
0.02778054862842893,0.008065223483875651,
0.027830423940149625,0.00025884327067464755,
0.027880299251870324,0.008691474143748604,
0.027930174563591023,0.01411168819029832,
0.027980049875311722,0.02892781811700627,
0.028029925187032418,-0.004401499533427482,
0.028079800498753117,0.02541659041535965,
0.028129675810473816,0.011227113424559822,
0.028179551122194512,0.02291509803201798,
0.02822942643391521,0.018757345562844415,
0.02827930174563591,0.038256888722991,
0.02832917705735661,-0.004140957132311992,
0.028379052369077305,0.025278040807147666,
0.028428927680798004,0.0006012207390889944,
0.028478802992518704,0.00937416925951624,
0.028528678304239403,0.0415236687756768,
0.0285785536159601,0.05557070873007571,
0.028628428927680798,-0.003555841834496566,
0.028678304239401497,0.010323029768328985,
0.028728179551122196,0.019945934996463417,
0.02877805486284289,0.03457895154764487,
0.02882793017456359,0.01666806715107275,
0.02887780548628429,0.03813399232336416,
0.02892768079800499,0.014564993652611921,
0.028977556109725685,0.02222328177513473,
0.029027431421446384,0.026188544569053413,
0.029077306733167083,0.015243564056302306,
0.02912718204488778,0.028667523644252527,
0.029177057356608478,0.04009660871202202,
0.029226932668329177,0.029252277312741798,
0.029276807980049877,0.0040179219591935066,
0.029326683291770572,0.04151219703582518,
0.02937655860349127,0.027697479683960753,
0.02942643391521197,0.012639785747606743,
0.02947630922693267,0.008052372219175171,
0.029526184538653365,0.005977621444239391,
0.029576059850374065,0.024418213000733102,
0.029625935162094764,0.01215491500199515,
0.029675810473815463,0.041598528902382,
0.02972568578553616,0.01538206285123093,
0.029775561097256858,-0.029277126563499525,
0.029825436408977557,0.012567360459460086,
0.029875311720698253,-0.0002806194719775397,
0.029925187032418952,0.003937646333564462,
0.02997506234413965,0.03987691595220906,
0.03002493765586035,0.022186237709836014,
0.030074812967581046,0.039790973683366385,
0.030124688279301745,0.0048729371168384095,
0.030174563591022444,0.010606673972486566,
0.030224438902743143,0.0247415800065365,
0.03027431421446384,0.052679426973967367,
0.03032418952618454,0.040076279137194123,
0.030374064837905237,0.015859884442418735,
0.030423940149625937,0.016524585002858114,
0.030473815461346632,0.038302335643653,
0.03052369077306733,-0.00338628247670438,
0.03057356608478803,0.04676392455956452,
0.03062344139650873,0.004199799030985387,
0.030673316708229426,0.019724876193176408,
0.030723192019950125,0.01475000324929294,
0.030773067331670824,4.767302725731948e-05,
0.03082294264339152,0.02038645242543095,
0.03087281795511222,0.02325304253579729,
0.030922693266832918,0.035777529824631706,
0.030972568578553617,-0.0025450939732071277,
0.031022443890274313,0.053926881028967394,
0.031072319201995012,0.00888312804223701,
0.03112219451371571,-0.00590023260644898,
0.03117206982543641,0.02726100655105767,
0.031221945137157106,-0.012810156139532463,
0.03127182044887781,0.003457757591751787,
0.031321695760598504,0.006251925414225956,
0.0313715710723192,0.018929088697895842,
0.0314214463840399,0.01006973032815,
0.0314713216957606,0.0016812312257237644,
0.031521197007481294,-0.00918125691075825,
0.031571072319202,0.008738827643952736,
0.03162094763092269,-0.002653663247640827,
0.03167082294264339,-0.0027910659442379436,
0.03172069825436409,0.01574838795013794,
0.03177057356608479,-0.011738697878428956,
0.03182044887780549,-0.007499729481389241,
0.031870324189526185,-0.007439423540191057,
0.03192019950124688,0.0036166455554545365,
0.03197007481296758,0.005896006394057106,
0.03201995012468828,0.0012296101948535178,
0.032069825436408975,0.019656292753305923,
0.03211970074812968,0.0014596760048378905,
0.03216957605985037,0.025281468781867156,
0.032219451371571076,0.011517757744771763,
0.03226932668329177,-0.004850831104685349,
0.03231920199501247,0.002741074247671097,
0.03236907730673317,0.0017275091481138384,
0.032418952618453865,0.021863735768884188,
0.03246882793017456,0.028730065399231695,
0.032518703241895264,0.014813767626074675,
0.03256857855361596,0.013238162931535288,
0.032618453865336655,-0.0006379894946094583,
0.03266832917705736,0.012881100807240935,
0.032718204488778053,0.0065305298364613205,
0.032768079800498756,0.013963963987285484,
0.03281795511221945,0.007757298773083756,
0.03286783042394015,0.02417938405725059,
0.03291770573566085,0.011556415700798907,
0.032967581047381546,0.03083481184924198,
0.03301745635910224,-0.025630369669546377,
0.033067331670822944,-0.01134345647005199,
0.03311720698254364,0.02913590538883994,
0.03316708229426434,-0.018730981845744708,
0.03321695760598504,-0.012227401447371217,
0.033266832917705734,-0.003980770111136759,
0.03331670822942644,-0.011761809188809595,
0.03336658354114713,-0.003065929094188803,
0.03341645885286783,-0.00465577386864225,
0.03346633416458853,-0.009827083098895968,
0.033516209476309226,-0.03169060846076849,
0.03356608478802992,-0.010861064263541874,
0.033615960099750625,-0.015722757212311207,
0.03366583541147132,0.007812362525837627,
0.03371571072319202,-0.006285022183345363,
0.03376558603491272,0.007894001283462468,
0.033815461346633414,-0.0047182514731556385,
0.03386533665835412,0.0006981097460766559,
0.03391521197007481,-0.014916793458820838,
0.03396508728179551,0.0008603340658919403,
0.03401496259351621,-0.003899487346905592,
0.03406483790523691,-0.005104026470433289,
0.0341147132169576,-0.009501023020552484,
0.034164588528678305,-0.021367513154251484,
0.034214463840399,0.016915920025664118,
0.034264339152119704,0.00022688331590091284,
0.0343142144638404,0.02814495419472613,
0.034364089775561095,-0.004183168295328931,
0.0344139650872818,0.005975175134605165,
0.03446384039900249,-0.022184500656700676,
0.03451371571072319,-0.03326692217924043,
0.03456359102244389,-0.013591053453186452,
0.03461346633416459,0.02725170119328859,
0.03466334164588529,-0.040559027739237655,
0.034713216957605986,0.016653607236566313,
0.03476309226932668,-0.00701409467886991,
0.034812967581047384,-0.0026493237687153608,
0.03486284289276808,-0.023568924259901824,
0.034912718204488775,-0.0027245195220691543,
0.03496259351620948,-0.008110489973281914,
0.035012468827930174,-0.016999115026496654,
0.03506234413965087,-0.007605623714285293,
0.03511221945137157,-0.02101612713642585,
0.03516209476309227,-0.03251336663759428,
0.03521197007481297,-0.011413068615555194,
0.035261845386533666,-0.008962979303208513,
0.03531172069825436,-0.00681628532012007,
0.035361596009975065,-0.02036390312720452,
0.03541147132169576,-0.003360819226392477,
0.035461346633416456,-0.009685394739140391,
0.03551122194513716,-0.01738732177341394,
0.035561097256857854,-0.012514812499992345,
0.03561097256857856,0.007687312879722127,
0.03566084788029925,-0.01146072613222024,
0.03571072319201995,-0.0006767006838244959,
0.03576059850374065,0.0019600640313266436,
0.03581047381546135,0.003323863479216694,
0.03586034912718204,-0.009312824139156363,
0.035910224438902745,-0.027346273559631172,
0.03596009975062344,0.019819870823678757,
0.036009975062344136,-0.003231761475598163,
0.03605985037406484,-0.033431190295215796,
0.036109725685785535,0.00221062648648704,
0.03615960099750624,-0.05237441176439098,
0.03620947630922693,-0.01443095652545948,
0.03625935162094763,-0.003817612032840499,
0.03630922693266833,-0.020179504336613807,
0.03635910224438903,-0.023859516993253366,
0.03640897755610972,-0.01503207684094718,
0.036458852867830426,-0.01252749209470656,
0.03650872817955112,-0.00665981295782634,
0.036558603491271824,-0.012377350038530698,
0.03660847880299252,-0.010419452616017913,
0.036658354114713215,-0.005178880702902008,
0.03670822942643392,-0.03903789345363463,
0.036758104738154614,-0.008499229466787966,
0.03680798004987531,-0.007428788094480342,
0.03685785536159601,-0.042129550797061335,
0.03690773067331671,-0.00705742551825461,
0.0369576059850374,0.00663707759521541,
0.037007481296758106,0.00012818523290922604,
0.0370573566084788,-0.02049923491615275,
0.037107231920199504,-0.001420252872206684,
0.0371571072319202,-0.009102862007474701,
0.037206982543640896,-0.002244808825414727,
0.0372568578553616,-0.011622553594568943,
0.037306733167082294,-0.030670975628508984,
0.03735660847880299,-0.02243463429579022,
0.03740648379052369,-0.006045188924093446,
0.03745635910224439,-0.007546148546085386,
0.037506234413965084,-0.018363434492309698,
0.037556109725685786,-0.02521502560380358,
0.03760598503740648,-0.03138048268177633,
0.037655860349127185,-0.03202314374726035,
0.03770573566084788,-0.022958423736612037,
0.037755610972568576,-0.021794302027543608,
0.03780548628428928,-0.04269981414196687,
0.037855361596009975,-0.02347286522621351,
0.03790523690773067,-0.0192718467769287,
0.03795511221945137,-0.040011548177499384,
0.03800498753117207,-0.012635310831686012,
0.03805486284289277,-0.01312865505509696,
0.03810473815461347,-0.015362307389297614,
0.03815461346633416,0.004614265909434326,
0.038204488778054865,-0.03603728865200623,
0.03825436408977556,-0.011976565219379056,
0.03830423940149626,-0.016542020620450813,
0.03835411471321696,-0.028970778683921027,
0.038403990024937655,-0.03646051558628776,
0.03845386533665835,0.008962802297481955,
0.03850374064837905,0.011061435132669661,
0.03855361596009975,-0.021991619425428693,
0.03860349127182045,0.0034842570193724873,
0.03865336658354115,-0.01596457884243814,
0.03870324189526184,-0.0018452095373894615,
0.038753117206982546,-0.003750089798188057,
0.03880299251870324,-0.014787147380551268,
0.03885286783042394,-0.04752300978598186,
0.03890274314214464,-0.022139543520516513,
0.038952618453865336,-0.027099296039033726,
0.03900249376558604,-0.0031813449863430324,
0.039052369077306734,-0.005130683707165644,
0.03910224438902743,0.030914755859049473,
0.03915211970074813,0.009284228603633801,
0.03920199501246883,0.013720765191104089,
0.039251870324189524,-0.012442837772441075,
0.039301745635910226,-0.014830412455704633,
0.03935162094763092,-0.003862643521468114,
0.03940149625935162,-0.005323394827254229,
0.03945137157107232,-0.0037739471585551652,
0.039501246882793016,-0.0347732288624821,
0.03955112219451372,0.025163426267263585,
0.039600997506234414,0.018130271808380734,
0.03965087281795511,-0.04224382033610155,
0.03970074812967581,-0.012315078564945304,
0.03975062344139651,0.015780979695914576,
0.039800498753117204,-0.005455852632718916,
0.03985037406483791,-0.0014683532919019665,
0.0399002493765586,0.011463110180006914,
0.039950124688279305,-0.03865629317758218,
0.04,0.007564604675092172,
0.0400498753117207,-0.009982457971988667,
0.0400997506234414,-0.026013225006512035,
0.040149625935162095,0.0014050145743735917,
0.04019950124688279,-0.014254052325445219,
0.04024937655860349,-0.044615229460900525,
0.04029925187032419,-0.0038122333681251536,
0.040349127182044885,-0.01083459936115252,
0.04039900249376559,-0.06496497594287759,
0.04044887780548628,0.0009246539921535114,
0.040498753117206986,-0.0058723260530007225,
0.04054862842892768,-0.005255376098805325,
0.04059850374064838,-0.03310880601125961,
0.04064837905236908,-0.013480233766498225,
0.040698254364089775,-0.017535147706569755,
0.04074812967581047,-0.0033825808635237417,
0.040798004987531174,-0.023858354492047092,
0.04084788029925187,0.007688439755303023,
0.040897755610972565,-0.038067798627174756,
0.04094763092269327,-0.03291134341155637,
0.04099750623441396,-0.0008620172834175729,
0.041047381546134666,-0.015884891654895584,
0.04109725685785536,-0.004122986707417597,
0.04114713216957606,0.011380646255519858,
0.04119700748129676,0.0021332339063625154,
0.041246882793017456,-0.0017501406497987797,
0.04129675810473815,-0.0013666424883067188,
0.041346633416458854,-0.020734629580684134,
0.04139650872817955,-0.0509562958509017,
0.04144638403990025,-0.007463834589428676,
0.04149625935162095,-0.012931693253298729,
0.041546134663341644,-0.0038558413850397796,
0.04159600997506235,-0.0017656460761502756,
0.04164588528678304,-0.014979148854835523,
0.04169576059850374,0.008819987644991789,
0.04174563591022444,0.022889585440225423,
0.041795511221945136,-0.035461069631665336,
0.04184538653366583,0.010202621906364236,
0.041895261845386535,-0.006028859890094779,
0.04194513715710723,-0.019393205191883024,
0.04199501246882793,0.008819283755294782,
0.04204488778054863,0.048928405931362114,
0.042094763092269324,0.010326991777996869,
0.04214463840399003,0.0033687676785195686,
0.04219451371571072,-0.0004386125937468775,
0.04224438902743142,0.015529673614020375,
0.04229426433915212,0.018503738770267276,
0.04234413965087282,0.011031018942116232,
0.04239401496259352,0.022959460317524067,
0.042443890274314215,0.009010199215774058,
0.04249376558603491,0.02275845098301834,
0.042543640897755614,-0.0010238152525319849,
0.04259351620947631,-0.005018172895183291,
0.042643391521197005,0.023746351882223217,
0.04269326683291771,0.026181635575444197,
0.0427431421446384,-0.00031080671464805065,
0.0427930174563591,-0.012388734827397236,
0.0428428927680798,0.011921580701617418,
0.0428927680798005,0.02187067468698719,
0.0429426433915212,0.01416060021290884,
0.042992518703241896,0.03642154006297357,
0.04304239401496259,-0.01655640518506587,
0.043092269326683294,0.01326803520303381,
0.04314214463840399,-0.0018326943505272211,
0.043192019950124685,0.024618568011076834,
0.04324189526184539,0.030920268185392168,
0.043291770573566084,0.004278562096183492,
0.043341645885286786,0.028599023561426126,
0.04339152119700748,0.018423440112852976,
0.04344139650872818,0.004151783302330146,
0.04349127182044888,0.017418986809307334,
0.043541147132169576,0.03214543825619753,
0.04359102244389027,-0.005360009383111899,
0.043640897755610975,0.010722856821860655,
0.04369077306733167,-0.0014599583231536383,
0.043740648379052366,-0.013286697939370184,
0.04379052369077307,0.012762073242279905,
0.043840399002493764,-0.01714027143777189,
0.04389027431421447,-0.005639132668632297,
0.04394014962593516,0.015835619727579388,
0.04399002493765586,0.011661668152838882,
0.04403990024937656,0.0018541739942186178,
0.04408977556109726,0.02833084733765978,
0.04413965087281795,0.02996761862665165,
0.044189526184538655,0.022249650988676747,
0.04423940149625935,0.011220444528117888,
0.04428927680798005,0.019480284122357087,
0.04433915211970075,0.016277130990097203,
0.044389027431421445,0.0022875703829566586,
0.04443890274314215,0.014980250624113218,
0.04448877805486284,0.0018574075568104035,
0.04453865336658354,0.010921332315511432,
0.04458852867830424,0.004864070968527067,
0.04463840399002494,0.024612818874456772,
0.04468827930174563,-0.008047258456621655,
0.044738154613466335,0.025702898894253867,
0.04478802992518703,0.01865635571355281,
0.044837905236907734,0.005267343171236486,
0.04488778054862843,0.006653209046528188,
0.044937655860349125,0.04111280321955739,
0.04498753117206983,0.006095000367615075,
0.045037406483790524,0.013669833159519617,
0.04508728179551122,0.02331826069765354,
0.04513715710723192,0.016180400563924544,
0.04518703241895262,0.02374279167629854,
0.04523690773067331,-0.003485362024391543,
0.045286783042394016,-0.02072441737589615,
0.04533665835411471,0.020207882194685747,
0.045386533665835414,0.005715877379509812,
0.04543640897755611,0.002328331927885379,
0.045486284289276806,0.030479930671450144,
0.04553615960099751,0.017237986417914724,
0.045586034912718204,0.004298248670489946,
0.0456359102244389,0.020673410731443864,
0.0456857855361596,0.04973204921501092,
0.0457356608478803,0.04746527365320498,
0.045785536159601,0.005223116569467489,
0.045835411471321696,-0.0004413758214423004,
0.04588528678304239,0.021699836220063145,
0.045935162094763095,0.010127484973555667,
0.04598503740648379,0.05078345314473193,
0.046034912718204486,0.01742979948377455,
0.04608478802992519,0.027971606598402667,
0.046134663341645885,0.021071305039061638,
0.04618453865336658,0.011368891316105809,
0.04623441396508728,-0.003351339939006024,
0.04628428927680798,0.0206336925495276,
0.04633416458852868,0.04423848466897233,
0.04638403990024938,0.03732530415598411,
0.04643391521197007,0.03355573118539266,
0.046483790523690775,0.00480815993711806,
0.04653366583541147,0.007691897115940146,
0.04658354114713217,0.01030019005706886,
0.04663341645885287,0.029978984325535495,
0.046683291770573565,-0.01302420345437455,
0.04673316708229427,0.013671798676508418,
0.04678304239401496,0.03101387110132399,
0.04683291770573566,0.02870121308586325,
0.04688279301745636,0.03324753485763152,
0.04693266832917706,0.041258876539713746,
0.04698254364089775,-0.0008512897265570973,
0.047032418952618456,0.004303631811060377,
0.04708229426433915,-0.0015797516823167664,
0.04713216957605985,0.008384499021447663,
0.04718204488778055,0.014347733469491145,
0.047231920199501246,0.02958817091178205,
0.04728179551122195,0.0338517670810103,
0.047331670822942644,0.029330406680334424,
0.04738154613466334,0.025049383964352398,
0.04743142144638404,0.030807333582444925,
0.04748129675810474,0.005051902414123718,
0.047531172069825434,0.039734620228857744,
0.047581047381546136,0.007282783554249498,
0.04763092269326683,0.057133811034104295,
0.047680798004987535,0.004402108444115087,
0.04773067331670823,0.047031652347083855,
0.047780548628428926,0.05234974493831738,
0.04783042394014963,0.028022897807113107,
0.047880299251870324,0.009929693137867986,
0.04793017456359102,0.040849359460145326,
0.04798004987531172,0.02679830553961857,
0.04802992518703242,0.01693962764178709,
0.048079800498753114,0.014964254922171415,
0.04812967581047382,0.021131809996638377,
0.04817955112219451,0.030397698158505307,
0.048229426433915215,-0.0021766704099972223,
0.04827930174563591,0.020457379052332202,
0.048329177057356607,0.004242056906401941,
0.04837905236907731,0.02596925252962631,
0.048428927680798005,0.030115177001460984,
0.0484788029925187,0.020289998575913286,
0.0485286783042394,0.024597498410168714,
0.0485785536159601,0.011564219046757567,
0.048628428927680795,0.016632647888884772,
0.0486783042394015,0.02918955833002521,
0.04872817955112219,0.041085014398485165,
0.048778054862842896,0.024061430393848778,
0.04882793017456359,0.023540324920619353,
0.04887780548628429,0.023228405577970283,
0.04892768079800499,0.04183533058319268,
0.048977556109725685,0.027190609171740383,
0.04902743142144638,0.025648573384937166,
0.049077306733167084,0.019800372012062212,
0.04912718204488778,0.015288385173543001,
0.04917705735660848,0.022036302369827027,
0.04922693266832918,0.034142641156139554,
0.04927680798004987,0.03567455061124862,
0.049326683291770576,0.02878122610538128,
0.04937655860349127,0.007773344630632699,
0.04942643391521197,0.014811302829836163,
0.04947630922693267,0.016918480771672916,
0.049526184538653366,0.05695356152934252,
0.04957605985037406,0.025838391353034958,
0.049625935162094764,0.03198227000104792,
0.04967581047381546,0.022762859273876005,
0.04972568578553616,-0.00559198035042897,
0.04977556109725686,0.00887730023970792,
0.049825436408977554,0.02858522290762224,
0.04987531172069826,-0.005868418731984831,
0.04992518703241895,0.002933856822972737,
0.04997506234413965,0.056938416286565624,
0.05002493765586035,0.017074964918363657,
0.050074812967581046,0.016314472958685867,
0.05012468827930175,0.014788362254126438,
0.050174563591022445,-0.0010045858510201976,
0.05022443890274314,0.015543977463195455,
0.05027431421446384,0.010806378945939457,
0.05032418952618454,0.01036286622872294,
0.050374064837905234,0.016233618377648223,
0.05042394014962594,0.01345454761745973,
0.05047381546134663,-0.0030573426834697055,
0.05052369077306733,0.00687568760540745,
0.05057356608478803,0.009195796642717767,
0.05062344139650873,0.007113596378047496,
0.05067331670822943,0.0014110820045562748,
0.050723192019950125,0.008517321606801978,
0.05077306733167082,0.018891471342761503,
0.050822942643391524,-0.0034080397261698307,
0.05087281795511222,-0.021244306921098625,
0.050922693266832915,0.041131922589238826,
0.05097256857855362,8.967635751998271e-05,
0.05102244389027431,0.04945093010214227,
0.051072319201995016,0.027252586103480636,
0.05112219451371571,-0.011950201370694826,
0.05117206982543641,0.019485207250631503,
0.05122194513715711,-0.013010686148859446,
0.051271820448877806,-0.006585288435860466,
0.0513216957605985,0.016456616445445875,
0.051371571072319204,0.0022131103306974823,
0.0514214463840399,-0.006814395503949414,
0.051471321695760595,0.007233281353814618,
0.0515211970074813,0.026531248111793165,
0.051571072319201994,0.019510199001382376,
0.051620947630922696,0.009668350540786536,
0.05167082294264339,0.032387646202396425,
0.05172069825436409,-0.0072323772825260545,
0.05177057356608479,0.004863083797979052,
0.051820448877805486,0.016111597176158603,
0.05187032418952618,0.01290669727979598,
0.051920199501246884,-0.012930033608781633,
0.05197007481296758,-0.0005765797352311388,
0.052019950124688276,0.010148284699112805,
0.05206982543640898,-0.002822286122216952,
0.052119700748129674,-0.00018362184927395771,
0.05216957605985038,0.015690456456032485,
0.05221945137157107,0.021376481593059313,
0.05226932668329177,-0.004182032993989259,
0.05231920199501247,0.024667046662342353,
0.05236907730673317,-0.011640612064955428,
0.05241895261845386,0.01975241420001427,
0.052468827930174565,-0.018657682956511608,
0.05251870324189526,0.009838819216742668,
0.05256857855361596,0.004448130416719754,
0.05261845386533666,-0.004620147297440076,
0.052668329177057355,-0.007032307489608898,
0.05271820448877806,0.008127737982399564,
0.05276807980049875,-0.0019805057668542967,
0.05281795511221945,-0.015799373649779555,
0.05286783042394015,-0.02731631064972517,
0.05291770573566085,0.017888133592529075,
0.05296758104738154,0.0033170482987509072,
0.053017456359102245,0.0020926810080215733,
0.05306733167082294,0.01336232598199652,
0.053117206982543644,-0.005390306953314282,
0.05316708229426434,0.026297422823847536,
0.053216957605985035,0.0035457568236251266,
0.05326683291770574,0.03695127262580577,
0.053316708229426434,0.018148247064401782,
0.05336658354114713,0.00532311441350636,
0.05341645885286783,-0.014555849079793197,
0.05346633416458853,0.019806660705940556,
0.05351620947630923,0.020541812280014247,
0.053566084788029926,-0.017678429991786607,
0.05361596009975062,-0.0030749906264212544,
0.053665835411471324,-0.02149872440381139,
0.05371571072319202,0.0014576401215004617,
0.053765586034912716,-0.026148618035126484,
0.05381546134663342,-0.003172252920064833,
0.053865336658354114,0.021984620338683203,
0.05391521197007481,-0.005857525636357562,
0.05396508728179551,0.023296292232219417,
0.05401496259351621,0.009462733050368283,
0.05406483790523691,0.019720249450594883,
0.054114713216957606,-0.0283317915818379,
0.0541645885286783,-0.007451985919890626,
0.054214463840399005,-0.005130772717470088,
0.0542643391521197,-0.002290267379654812,
0.054314214463840396,-0.00878789313972424,
0.0543640897755611,0.021588958662593805,
0.054413965087281795,-0.008259589324306102,
0.0544638403990025,-0.025719794698888073,
0.05451371571072319,-0.006635989156763052,
0.05456359102244389,-0.012620752169860281,
0.05461346633416459,-0.009145424288900762,
0.05466334164588529,-0.010195849869324146,
0.05471321695760598,-0.005416843888161315,
0.054763092269326685,-0.012413766766358136,
0.05481296758104738,-0.009138374478583138,
0.05486284289276808,0.0007366953814006271,
0.05491271820448878,-0.010141001438802907,
0.054962593516209475,-0.023076933579993596,
0.05501246882793018,0.01650619404352462,
0.05506234413965087,-0.017796700537115427,
0.05511221945137157,-0.0210271769539721,
0.05516209476309227,0.025163762806170813,
0.05521197007481297,-0.02324326724939562,
0.05526184538653366,0.0001978609442020371,
0.055311720698254366,-0.023186194570230932,
0.05536159600997506,-0.002745893259508468,
0.05541147132169576,-0.01054864675287829,
0.05546134663341646,-0.002306861845582186,
0.055511221945137156,-0.024862360722028028,
0.05556109725685786,-0.03439981971254205,
0.055610972568578554,-0.010625365629940032,
0.05566084788029925,0.00193537181672865,
0.05571072319201995,-0.02365289424187645,
0.05576059850374065,0.026551610721466917,
0.055810473815461344,-0.011194299933086427,
0.055860349127182046,0.004883181752539278,
0.05591022443890274,-0.005587358384552839,
0.055960099750623445,-0.009436165173294684,
0.05600997506234414,-0.02534081965241861,
0.056059850374064836,-0.021267974197797614,
0.05610972568578554,-0.05215289040037946,
0.056159600997506234,-0.0006038333884959522,
0.05620947630922693,0.005292570555416341,
0.05625935162094763,-0.03905044664626185,
0.05630922693266833,-0.003927898583911819,
0.056359102244389024,-0.01669959570340055,
0.05640897755610973,-0.0010401518466263433,
0.05645885286783042,-0.01553550847463172,
0.056508728179551125,0.015062291806055585,
0.05655860349127182,-0.017346279864167754,
0.056608478802992516,-0.02754614168011543,
0.05665835411471322,-0.028180445017180825,
0.056708229426433915,-0.0075107433654672835,
0.05675810473815461,-0.02713348810975518,
0.05680798004987531,0.012966620811295428,
0.05685785536159601,-0.019324120479991214,
0.05690773067331671,-0.008514029553297602,
0.05695760598503741,0.002705867977198566,
0.0570074812967581,-0.03485759730970155,
0.057057356608478806,-0.008972528572118652,
0.0571072319201995,0.0027372905065018646,
0.0571571072319202,-0.015105683990214646,
0.0572069825436409,-0.0114255277489201,
0.057256857855361595,-0.0196504770163256,
0.05730673316708229,-0.0021460751245480497,
0.057356608478802994,-0.029262710685255315,
0.05740648379052369,-0.021773811583839668,
0.05745635910224439,-0.0111144171883388,
0.05750623441396509,-0.02989903153785733,
0.05755610972568578,-0.01982297021894635,
0.057605985037406486,-0.01827858252054487,
0.05765586034912718,-0.033040464413289374,
0.05770573566084788,-0.01834194154378096,
0.05775561097256858,-0.02906965906820968,
0.057805486284289276,-0.011017957159567063,
0.05785536159600998,-0.005241734672414287,
0.057905236907730674,-0.018942787203104387,
0.05795511221945137,-0.024279566447794772,
0.05800498753117207,-0.007588157305162855,
0.05805486284289277,-0.06282089623591507,
0.058104738154613464,-0.02577746478623122,
0.05815461346633417,-0.012361407802789548,
0.05820448877805486,-0.0035936512695580267,
0.05825436408977556,-0.014886902613700837,
0.05830423940149626,-0.048579191036085476,
0.058354114713216956,-0.0021515219201133466,
0.05840399002493766,-0.00045879962070986303,
0.058453865336658355,-0.023917414581919687,
0.05850374064837905,-0.02209111591044191,
0.05855361596009975,-0.0307915844996937,
0.05860349127182045,-0.0248761956890063,
0.058653366583541144,-0.011422721339507422,
0.05870324189526185,-0.023167830087392698,
0.05875311720698254,0.004544126082702694,
0.05880299251870324,-0.011548650022214791,
0.05885286783042394,-0.0002670279307552554,
0.05890274314214464,-0.018978972950078197,
0.05895261845386534,-0.0019472825813276334,
0.059002493765586035,-0.028133113944972685,
0.05905236907730673,0.006559517400093069,
0.059102244389027433,0.00024789094185722303,
0.05915211970074813,-0.019295501918932735,
0.059201995012468825,-0.01443027488182613,
0.05925187032418953,-0.01337566824403045,
0.05930174563591022,-0.022914591578908367,
0.059351620947630926,-0.01338727271482956,
0.05940149625935162,-0.011650245892517714,
0.05945137157107232,-0.012464806842893856,
0.05950124688279302,0.0011785315038166846,
0.059551122194513716,-0.003421479105389192,
0.05960099750623441,-0.043773571829076485,
0.059650872817955114,-0.0019824777064115662,
0.05970074812967581,-0.015903219543017405,
0.059750623441396505,-0.0003633337534010069,
0.05980049875311721,-0.024334392815559068,
0.059850374064837904,-0.013186106690241178,
0.059900249376558606,-0.0034817853251073007,
0.0599501246882793,-0.005863765411711976,
0.06,0.0034092495912579467,
0.0600498753117207,0.01373674975717083,
0.060099750623441396,-0.025777327122140762,
0.06014962593516209,-0.0007750659551429145,
0.060199501246882794,-0.024064419486110468,
0.06024937655860349,0.012000613934408894,
0.06029925187032419,0.001198182356554273,
0.06034912718204489,-0.026401193692259458,
0.060399002493765584,0.013699381605640151,
0.06044887780548629,-0.005330407352066055,
0.06049875311720698,-0.005635685194591943,
0.06054862842892768,-0.012042103002991921,
0.06059850374064838,-0.01365996404155385,
0.06064837905236908,-0.0023668444538479053,
0.06069825436408977,-0.00685472322416273,
0.060748129675810475,-0.012935197075952972,
0.06079800498753117,-0.010746611888523744,
0.06084788029925187,0.011522528838352414,
0.06089775561097257,0.03976560235833614,
0.060947630922693265,-0.01826143661850355,
0.06099750623441397,-0.016971729211535516,
0.06104738154613466,-0.010483548135762622,
0.06109725685785536,-0.018178046284964312,
0.06114713216957606,0.00824716086546817,
0.06119700748129676,-0.05334333587743475,
0.06124688279301746,-0.0025787775169136854,
0.061296758104738155,-0.01292964105260901,
0.06134663341645885,0.009932673596323759,
0.061396508728179554,-0.0003140517883312259,
0.06144638403990025,0.006461026840974257,
0.061496259351620945,-0.009603911291946767,
0.06154613466334165,0.027270941342418413,
0.061596009975062344,-0.014849771944765701,
0.06164588528678304,0.01342257771079661,
0.06169576059850374,-0.019165367073381442,
0.06174563591022444,0.010038693784631961,
0.06179551122194514,0.005652644004986292,
0.061845386533665836,-0.022268172232682265,
0.06189526184538653,0.0011980394944584004,
0.061945137157107234,0.014746994624216386,
0.06199501246882793,0.019910384459085644,
0.062044887780548626,0.0032689664005760267,
0.06209476309226933,0.013369801350825501,
0.062144638403990024,0.0234678014584972,
0.06219451371571072,0.019155047013279282,
0.06224438902743142,-0.018450355056925247,
0.06229426433915212,-0.023827696209611976,
0.06234413965087282,-0.008702155262883591,
0.062394014962593516,0.004068535961719284,
0.06244389027431421,-0.0033505899967535176,
0.062493765586034915,0.006795259447422241,
0.06254364089775562,-0.015356381763370432,
0.06259351620947631,-0.0020794009237544023,
0.06264339152119701,-0.02255786893636518,
0.0626932668329177,-0.005547387332612496,
0.0627431421446384,0.008545617504333825,
0.0627930174563591,-0.00481998080817758,
0.0628428927680798,0.006396905898390607,
0.0628927680798005,0.018739121997366517,
0.0629426433915212,-0.023500505058046343,
0.06299251870324189,0.030088837370559424,
0.06304239401496259,0.02959485238358804,
0.0630922693266833,0.037912075127911254,
0.063142144638404,0.033791473666129765,
0.06319201995012469,0.01635433671818419,
0.06324189526184539,0.011148252283591235,
0.06329177057356608,0.019479280811117876,
0.06334164588528678,0.014420549754114177,
0.06339152119700749,0.0029235235668972678,
0.06344139650872818,0.03412651141599696,
0.06349127182044888,0.014870182276560825,
0.06354114713216957,0.005281215807966648,
0.06359102244389027,0.00029942885492005404,
0.06364089775561098,0.03940895095851209,
0.06369077306733167,0.0114715464013376,
0.06374064837905237,0.027732857292116282,
0.06379052369077307,0.008433040447046479,
0.06384039900249376,0.0032825620030668117,
0.06389027431421446,0.03843414999646997,
0.06394014962593517,0.018278537868601133,
0.06399002493765586,0.042296003859213976,
0.06403990024937656,-0.017338465125452934,
0.06408977556109725,0.021349015137101503,
0.06413965087281795,0.0036888075460142153,
0.06418952618453866,0.018160667373604403,
0.06423940149625935,0.02362168989803217,
0.06428927680798005,0.03731685745068006,
0.06433915211970075,0.024610766607491515,
0.06438902743142144,0.03332951964303092,
0.06443890274314215,0.038018290316606265,
0.06448877805486285,0.029542719289734537,
0.06453865336658354,0.004388818034266431,
0.06458852867830424,0.0026587318222783575,
0.06463840399002493,0.00943632533856912,
0.06468827930174563,0.0033210040963837385,
0.06473815461346634,0.012735524407898675,
0.06478802992518704,0.01136897147300625,
0.06483790523690773,0.011848230186213504,
0.06488778054862843,0.009925807537221748,
0.06493765586034912,-0.03288207577591758,
0.06498753117206983,0.019776138746010186,
0.06503740648379053,0.03048823847579099,
0.06508728179551122,0.01705866046869111,
0.06513715710723192,0.0211300000739159,
0.06518703241895261,0.012015677905800742,
0.06523690773067331,0.013838731107354871,
0.06528678304239402,-0.000899601822969498,
0.06533665835411472,0.01082794842538878,
0.06538653366583541,0.0016315331484865227,
0.06543640897755611,-0.009749979010116913,
0.0654862842892768,0.007097574317831062,
0.06553615960099751,0.055964900300684906,
0.06558603491271821,0.01167399235336054,
0.0656359102244389,0.015266785648544074,
0.0656857855361596,0.02043341880836019,
0.0657356608478803,0.01764359798163937,
0.06578553615960099,0.029689494598279575,
0.0658354114713217,0.008097516391705011,
0.0658852867830424,0.030216145618374834,
0.06593516209476309,0.021793001081563682,
0.06598503740648379,0.03190040396579401,
0.06603491271820448,0.04881621792211793,
0.06608478802992519,0.021184497880795815,
0.06613466334164589,0.01883968904198987,
0.06618453865336658,0.00648027881500678,
0.06623441396508728,-0.0057346712528761785,
0.06628428927680798,0.04478453732861026,
0.06633416458852869,0.02871617837741339,
0.06638403990024938,0.0013628210935085205,
0.06643391521197008,0.02988882934490328,
0.06648379052369077,0.03042068320187847,
0.06653366583541147,0.009509638665360443,
0.06658354114713216,0.016674346684090385,
0.06663341645885287,0.02987344893598983,
0.06668329177057357,0.04993442121102949,
0.06673316708229426,0.013947999613024575,
0.06678304239401496,0.018396941672268043,
0.06683291770573566,0.05487484641179618,
0.06688279301745637,0.03299033159753409,
0.06693266832917706,0.016212134894076385,
0.06698254364089776,0.010365807923559449,
0.06703241895261845,0.01805954212977421,
0.06708229426433915,0.031125594020892995,
0.06713216957605984,0.03241555540490269,
0.06718204488778055,0.014325252330736518,
0.06723192019950125,0.02993427720590178,
0.06728179551122195,0.019505745506745283,
0.06733167082294264,0.016675092170610424,
0.06738154613466334,0.04522986753030687,
0.06743142144638405,0.01869588517125425,
0.06748129675810474,0.04153879354186951,
0.06753117206982544,0.008984082291559843,
0.06758104738154613,0.03479178294231921,
0.06763092269326683,0.03181625640681026,
0.06768079800498752,-0.0028862967459446255,
0.06773067331670823,0.040044809188938504,
0.06778054862842893,0.022400721383277276,
0.06783042394014963,0.0036733602537502956,
0.06788029925187032,0.022409398051919653,
0.06793017456359102,0.027942688955457755,
0.06798004987531173,0.022310318806287418,
0.06802992518703242,0.006411491305422661,
0.06807980049875312,0.04451425891820987,
0.06812967581047381,0.02992387665327597,
0.06817955112219451,0.0557376868617743,
0.0682294264339152,0.018817709759018378,
0.06827930174563591,0.057130708786311185,
0.06832917705735661,0.015043076374063557,
0.0683790523690773,0.0122148322663606,
0.068428927680798,0.037780151120372765,
0.0684788029925187,-0.012664366196612889,
0.06852867830423941,0.024507075272798533,
0.0685785536159601,0.036429890661394744,
0.0686284289276808,0.010933498083397651,
0.0686783042394015,0.05018228228700812,
0.06872817955112219,0.020322723347805237,
0.0687780548628429,0.040386511459321456,
0.0688279301745636,0.04436549612837141,
0.06887780548628429,0.011754669865338968,
0.06892768079800499,0.0025925910683244208,
0.06897755610972568,0.03996181334675477,
0.06902743142144638,0.021963900688079876,
0.06907730673316709,-0.00914645328886788,
0.06912718204488778,0.0004730343371827997,
0.06917705735660848,0.009602704261643061,
0.06922693266832917,-0.014199980068481909,
0.06927680798004987,0.021359027030541766,
0.06932668329177058,0.01762560545419717,
0.06937655860349128,-0.0009072942654296916,
0.06942643391521197,0.03211747147043866,
0.06947630922693267,0.006922404807574653,
0.06952618453865336,0.010427454878936834,
0.06957605985037406,-0.0009799513805628622,
0.06962593516209477,0.01918327668372873,
0.06967581047381546,0.018840551752186126,
0.06972568578553616,0.035965075603521926,
0.06977556109725686,0.03377379630558839,
0.06982543640897755,0.016159019616084683,
0.06987531172069826,0.02887590844463949,
0.06992518703241896,0.006025354479169159,
0.06997506234413965,0.0058692600656616856,
0.07002493765586035,0.021672685507656643,
0.07007481296758104,0.055048092879532044,
0.07012468827930174,0.027514727213175792,
0.07017456359102245,0.04623951495237629,
0.07022443890274314,0.012266014819842692,
0.07027431421446384,0.02492254221537586,
0.07032418952618454,0.007021106449095914,
0.07037406483790523,0.02057735461194531,
0.07042394014962594,0.014756658811953195,
0.07047381546134664,0.0208683449471919,
0.07052369077306733,-0.011755705998479481,
0.07057356608478803,0.024214512792124665,
0.07062344139650872,0.015039629741557922,
0.07067331670822943,0.026361520656132047,
0.07072319201995013,0.024230337632432875,
0.07077306733167082,0.032456526983546036,
0.07082294264339152,0.03224029000392485,
0.07087281795511222,0.0026278416933934127,
0.07092269326683291,0.004987921923386705,
0.07097256857855362,0.026777188774118492,
0.07102244389027432,0.024661513737330387,
0.07107231920199501,0.0014414229733206337,
0.07112219451371571,0.028961922089934443,
0.0711720698254364,0.033215013175112267,
0.07122194513715711,0.0148471913520124,
0.07127182044887781,0.015912687977099063,
0.0713216957605985,0.05167733960089578,
0.0713715710723192,0.023297386751557396,
0.0714214463840399,0.004106757230278845,
0.07147132169576059,0.005870332688763711,
0.0715211970074813,0.009972659755989407,
0.071571072319202,0.012668992341710808,
0.0716209476309227,0.002611123738152348,
0.07167082294264339,0.045345687052537005,
0.07172069825436408,0.0018647705795829268,
0.0717705735660848,0.01960520488111319,
0.07182044887780549,0.007860813210748463,
0.07187032418952619,0.02896537143404394,
0.07192019950124688,0.007175571982664781,
0.07197007481296758,0.002212811814461771,
0.07201995012468827,-0.008510168289038895,
0.07206982543640898,0.042666638890596485,
0.07211970074812968,-0.009455549427130878,
0.07216957605985037,0.006233518591641186,
0.07221945137157107,0.026235012225049505,
0.07226932668329177,0.012484500410972807,
0.07231920199501247,0.007403349542144333,
0.07236907730673317,0.0009562722149442614,
0.07241895261845387,-0.010220059330151472,
0.07246882793017456,-0.00278799683451804,
0.07251870324189526,0.0022805958079605984,
0.07256857855361595,0.013885806521499643,
0.07261845386533666,0.023458652088166353,
0.07266832917705736,0.018162003013025178,
0.07271820448877805,0.019352967603569037,
0.07276807980049875,0.00857972610727545,
0.07281795511221945,-0.016670501588266325,
0.07286783042394016,0.010084747638681571,
0.07291770573566085,0.00862882447342861,
0.07296758104738155,-0.013244130250701492,
0.07301745635910224,-0.03173950741438293,
0.07306733167082294,-0.015118151783584858,
0.07311720698254365,-0.010820111615002025,
0.07316708229426434,-0.01872281496334374,
0.07321695760598504,-0.0006630643050676696,
0.07326683291770573,0.013142785555573407,
0.07331670822942643,0.023289923832504233,
0.07336658354114713,-0.012787910750109353,
0.07341645885286784,0.04005094176178246,
0.07346633416458853,-0.02867673319435886,
0.07351620947630923,-0.006745961562913191,
0.07356608478802992,0.0009000822269780509,
0.07361596009975062,-0.005695815530272317,
0.07366583541147133,-0.020199175382249968,
0.07371571072319202,-0.01230877328813999,
0.07376558603491272,-0.017733435843748643,
0.07381546134663342,0.004809012240016215,
0.07386533665835411,-0.0074694081149738615,
0.0739152119700748,0.010778176917758824,
0.07396508728179552,-0.008675474192767974,
0.07401496259351621,-0.009308500209218515,
0.07406483790523691,0.007121067876154079,
0.0741147132169576,-0.013069848497071795,
0.0741645885286783,-0.017114284067196804,
0.07421446384039901,-0.013999812988679756,
0.0742643391521197,-0.010302606239463292,
0.0743142144638404,0.009338097858060472,
0.0743640897755611,-0.0095141521144945,
0.07441396508728179,0.016178966682373452,
0.07446384039900249,-0.015014803960240006,
0.0745137157107232,-0.009743059313319214,
0.07456359102244389,-0.006139435871964309,
0.07461346633416459,0.01134318620499004,
0.07466334164588528,-0.024754968955741405,
0.07471321695760598,0.029463463525654876,
0.07476309226932669,0.010753269877863614,
0.07481296758104738,-0.022662121704424304,
0.07486284289276808,-0.02031502040333269,
0.07491271820448878,-0.008410542209873854,
0.07496259351620947,0.002729119506003328,
0.07501246882793017,0.0032834489568011075,
0.07506234413965088,-0.00919203663445328,
0.07511221945137157,0.011620715179520931,
0.07516209476309227,-0.015376097309468418,
0.07521197007481296,-0.011758141635662123,
0.07526184538653366,-0.010775313379383665,
0.07531172069825437,-0.0063911642223617535,
0.07536159600997507,0.014432885556080457,
0.07541147132169576,-0.015231903465040587,
0.07546134663341646,0.0006553919342077597,
0.07551122194513715,-0.008619237145511353,
0.07556109725685786,-0.0016810399744461389,
0.07561097256857856,0.0008402195518713608,
0.07566084788029925,-0.014752284516728198,
0.07571072319201995,-0.012644112877603985,
0.07576059850374064,-0.01759017972462267,
0.07581047381546134,-0.02266738067145166,
0.07586034912718205,-0.01882109353790446,
0.07591022443890275,0.0012063008324021112,
0.07596009975062344,-0.004017941137202939,
0.07600997506234414,-0.02609293403703447,
0.07605985037406483,-0.020091609875347576,
0.07610972568578554,-0.005695096234426726,
0.07615960099750624,-0.014355925250445746,
0.07620947630922693,0.003950106598819414,
0.07625935162094763,-0.0040321239280747875,
0.07630922693266833,-0.00020887599714046468,
0.07635910224438902,-0.02981311399642142,
0.07640897755610973,-0.03706720612963442,
0.07645885286783043,0.015453981746939224,
0.07650872817955112,-0.005438879657984491,
0.07655860349127182,0.016830730402304286,
0.07660847880299251,0.01627535087187526,
0.07665835411471322,0.015276394945010851,
0.07670822942643392,-0.042276931523128,
0.07675810473815461,0.013461803037999421,
0.07680798004987531,-0.015424479326188971,
0.076857855361596,-0.007586931035281755,
0.0769077306733167,-0.017447733480089694,
0.07695760598503741,-0.008091181873427855,
0.0770074812967581,0.010658886092689241,
0.0770573566084788,-0.00930400593198534,
0.0771072319201995,0.0034993712623215545,
0.0771571072319202,0.003059483124028258,
0.0772069825436409,-0.03957220965471703,
0.0772568578553616,0.007923645321214534,
0.0773067331670823,-0.01402349404744056,
0.07735660847880299,0.007697133488454378,
0.07740648379052369,0.011350670784693487,
0.0774563591022444,-0.02910947204206502,
0.07750623441396509,0.008107672445240174,
0.07755610972568579,0.008236051280219219,
0.07760598503740648,0.013140024850963414,
0.07765586034912718,-0.003254041425650979,
0.07770573566084787,-0.005598271485932723,
0.07775561097256858,-0.009931137125025583,
0.07780548628428928,0.01891465732764396,
0.07785536159600998,-0.0552800673512272,
0.07790523690773067,-0.05746032876342376,
0.07795511221945137,0.022155320947459034,
0.07800498753117208,-0.010886714880074002,
0.07805486284289277,-0.012317795789175563,
0.07810473815461347,0.002256473869975451,
0.07815461346633416,-0.01862798701624513,
0.07820448877805486,-0.0190239599217456,
0.07825436408977555,-0.017262281463255116,
0.07830423940149626,-0.01879842355689315,
0.07835411471321696,-0.010574298332884497,
0.07840399002493766,0.0070261187313865325,
0.07845386533665835,3.4409290458073394e-05,
0.07850374064837905,-0.015022004973054861,
0.07855361596009976,0.017015609245570266,
0.07860349127182045,-0.01763097778127185,
0.07865336658354115,-0.03853041591412856,
0.07870324189526184,-0.01002028215659552,
0.07875311720698254,-0.027521082365164387,
0.07880299251870324,-0.004424917985294248,
0.07885286783042394,-0.024334551957656318,
0.07890274314214464,-0.03444333704801182,
0.07895261845386534,0.006566924533156066,
0.07900249376558603,-0.043283045676484014,
0.07905236907730673,-0.0019209372394638352,
0.07910224438902744,-0.026618594449709897,
0.07915211970074813,0.0029191141576938463,
0.07920199501246883,-0.02111478506392243,
0.07925187032418952,0.006516488163825596,
0.07930174563591022,-0.03071668734711519,
0.07935162094763092,-0.00767458467336461,
0.07940149625935163,0.004043090917898626,
0.07945137157107232,-0.007214895819348905,
0.07950124688279302,0.0034804967357569497,
0.07955112219451371,-0.020739675277268572,
0.07960099750623441,-0.02411947279035625,
0.07965087281795512,-0.006421251826689315,
0.07970074812967581,-0.019597504432141852,
0.07975062344139651,-0.01532842467611257,
0.0798004987531172,-0.004513672364045519,
0.0798503740648379,0.0008464055346937317,
0.07990024937655861,0.007295322499799329,
0.0799501246882793,0.004313101149723636,
0.08,-0.005753633279207892,
0.0800498753117207,-0.017995970325216274,
0.0800997506234414,-0.03527780528018801,
0.08014962593516209,-0.010342327322703664,
0.0801995012468828,-0.022423833574662072,
0.0802493765586035,-0.012621699555579995,
0.08029925187032419,-0.0050667910321378525,
0.08034912718204489,-0.022357774515666055,
0.08039900249376558,-0.017233462540968164,
0.08044887780548629,-0.027360024731991797,
0.08049875311720699,-0.010785597810655486,
0.08054862842892768,0.02092635089586237,
0.08059850374064838,-0.008790917809997589,
0.08064837905236907,-0.0012507654596869864,
0.08069825436408977,-0.012738770423131384,
0.08074812967581048,-0.030099475431706664,
0.08079800498753117,-0.003695262663587271,
0.08084788029925187,-0.0042925498429685505,
0.08089775561097257,-0.030263353822988906,
0.08094763092269326,-0.00676851752113132,
0.08099750623441397,-0.009976797151532598,
0.08104738154613467,-0.030931322003085727,
0.08109725685785536,-0.001642243171356263,
0.08114713216957606,-0.014720420817446619,
0.08119700748129675,0.01189972454857227,
0.08124688279301745,-0.017779836178922436,
0.08129675810473816,0.014370406611832452,
0.08134663341645886,-0.020105869050830984,
0.08139650872817955,-0.00040525278594106596,
0.08144638403990025,-0.005073186106553452,
0.08149625935162094,0.006882429645163968,
0.08154613466334165,0.0018634291363768627,
0.08159600997506235,-0.01783105337537031,
0.08164588528678304,-0.003208249784202929,
0.08169576059850374,-0.0031766824164738785,
0.08174563591022443,0.009622650147105075,
0.08179551122194513,-0.020306401059111353,
0.08184538653366584,0.01667138045789302,
0.08189526184538654,-0.028724535647379847,
0.08194513715710723,-0.013433154656648783,
0.08199501246882793,0.012460553253552758,
0.08204488778054862,0.000448723587225613,
0.08209476309226933,0.004203637401182096,
0.08214463840399003,0.020184504558025083,
0.08219451371571072,-0.005151043944831761,
0.08224438902743142,0.008136141019689914,
0.08229426433915212,0.0032187006131961515,
0.08234413965087282,-0.0009658705097068355,
0.08239401496259352,0.015108186757284595,
0.08244389027431422,-0.004431108361153033,
0.08249376558603491,-0.025754039464453253,
0.08254364089775561,-0.0037080780539137936,
0.0825935162094763,0.007646389889237549,
0.08264339152119701,0.004072812448240046,
0.08269326683291771,0.04136753016184198,
0.0827431421446384,0.010449846961385623,
0.0827930174563591,0.007388894687721817,
0.0828428927680798,0.012627110720561305,
0.0828927680798005,0.002359944830231041,
0.0829426433915212,0.00945693212685594,
0.0829925187032419,-0.02662665326040358,
0.08304239401496259,0.0028886304629430655,
0.08309226932668329,0.035646873879874426,
0.08314214463840398,-0.03082956147176237,
0.0831920199501247,0.05044679653903941,
0.08324189526184539,0.010846637547736652,
0.08329177057356608,-0.02216292773478361,
0.08334164588528678,0.0030872878799996263,
0.08339152119700748,0.00663684521149778,
0.08344139650872819,0.01979426374966107,
0.08349127182044888,-0.012827250706755045,
0.08354114713216958,0.0035232240207565373,
0.08359102244389027,0.039621180898174554,
0.08364089775561097,-0.0029564481367040617,
0.08369077306733166,-0.005920564779032033,
0.08374064837905237,0.018098789121250826,
0.08379052369077307,0.0035331310424758147,
0.08384039900249377,0.005407532501050723,
0.08389027431421446,0.022590876954533934,
0.08394014962593516,0.03677510291004322,
0.08399002493765587,0.001977396980671944,
0.08403990024937656,0.018260861959371624,
0.08408977556109726,0.047927906365493815,
0.08413965087281795,-0.00622036484362724,
0.08418952618453865,0.029960408361382206,
0.08423940149625936,0.014439287450279115,
0.08428927680798005,0.018637288362064783,
0.08433915211970075,-0.0008167967793883124,
0.08438902743142145,-0.013870642053560006,
0.08443890274314214,-0.00154494058742417,
0.08448877805486284,0.020105519462219036,
0.08453865336658355,0.024952920148804656,
0.08458852867830424,0.004500405839255643,
0.08463840399002494,0.006331756549165004,
0.08468827930174563,0.021139058850687856,
0.08473815461346633,0.049110861388032626,
0.08478802992518704,0.009218337824847257,
0.08483790523690773,0.054257439965005524,
0.08488778054862843,0.017862676623124595,
0.08493765586034913,0.022786048391078107,
0.08498753117206982,-0.007458279997191241,
0.08503740648379052,0.03699890047603663,
0.08508728179551123,0.02671923065350297,
0.08513715710723192,0.006141024294135803,
0.08518703241895262,0.002913015647907302,
0.08523690773067331,0.01741795220822465,
0.08528678304239401,0.0008097246861967604,
0.08533665835411472,0.011736601363150375,
0.08538653366583542,0.009251201374192929,
0.08543640897755611,0.029687760692738187,
0.0854862842892768,0.02052019815053134,
0.0855361596009975,0.024044966580062766,
0.0855860349127182,0.029675682027807945,
0.08563591022443891,0.037212566323339,
0.0856857855361596,0.026769869368002137,
0.0857356608478803,0.007733078332415402,
0.085785536159601,0.0341368880299846,
0.08583541147132169,0.05498626687798841,
0.0858852867830424,0.013520458099297564,
0.0859351620947631,0.02457523105615581,
0.08598503740648379,0.019050969360362293,
0.08603491271820449,0.02297292835849141,
0.08608478802992518,0.04056237611145937,
0.08613466334164588,0.025021086312260195,
0.08618453865336659,0.02491058898706089,
0.08623441396508728,0.062250073333513574,
0.08628428927680798,0.018573035520997178,
0.08633416458852868,0.020446270387531558,
0.08638403990024937,0.04641521669477593,
0.08643391521197008,0.019600030850475243,
0.08648379052369078,0.04453378480321877,
0.08653366583541147,0.02656199862103552,
0.08658354114713217,-0.0066038855359156,
0.08663341645885286,0.03828500417349156,
0.08668329177057357,0.016697767922350615,
0.08673316708229427,0.04174200112552408,
0.08678304239401496,0.03420546720842858,
0.08683291770573566,0.042774342667972254,
0.08688279301745636,0.01725047706861005,
0.08693266832917705,0.0053138292037367835,
0.08698254364089776,0.014621470679987751,
0.08703241895261846,0.03096552440743478,
0.08708229426433915,0.033460295162773546,
0.08713216957605985,0.038400059030551895,
0.08718204488778054,0.0029936395335181665,
0.08723192019950125,0.018615581201666977,
0.08728179551122195,0.024317461937919033,
0.08733167082294264,0.009113217325909376,
0.08738154613466334,0.041894320207773346,
0.08743142144638404,0.018382425812049966,
0.08748129675810473,0.043542674124689845,
0.08753117206982544,0.032570364334425596,
0.08758104738154614,0.03398952552928433,
0.08763092269326683,0.0336089344429186,
0.08768079800498753,0.024126741204157313,
0.08773067331670822,-0.004692871840551123,
0.08778054862842893,0.005579567625304052,
0.08783042394014963,0.03082068283881555,
0.08788029925187033,0.018274693967636788,
0.08793017456359102,0.02582344426151453,
0.08798004987531172,0.004698963235189025,
0.08802992518703241,0.03768536360092687,
0.08807980049875312,0.03749041556612063,
0.08812967581047382,0.023462226672733465,
0.08817955112219451,0.036660676783112356,
0.08822942643391521,0.025725901505206716,
0.0882793017456359,0.045991294976691466,
0.08832917705735661,0.012270943138248079,
0.08837905236907731,0.028199898436516994,
0.088428927680798,0.03195530037509771,
0.0884788029925187,-0.003047203209513901,
0.0885286783042394,0.02563531607238189,
0.0885785536159601,0.04477151284976339,
0.0886284289276808,0.04557856386261072,
0.0886783042394015,0.01471887445936104,
0.0887281795511222,0.013775074049486613,
0.08877805486284289,0.03919773153841623,
0.08882793017456359,0.0386665044937437,
0.0888778054862843,0.027703311523532885,
0.08892768079800499,0.011639590956352626,
0.08897755610972569,0.01962699622414315,
0.08902743142144638,0.0335766676153813,
0.08907730673316708,0.03520521809673197,
0.08912718204488779,0.025803015303696254,
0.08917705735660848,0.00032504303962673994,
0.08922693266832918,0.032600631299248214,
0.08927680798004987,0.05297280359572912,
0.08932668329177057,0.02130437660985424,
0.08937655860349127,0.005176238699002616,
0.08942643391521198,-0.02416068035194827,
0.08947630922693267,0.024887800434279753,
0.08952618453865337,-0.0032957076405064623,
0.08957605985037406,0.017175846581931886,
0.08962593516209476,0.03386070767223907,
0.08967581047381547,0.020632713778039713,
0.08972568578553616,-0.0074518284366885575,
0.08977556109725686,0.015097215245367633,
0.08982543640897755,0.019901870920445684,
0.08987531172069825,0.013590720252317461,
0.08992518703241895,-0.0035837269743190237,
0.08997506234413966,0.010820785293861329,
0.09002493765586035,0.036167452218952484,
0.09007481296758105,0.02089701473303348,
0.09012468827930174,0.021147500048845642,
0.09017456359102244,0.014932698613935038,
0.09022443890274315,0.004626686106783129,
0.09027431421446384,0.021713689450409215,
0.09032418952618454,0.028736963133098724,
0.09037406483790524,0.028424840252223995,
0.09042394014962593,-0.002111600728626317,
0.09047381546134663,0.011038768692548141,
0.09052369077306734,0.06396139749718319,
0.09057356608478803,0.01375888164110169,
0.09062344139650873,0.05437686730433217,
0.09067331670822942,0.03514863467848793,
0.09072319201995012,0.04161309719915263,
0.09077306733167083,0.04368108047933596,
0.09082294264339152,0.02467793795619796,
0.09087281795511222,0.006418525057656525,
0.09092269326683292,0.011692541587733992,
0.09097256857855361,0.008497678602447522,
0.09102244389027432,0.034110168257046616,
0.09107231920199502,0.012296931956860786,
0.09112219451371571,-0.0013718191379804325,
0.09117206982543641,0.022875294805254215,
0.0912219451371571,0.010112840314876057,
0.0912718204488778,-0.015599784687992078,
0.09132169576059851,-0.010919310505314434,
0.0913715710723192,-0.0001253575643324449,
0.0914214463840399,0.017210731314794493,
0.0914713216957606,-0.009959533059946254,
0.09152119700748129,0.009585239798453788,
0.091571072319202,0.00961762022394538,
0.0916209476309227,0.012702027167805207,
0.09167082294264339,-0.006035216178642007,
0.09172069825436409,-0.005980255749276202,
0.09177057356608478,0.008586361275603827,
0.09182044887780548,0.01401978558383802,
0.09187032418952619,0.006596856518694857,
0.09192019950124689,0.0007794341407466494,
0.09197007481296758,0.01362085392989381,
0.09201995012468828,0.02140953188589681,
0.09206982543640897,0.015166562156171718,
0.09211970074812968,0.021022343656710775,
0.09216957605985038,0.000830233186474346,
0.09221945137157107,0.0058344972258983045,
0.09226932668329177,0.0007673842497904308,
0.09231920199501246,0.015372855474844325,
0.09236907730673316,-0.001173498463674023,
0.09241895261845387,0.00528534118944996,
0.09246882793017457,0.010836582098789543,
0.09251870324189526,0.01531034885069157,
0.09256857855361596,0.02070202596317168,
0.09261845386533665,0.031111942441310377,
0.09266832917705736,-0.02377891073087641,
0.09271820448877806,0.013458637849908523,
0.09276807980049875,0.0023527830692588224,
0.09281795511221945,-0.001653743991213986,
0.09286783042394015,0.024951701100693356,
0.09291770573566084,0.04801456496638344,
0.09296758104738155,-0.011556923025339342,
0.09301745635910225,-0.003086539435750983,
0.09306733167082294,-0.028192870433328722,
0.09311720698254364,0.003400292747315798,
0.09316708229426433,0.015901585671314094,
0.09321695760598504,-0.016962017231068757,
0.09326683291770574,-0.01922967119803326,
0.09331670822942643,-0.0007371043154004073,
0.09336658354114713,-0.012811738904150546,
0.09341645885286783,-0.00962023363290749,
0.09346633416458854,-0.001639308247258788,
0.09351620947630923,-0.01382128621530802,
0.09356608478802993,-0.0003287515187750168,
0.09361596009975062,0.0034084546327591415,
0.09366583541147132,-0.007795332075837998,
0.09371571072319201,0.0018162772946208987,
0.09376558603491272,0.024094613528278526,
0.09381546134663342,-0.0006290267968130236,
0.09386533665835411,-0.0022836127189804364,
0.09391521197007481,0.02526504894516191,
0.0939650872817955,-0.015864805962995155,
0.09401496259351622,-0.034552993264757054,
0.09406483790523691,0.0035241102265406955,
0.09411471321695761,0.018217284493761664,
0.0941645885286783,0.010537580963334191,
0.094214463840399,0.03762476676662889,
0.0942643391521197,0.012608795134770836,
0.0943142144638404,-0.010444349897655147,
0.0943640897755611,0.025823981055147112,
0.0944139650872818,-0.0031870962754039635,
0.09446384039900249,-0.015380116790898549,
0.09451371571072319,-0.019783711568184686,
0.0945635910224439,-0.011288913947604451,
0.09461346633416459,0.013673354377811881,
0.09466334164588529,0.006054079190303689,
0.09471321695760598,-0.013138591920961225,
0.09476309226932668,-0.020611726491803456,
0.09481296758104737,-0.0032556004595136086,
0.09486284289276808,-0.0002577198455012454,
0.09491271820448878,-0.002765214636584032,
0.09496259351620948,0.028937552466035958,
0.09501246882793017,0.0025692549663595262,
0.09506234413965087,0.005914614602990535,
0.09511221945137158,0.03670130887755172,
0.09516209476309227,6.387047797574812e-05,
0.09521197007481297,0.007414383550521072,
0.09526184538653366,-0.0024009857247567715,
0.09531172069825436,-0.017061500527188213,
0.09536159600997507,-0.021402197025229365,
0.09541147132169576,0.01173163816747673,
0.09546134663341646,-0.02713175708236115,
0.09551122194513716,-0.011677577182735552,
0.09556109725685785,-0.017638325556548956,
0.09561097256857855,-0.004608178348423261,
0.09566084788029926,0.009701138726867474,
0.09571072319201995,-0.027375391147744475,
0.09576059850374065,-0.009356171299221871,
0.09581047381546134,-0.013867784377478182,
0.09586034912718204,-0.008311118737495998,
0.09591022443890275,-0.00069216718898381,
0.09596009975062345,-0.008653017198283836,
0.09600997506234414,0.01880982206886939,
0.09605985037406484,0.016910575990107153,
0.09610972568578553,0.01238614583956878,
0.09615960099750623,-0.0271502491761667,
0.09620947630922694,0.013094005884913258,
0.09625935162094763,0.01702702614676062,
0.09630922693266833,-0.01207428066222849,
0.09635910224438902,-0.03193773505237667,
0.09640897755610972,-0.03154653831237531,
0.09645885286783043,-0.013115757947481635,
0.09650872817955113,-0.0007905206310596623,
0.09655860349127182,-0.011794633099866074,
0.09660847880299252,-0.002893944214600968,
0.09665835411471321,-0.014650593559517328,
0.09670822942643391,-0.024434811819441023,
0.09675810473815462,-0.016741216377306876,
0.09680798004987531,-0.031821900802216044,
0.09685785536159601,0.023926911229186748,
0.0969077306733167,-0.027128688958194362,
0.0969576059850374,-0.03739491555337439,
0.09700748129675811,-0.030523951271336554,
0.0970573566084788,0.010294774943774336,
0.0971072319201995,-0.003907967429932805,
0.0971571072319202,0.014350893134414015,
0.0972069825436409,0.009686069184516543,
0.09725685785536159,0.003685523613529168,
0.0973067331670823,-0.022221426726770174,
0.097356608478803,-0.038504304384068044,
0.09740648379052369,-0.017325165385997175,
0.09745635910224439,-0.0026731727628915656,
0.09750623441396508,0.0017836407157457886,
0.09755610972568579,-0.023653641808697744,
0.09760598503740649,0.003920802988375882,
0.09765586034912718,-0.017491083853954426,
0.09770573566084788,-0.023314276087952977,
0.09775561097256857,-0.02219652656654923,
0.09780548628428928,-0.07083084829177413,
0.09785536159600998,-0.019563214846301254,
0.09790523690773068,-0.012845841470356504,
0.09795511221945137,-0.014440420401735573,
0.09800498753117207,-0.012397620742152185,
0.09805486284289276,-0.008012498674747705,
0.09810473815461347,-0.02680677154485072,
0.09815461346633417,0.0076736548218304355,
0.09820448877805486,0.005017375067450241,
0.09825436408977556,-0.015027653283839815,
0.09830423940149625,-0.00218626169721323,
0.09835411471321696,-0.006819387998241557,
0.09840399002493766,-0.014930901182062648,
0.09845386533665836,-0.005083319605481252,
0.09850374064837905,0.008117716863955952,
0.09855361596009975,0.0013734081558696952,
0.09860349127182044,-0.03325997792849034,
0.09865336658354115,-0.016252184929201906,
0.09870324189526185,-0.018674378123014944,
0.09875311720698254,0.0012106244103647999,
0.09880299251870324,-0.00813192092327765,
0.09885286783042393,-0.001768724009360255,
0.09890274314214464,-0.022138396476144764,
0.09895261845386534,-0.009481144775329305,
0.09900249376558604,-0.029351259687552242,
0.09905236907730673,-0.03192048419917223,
0.09910224438902743,0.006032162328035773,
0.09915211970074812,-0.015160456565831409,
0.09920199501246883,-0.03967172854169847,
0.09925187032418953,-0.010209632529574866,
0.09930174563591022,-0.015893370506126613,
0.09935162094763092,0.0055014465873783076,
0.09940149625935162,-0.011763628258931012,
0.09945137157107233,-0.029844032320130703,
0.09950124688279302,-0.012210917563810954,
0.09955112219451372,0.02026129659918808,
0.09960099750623441,-0.02282507936155283,
0.09965087281795511,0.025446024145893042,
0.0997007481296758,0.003268712808416648,
0.09975062344139651,0.0041916748601817395,
0.09980049875311721,-0.028519730698426213,
0.0998503740648379,0.008611792281325158,
0.0999002493765586,-0.00016571735539374754,
0.0999501246882793,-0.02733888900751501,
0.1,-0.01734998735419388,
0.1000498753117207,0.001346549743544043,
0.1000997506234414,0.014979959693128316,
0.10014962593516209,0.009744430146968203,
0.10019950124688279,-0.010641480324911527,
0.1002493765586035,0.004317499327989303,
0.1002992518703242,-0.005125835718545914,
0.10034912718204489,0.008205868593501376,
0.10039900249376559,0.010817072457791163,
0.10044887780548628,-0.02871210274320447,
0.10049875311720698,0.025136472358975787,
0.10054862842892769,-0.015293793032158463,
0.10059850374064838,-0.0202444465685316,
0.10064837905236908,-0.010948337024600983,
0.10069825436408977,0.013193585805190842,
0.10074812967581047,0.012889622908692382,
0.10079800498753118,0.004223192685251792,
0.10084788029925187,-0.01158083143915585,
0.10089775561097257,-0.008812088458600573,
0.10094763092269327,0.016626132922140578,
0.10099750623441396,-0.0012323544698372877,
0.10104738154613466,-0.002174795672072796,
0.10109725685785537,0.0037412918344873793,
0.10114713216957606,-0.0033390899639804223,
0.10119700748129676,0.001954057267509103,
0.10124688279301745,0.005960380441347639,
0.10129675810473815,-0.012355086048853776,
0.10134663341645886,-0.000764182520678251,
0.10139650872817955,-0.004473960495023151,
0.10144638403990025,-0.006962626247224393,
0.10149625935162095,0.003046275701395005,
0.10154613466334164,-0.02633200950075557,
0.10159600997506234,0.007079599103617149,
0.10164588528678305,-0.014735399932605628,
0.10169576059850374,-0.017629565548118092,
0.10174563591022444,0.012546870040577918,
0.10179551122194513,0.0265820362563841,
0.10184538653366583,0.0058818422902436295,
0.10189526184538654,0.005091083778386738,
0.10194513715710724,0.018159832344407798,
0.10199501246882793,-0.010981714522470064,
0.10204488778054863,0.010112070768940357,
0.10209476309226932,-0.025544347839315005,
0.10214463840399003,0.013814473905539311,
0.10219451371571073,0.014587933349963554,
0.10224438902743142,-0.015669439356734705,
0.10229426433915212,0.029560185489471685,
0.10234413965087281,-0.0011765460219364662,
0.10239401496259351,0.034433229467653745,
0.10244389027431422,0.02485464742039537,
0.10249376558603492,-0.008843447487837114,
0.10254364089775561,0.00884053676353679,
0.10259351620947631,0.01632947570266275,
0.102643391521197,0.006911375863884375,
0.10269326683291771,0.007658777589204786,
0.10274314214463841,-0.00442611574962906,
0.1027930174563591,0.011269502715334407,
0.1028428927680798,0.01923421179965061,
0.1028927680798005,0.026154732994282157,
0.10294264339152119,0.015991129696716254,
0.1029925187032419,-0.006058089355898872,
0.1030423940149626,0.001465482518262574,
0.10309226932668329,0.0031930444932719067,
0.10314214463840399,0.02619246632563845,
0.10319201995012468,0.0056855890885562565,
0.10324189526184539,0.023874054990443448,
0.10329177057356609,0.03980000061348507,
0.10334164588528678,-0.004016039564753115,
0.10339152119700748,0.034151619766214,
0.10344139650872818,0.00819978738559815,
0.10349127182044887,0.019366075983104178,
0.10354114713216958,0.008637613608629172,
0.10359102244389028,-0.00031916299970988216,
0.10364089775561097,0.02887141839292224,
0.10369077306733167,0.04957869880601237,
0.10374064837905236,0.025845638437465478,
0.10379052369077307,-0.0033144578495299948,
0.10384039900249377,-0.019172556968813412,
0.10389027431421446,0.01125597262446178,
0.10394014962593516,0.010040550906212625,
0.10399002493765586,0.060693110403074055,
0.10403990024937655,0.014351443142889058,
0.10408977556109726,0.017473799401356543,
0.10413965087281796,0.008820489940880376,
0.10418952618453865,0.019637614083512563,
0.10423940149625935,0.029166418881831288,
0.10428927680798004,0.0420491280456368,
0.10433915211970075,0.026160687467696682,
0.10438902743142145,0.03920805075067281,
0.10443890274314215,0.015135061091705327,
0.10448877805486284,0.02261586927612127,
0.10453865336658354,0.03207185768613152,
0.10458852867830425,0.013735427636614134,
0.10463840399002494,0.023516158946389816,
0.10468827930174564,0.012823821557521393,
0.10473815461346633,0.004459620442128848,
0.10478802992518703,0.0046710749034814154,
0.10483790523690772,0.04677631886215959,
0.10488778054862843,0.021681213418653235,
0.10493765586034913,0.043034872636279045,
0.10498753117206983,0.02868219048292866,
0.10503740648379052,0.004262490542290203,
0.10508728179551122,0.00987530993031823,
0.10513715710723193,0.03684202917442607,
0.10518703241895262,-0.002743835995274016,
0.10523690773067332,0.026943073374794214,
0.10528678304239401,0.015416309092733345,
0.10533665835411471,0.026191739723166053,
0.1053865336658354,0.010201027921697192,
0.10543640897755611,0.011673147414993956,
0.10548628428927681,0.0470125289677437,
0.1055361596009975,0.043846372349821534,
0.1055860349127182,0.0367647872341612,
0.1056359102244389,0.003699391390396354,
0.10568578553615961,0.04429980436289693,
0.1057356608478803,0.043632649693139125,
0.105785536159601,0.020513848916299742,
0.1058354114713217,-0.0033494172610277796,
0.10588528678304239,0.029583999402739806,
0.10593516209476309,0.03836936592182334,
0.1059850374064838,0.02716632254135605,
0.10603491271820449,0.018398975253800492,
0.10608478802992519,0.011103833703256563,
0.10613466334164588,0.04328711669010642,
0.10618453865336658,0.016621117295706422,
0.10623441396508729,0.02964444097995362,
0.10628428927680798,0.04924531749000176,
0.10633416458852868,0.03511100595617999,
0.10638403990024937,0.027549211750730246,
0.10643391521197007,0.006869904834694199,
0.10648379052369077,0.021638725950829316,
0.10653366583541148,0.011591889492899382,
0.10658354114713217,0.03940002521295166,
0.10663341645885287,0.00819879363211723,
0.10668329177057356,0.010043169665115405,
0.10673316708229426,0.01810639179872092,
0.10678304239401497,0.03757273774503059,
0.10683291770573566,0.007103097976296144,
0.10688279301745636,0.019353009981372696,
0.10693266832917706,0.02269566495846391,
0.10698254364089775,0.035235822846166984,
0.10703241895261846,0.034997179311190535,
0.10708229426433916,0.04599326245744238,
0.10713216957605985,0.035033636132725664,
0.10718204488778055,0.01557683877198466,
0.10723192019950124,0.034356340373889224,
0.10728179551122194,0.04201200941031654,
0.10733167082294265,0.0262200324970958,
0.10738154613466334,0.045361544659798525,
0.10743142144638404,0.02721196450942648,
0.10748129675810474,0.023774089736640528,
0.10753117206982543,0.0380367946848056,
0.10758104738154614,0.023802962961347495,
0.10763092269326684,0.012933562840783118,
0.10768079800498753,0.04113060096033127,
0.10773067331670823,-0.007699884641890052,
0.10778054862842892,0.023807812474378992,
0.10783042394014962,0.018134544006797565,
0.10788029925187033,0.013987627667710964,
0.10793017456359102,0.05046278125450278,
0.10798004987531172,0.045098479298059546,
0.10802992518703242,0.010998791125461621,
0.10807980049875311,0.04728576876348531,
0.10812967581047382,0.01454832286715226,
0.10817955112219452,0.01917130346314699,
0.10822942643391521,0.03889809715547232,
0.10827930174563591,0.021854985613953996,
0.1083291770573566,0.0028678653579616645,
0.1083790523690773,0.0284213011009184,
0.10842892768079801,0.020853947371898933,
0.1084788029925187,0.035598003497430974,
0.1085286783042394,0.025772666497939477,
0.1085785536159601,0.0276786206789141,
0.10862842892768079,0.017735970020548088,
0.1086783042394015,0.04116745990303309,
0.1087281795511222,0.05080165563708004,
0.1087780548628429,0.04344379791938337,
0.10882793017456359,0.042191052754885806,
0.10887780548628428,0.040504300134264065,
0.108927680798005,0.01883379337833062,
0.10897755610972569,0.052167921672730405,
0.10902743142144639,-0.019623277206238222,
0.10907730673316708,0.012977952095320622,
0.10912718204488778,0.004300736363556011,
0.10917705735660847,0.03864736968950659,
0.10922693266832918,0.021740219355499416,
0.10927680798004988,0.016449760570715156,
0.10932668329177057,0.025707250561190196,
0.10937655860349127,-0.000902953196739633,
0.10942643391521197,0.012345545311257533,
0.10947630922693267,0.024370587914986745,
0.10952618453865337,0.020388853084355132,
0.10957605985037407,0.05224071443674397,
0.10962593516209476,0.03912845374731738,
0.10967581047381546,0.0200789169678069,
0.10972568578553615,0.007984031294781996,
0.10977556109725686,0.04576864625768219,
0.10982543640897756,0.009952120021701868,
0.10987531172069825,0.03454379925543757,
0.10992518703241895,0.02966898970348282,
0.10997506234413965,0.0098285885456677,
0.11002493765586036,0.04525001579737035,
0.11007481296758105,0.0305604903661542,
0.11012468827930175,0.02082551958669639,
0.11017456359102244,0.0007873407658652645,
0.11022443890274314,0.022163007470845392,
0.11027431421446383,0.03848761159609755,
0.11032418952618454,0.047389871980030696,
0.11037406483790524,0.012440211738005247,
0.11042394014962593,-0.006358747771222403,
0.11047381546134663,0.016300754367975505,
0.11052369077306733,-0.01689264818633101,
0.11057356608478804,0.0018652707197022896,
0.11062344139650873,0.02374075670661057,
0.11067331670822943,0.0429011635815736,
0.11072319201995012,0.01398132850335905,
0.11077306733167082,0.031257898811427307,
0.11082294264339151,0.027275253470322357,
0.11087281795511222,0.022394056072360516,
0.11092269326683292,0.015280156639874901,
0.11097256857855362,0.017384633510734597,
0.11102244389027431,-9.60690200131134e-05,
0.111072319201995,0.043935303745102364,
0.11112219451371572,-0.0006172253488992141,
0.11117206982543641,0.020000559481129044,
0.11122194513715711,0.026752382989285745,
0.1112718204488778,0.004663923798919223,
0.1113216957605985,0.03730045571919062,
0.11137157107231921,-0.019838396533573735,
0.1114214463840399,0.018825788221670567,
0.1114713216957606,0.03662588730374099,
0.1115211970074813,0.011174439755563238,
0.11157107231920199,0.009688383623484719,
0.11162094763092269,0.006153902567050907,
0.1116708229426434,-0.0081934273482239,
0.11172069825436409,0.03495246527659196,
0.11177057356608479,0.018603554189696163,
0.11182044887780548,0.01157665899508353,
0.11187032418952618,0.02054850488158475,
0.11192019950124689,0.01604138522198039,
0.11197007481296758,0.02349911881528992,
0.11201995012468828,0.023916834730067563,
0.11206982543640898,-0.001997297855645907,
0.11211970074812967,0.00337690352379939,
0.11216957605985037,0.03019741324407436,
0.11221945137157108,0.026255160438887596,
0.11226932668329177,0.02055429614958383,
0.11231920199501247,-0.015413895769493174,
0.11236907730673316,-0.01295433778931581,
0.11241895261845386,0.011615896180099455,
0.11246882793017457,0.007254968281662716,
0.11251870324189527,0.0031133748984518584,
0.11256857855361596,0.03871203555672609,
0.11261845386533666,0.05005267499962786,
0.11266832917705735,0.014450512749480077,
0.11271820448877805,0.009442089415101742,
0.11276807980049876,0.011467842513915206,
0.11281795511221945,-0.007401239929482539,
0.11286783042394015,0.03733161337169368,
0.11291770573566084,-0.01835413751735177,
0.11296758104738154,0.0035010688086130407,
0.11301745635910225,-0.01967994428966293,
0.11306733167082295,0.018234728597096277,
0.11311720698254364,-0.02119014563039482,
0.11316708229426434,0.0016011072639217816,
0.11321695760598503,-0.009014475594633583,
0.11326683291770574,-0.008050239466989705,
0.11331670822942644,-0.015082222727097534,
0.11336658354114713,-0.003304584768070302,
0.11341645885286783,-0.017880480232187048,
0.11346633416458853,0.009582840355339281,
0.11351620947630922,0.013812040029380274,
0.11356608478802993,-0.0043892914922336376,
0.11361596009975063,-0.016206299575093952,
0.11366583541147132,-0.013174923755562151,
0.11371571072319202,0.01854798893091182,
0.11376558603491271,0.04288529905033984,
0.11381546134663342,0.006768052306241696,
0.11386533665835412,0.00647189966797187,
0.11391521197007481,-0.011668402200846497,
0.11396508728179551,-0.0033148808504888756,
0.1140149625935162,-0.00018574014665078146,
0.1140648379052369,0.009773256842288676,
0.11411471321695761,0.026760868403675003,
0.1141645885286783,0.0009676709203481743,
0.114214463840399,0.002578513990705547,
0.1142643391521197,-0.005547417111046861,
0.1143142144638404,-0.021237702737825215,
0.1143640897755611,0.002852667874424687,
0.1144139650872818,0.006567035586846272,
0.1144638403990025,0.0029022602893863164,
0.11451371571072319,-0.00020163807565345016,
0.11456359102244389,-0.005659236032985286,
0.11461346633416458,0.009655587184645662,
0.11466334164588529,-0.015362930182882154,
0.11471321695760599,-0.03105159015156686,
0.11476309226932668,0.0037641692924032435,
0.11481296758104738,-0.005983451440032766,
0.11486284289276807,-0.008901147747133667,
0.11491271820448878,-0.01403660194487562,
0.11496259351620948,-0.021357985256856456,
0.11501246882793018,-0.01634108625769096,
0.11506234413965087,0.031823184828770223,
0.11511221945137157,0.013850599878907084,
0.11516209476309226,0.000761660789835689,
0.11521197007481297,-0.0016405064734135314,
0.11526184538653367,-0.023494980012612642,
0.11531172069825436,-0.011441205832649987,
0.11536159600997506,0.0006766068739571807,
0.11541147132169575,0.0024247634200855912,
0.11546134663341646,0.022996978927396862,
0.11551122194513716,-0.011857942509035026,
0.11556109725685786,-0.02147223428584411,
0.11561097256857855,-0.016289554253687836,
0.11566084788029925,-0.014208935333879976,
0.11571072319201996,0.004125097333859046,
0.11576059850374065,-0.007414595137698862,
0.11581047381546135,-0.014727366780591063,
0.11586034912718204,0.012756077650384957,
0.11591022443890274,-0.009852747162775363,
0.11596009975062344,-0.008479500372202102,
0.11600997506234415,-0.017142765700215314,
0.11605985037406484,0.018984751999076205,
0.11610972568578554,0.002484158470067499,
0.11615960099750623,0.009151678341984595,
0.11620947630922693,-0.011574132365141977,
0.11625935162094764,-0.0266264498785655,
0.11630922693266833,0.0013428082089175994,
0.11635910224438903,-0.0425260345311354,
0.11640897755610972,-0.02683747431244482,
0.11645885286783042,-0.024662346860271425,
0.11650872817955112,0.0035665448648386205,
0.11655860349127183,-0.04364736861558241,
0.11660847880299252,-0.011220131979883884,
0.11665835411471322,0.016041110450538285,
0.11670822942643391,-0.028749636230675897,
0.11675810473815461,-0.012346102040478979,
0.11680798004987532,-0.022983164602068187,
0.11685785536159601,-0.03641285092766328,
0.11690773067331671,-0.025351506742847627,
0.1169576059850374,-0.014791608621985445,
0.1170074812967581,-0.011623765827718568,
0.1170573566084788,0.00736708758886011,
0.1171072319201995,-0.0002059135801430606,
0.1171571072319202,-0.005136880139605405,
0.1172069825436409,-0.021087381409896015,
0.1172568578553616,-0.04453733356213348,
0.11730673316708229,-0.0336338555350657,
0.117356608478803,-0.020785131771355644,
0.1174064837905237,-0.005704758911537042,
0.11745635910224439,-0.010555776928903002,
0.11750623441396509,0.004682866008880175,
0.11755610972568578,-0.03905443666932988,
0.11760598503740648,-0.014372112045540054,
0.11765586034912719,-0.019421902267949764,
0.11770573566084788,-0.006636170749680266,
0.11775561097256858,-0.04031418930206147,
0.11780548628428927,-0.028503486453269708,
0.11785536159600997,-0.010783565840521647,
0.11790523690773068,-0.018386032609910802,
0.11795511221945137,0.0006509704333848166,
0.11800498753117207,0.004227321198108978,
0.11805486284289277,-0.006535228737202821,
0.11810473815461346,-0.013845829859823454,
0.11815461346633417,-0.020976159699985432,
0.11820448877805487,-0.011222681323743667,
0.11825436408977556,-0.020618024704956613,
0.11830423940149626,-0.020214910196607767,
0.11835411471321695,-0.00915941065568817,
0.11840399002493765,-0.013862458545655057,
0.11845386533665836,-0.017604867522887716,
0.11850374064837906,0.026454669402861616,
0.11855361596009975,0.014293486459131989,
0.11860349127182045,-0.0033197291079273532,
0.11865336658354114,0.0024540052173982214,
0.11870324189526185,-0.027970972556099136,
0.11875311720698255,0.005126718613548711,
0.11880299251870324,-0.016552186385599816,
0.11885286783042394,-0.021561601584023725,
0.11890274314214463,0.002021138450267884,
0.11895261845386533,-0.016389060210637706,
0.11900249376558604,0.01779929085334859,
0.11905236907730674,-0.008024094289420712,
0.11910224438902743,-0.018103666826690765,
0.11915211970074813,0.006794474029394086,
0.11920199501246882,-0.008122660101229365,
0.11925187032418953,0.01736866527982056,
0.11930174563591023,-0.003239556887991605,
0.11935162094763092,-0.02973669695517108,
0.11940149625935162,-0.02180526321573773,
0.11945137157107232,0.022494599851863188,
0.11950124688279301,-0.02662903734144801,
0.11955112219451372,-0.00024395856362154772,
0.11960099750623442,0.010402000349064374,
0.11965087281795511,-0.03728259762534808,
0.11970074812967581,0.021971140649545105,
0.1197506234413965,-0.008845026907787724,
0.11980049875311721,0.01943282929301389,
0.11985037406483791,0.014112382612661966,
0.1199002493765586,0.006240226319022546,
0.1199501246882793,-0.0012607202282074684,
0.12,0.02249669336483559,
0.1200498753117207,-0.010557174369952934,
0.1200997506234414,-0.0005436850684652998,
0.1201496259351621,0.013046668918882617,
0.12019950124688279,-0.007999994734185722,
0.12024937655860349,0.011708799696051023,
0.12029925187032418,0.00961638957501521,
0.1203491271820449,-0.014208397353907156,
0.12039900249376559,-0.0013341168647623583,
0.12044887780548628,-0.014183242983748302,
0.12049875311720698,-0.022295249550713013,
0.12054862842892768,-0.013540134510624403,
0.12059850374064839,-0.011905385788808386,
0.12064837905236908,0.0008240010976076381,
0.12069825436408978,-0.003436037741840869,
0.12074812967581047,0.006563382617988448,
0.12079800498753117,0.004724152715938219,
0.12084788029925186,-0.03092949591329782,
0.12089775561097257,-0.015288679188504049,
0.12094763092269327,-0.0038758445546236944,
0.12099750623441397,-0.01936888022973271,
0.12104738154613466,0.013061390322620065,
0.12109725685785536,0.017315333614839126,
0.12114713216957607,0.007292084893417779,
0.12119700748129676,-0.010428666964849991,
0.12124688279301746,-0.011480113727398966,
0.12129675810473815,0.01885503470412024,
0.12134663341645885,-0.017764756940156744,
0.12139650872817954,-0.0079787539853486,
0.12144638403990025,-0.013886245961273365,
0.12149625935162095,-0.0064481660655872,
0.12154613466334165,-0.022883148595404017,
0.12159600997506234,0.018714368967037938,
0.12164588528678304,-0.011684081082617453,
0.12169576059850375,0.005185287545086396,
0.12174563591022444,-0.003766331950999591,
0.12179551122194514,0.018699303210460493,
0.12184538653366583,0.013054138576869968,
0.12189526184538653,0.024704266418176656,
0.12194513715710723,-0.008877132170286598,
0.12199501246882793,0.0307865318341418,
0.12204488778054863,-0.008877841452124263,
0.12209476309226933,0.02089691081004078,
0.12214463840399002,-0.02651469433112768,
0.12219451371571072,-0.0006246916764773586,
0.12224438902743143,0.030188782570588723,
0.12229426433915212,-0.0008497400538006886,
0.12234413965087282,0.02472649555804366,
0.12239401496259351,-0.005683468826069197,
0.12244389027431421,-0.01424344509417489,
0.12249376558603492,0.01998658965251562,
0.12254364089775562,0.028891724602748088,
0.12259351620947631,0.003784431686140655,
0.122643391521197,-0.0037509468166773852,
0.1226932668329177,0.000938004249727644,
0.1227431421446384,0.008557661954200676,
0.12279301745635911,0.024191339675230166,
0.1228428927680798,-0.018885848797416137,
0.1228927680798005,0.00848882807220909,
0.1229426433915212,-0.009969399517362029,
0.12299251870324189,0.02357298330089768,
0.1230423940149626,0.012374898088071162,
0.1230922693266833,0.005116695639603975,
0.12314214463840399,0.03357560295254025,
0.12319201995012469,0.0325010430952585,
0.12324189526184538,-0.03341908924066889,
0.12329177057356608,0.022961997130797458,
0.12334164588528679,0.02710802197288909,
0.12339152119700748,0.031068728580766338,
0.12344139650872818,0.012088062447551654,
0.12349127182044888,0.00041209283767617774,
0.12354114713216957,0.021280809093798193,
0.12359102244389028,0.032636619235312775,
0.12364089775561098,-0.0327442115829502,
0.12369077306733167,0.025549599008053685,
0.12374064837905237,-0.016698891628070596,
0.12379052369077306,-0.0092099243193253,
0.12384039900249376,0.012148766156875174,
0.12389027431421447,0.010127246069426069,
0.12394014962593516,0.008562126010010333,
0.12399002493765586,0.012957747640433306,
0.12403990024937656,0.026257563553557826,
0.12408977556109725,0.0355444471807501,
0.12413965087281796,0.022756839349947936,
0.12418952618453866,0.034817713078593895,
0.12423940149625935,0.017596027679485395,
0.12428927680798005,0.022087050804028646,
0.12433915211970074,0.007200045649401351,
0.12438902743142144,0.029304838717807445,
0.12443890274314215,0.011487098817994605,
0.12448877805486284,0.016570848952396956,
0.12453865336658354,0.02638081364279651,
0.12458852867830424,0.02369793918708358,
0.12463840399002493,-0.010992889311845031,
0.12468827930174564,-0.01111135615411923,
0.12473815461346634,-0.00446389004180605,
0.12478802992518703,0.039041644494457364,
0.12483790523690773,0.013541770827186635,
0.12488778054862842,0.008307521930903871,
0.12493765586034913,0.011025185643870429,
0.12498753117206983,0.032064723035942745,
0.12503740648379053,0.019583923195084726,
0.12508728179551123,0.02602909792249557,
0.12513715710723192,0.05937235955351483,
0.12518703241895263,0.015387530452831049,
0.1252369077306733,0.013427216688058977,
0.12528678304239402,0.03791810510106297,
0.1253366583541147,0.016478086970737424,
0.1253865336658354,0.032111584154887934,
0.12543640897755612,0.04426687702569853,
0.1254862842892768,0.019151734648196195,
0.1255361596009975,0.012925519194470575,
0.1255860349127182,0.05519576010921655,
0.1256359102244389,0.022467587622077657,
0.1256857855361596,0.028188236438482013,
0.1257356608478803,0.032113840367881244,
0.125785536159601,0.04582901959191352,
0.12583541147132168,0.008223230001191833,
0.1258852867830424,0.02534609478930016,
0.1259351620947631,0.03083137061310952,
0.12598503740648379,0.0363866118288933,
0.1260349127182045,0.003418300378661917,
0.12608478802992518,0.006938570818387103,
0.1261346633416459,0.018614693271525082,
0.1261845386533666,0.018329076176484972,
0.12623441396508728,0.01827126613611319,
0.126284289276808,0.053162539687138105,
0.12633416458852867,0.0192656494211688,
0.12638403990024938,0.03507864870235865,
0.1264339152119701,0.03493388988278078,
0.12648379052369077,0.04978946118965939,
0.12653366583541148,0.02736225342059536,
0.12658354114713216,0.06959981203263302,
0.12663341645885287,0.028776197214262427,
0.12668329177057355,0.03251436133849116,
0.12673316708229426,0.03945071502926304,
0.12678304239401497,0.027946722537078115,
0.12683291770573565,0.012637796081377196,
0.12688279301745636,0.027764757346956888,
0.12693266832917705,0.040874893843771284,
0.12698254364089775,0.03225241367033139,
0.12703241895261846,0.02709689428092833,
0.12708229426433915,0.027408172942624008,
0.12713216957605986,0.0063687472766938875,
0.12718204488778054,0.013469888139018685,
0.12723192019950125,0.03647278555648633,
0.12728179551122196,0.04838463142949299,
0.12733167082294264,0.03205345548346607,
0.12738154613466335,0.05486981784601773,
0.12743142144638403,0.05157168479827498,
0.12748129675810474,0.022303505960278233,
0.12753117206982545,0.030521258474474802,
0.12758104738154613,0.02539449319262722,
0.12763092269326684,0.04706535029838066,
0.12768079800498752,0.011755953056437885,
0.12773067331670823,0.03290725415745067,
0.1277805486284289,0.03503819849914332,
0.12783042394014962,0.05180916894976234,
0.12788029925187033,0.02787568571630162,
0.12793017456359101,0.026358730833399225,
0.12798004987531172,0.05310882629136619,
0.1280299251870324,0.044696244601438694,
0.12807980049875312,0.011989770949884848,
0.12812967581047383,0.044654686111377254,
0.1281795511221945,0.0156328960820184,
0.12822942643391522,0.0375803987463386,
0.1282793017456359,0.021487901286522837,
0.1283291770573566,0.023388202037007526,
0.12837905236907732,0.022629265321705633,
0.128428927680798,0.03183950487350964,
0.1284788029925187,0.04782381059234561,
0.1285286783042394,0.026148798465827322,
0.1285785536159601,0.03531127394364531,
0.1286284289276808,0.02229613462820163,
0.1286783042394015,0.027596994954211643,
0.1287281795511222,0.02225289817180373,
0.12877805486284288,0.0151359161135208,
0.1288279301745636,0.024030186981517074,
0.1288778054862843,0.018715499676670324,
0.12892768079800498,0.035016027640684705,
0.1289775561097257,0.03478804758219203,
0.12902743142144638,0.052910898981485516,
0.12907730673316709,0.018424389379805284,
0.12912718204488777,0.027890163898824143,
0.12917705735660848,0.004349623880430007,
0.1292269326683292,0.05622169162018527,
0.12927680798004987,0.038691690120049776,
0.12932668329177058,0.029241515617401674,
0.12937655860349126,0.04030321046605842,
0.12942643391521197,0.039478937092978145,
0.12947630922693268,0.03872087964163252,
0.12952618453865336,0.04519711643802479,
0.12957605985037407,0.03626104372624185,
0.12962593516209475,0.002419902423811446,
0.12967581047381546,0.01928952390487008,
0.12972568578553617,0.022072711158048527,
0.12977556109725685,0.02982509741906117,
0.12982543640897756,0.031067569448796628,
0.12987531172069824,0.03392108394853348,
0.12992518703241895,0.047522325449643146,
0.12997506234413966,0.014362115009356968,
0.13002493765586035,0.03506564258544291,
0.13007481296758105,0.035511742960782175,
0.13012468827930174,0.028537979718173637,
0.13017456359102245,0.01825502614121673,
0.13022443890274316,0.011202135925431959,
0.13027431421446384,0.026469114524365504,
0.13032418952618455,0.017482846326744877,
0.13037406483790523,-0.010641133172817493,
0.13042394014962594,0.03741075210261974,
0.13047381546134662,0.02015726858208737,
0.13052369077306733,0.01879887706650543,
0.13057356608478804,0.02108878796705752,
0.13062344139650872,0.028403442068308346,
0.13067331670822943,0.04238263825211193,
0.1307231920199501,0.0001799444348811359,
0.13077306733167082,0.0269663885485218,
0.13082294264339153,0.013419762462635175,
0.13087281795511221,0.03487154104192082,
0.13092269326683292,0.01367067288049868,
0.1309725685785536,0.016862259941654537,
0.13102244389027431,0.03980370808845661,
0.13107231920199502,0.015451130436022184,
0.1311221945137157,0.030963351001205883,
0.13117206982543642,0.023005507452597083,
0.1312219451371571,0.01855007408480872,
0.1312718204488778,0.0183743484586705,
0.13132169576059852,0.017670354497009183,
0.1313715710723192,0.0231146872972396,
0.1314214463840399,0.028049194323142394,
0.1314713216957606,0.02748203615800855,
0.1315211970074813,0.04429668513661183,
0.13157107231920198,0.0166644971826431,
0.1316209476309227,-0.0036310919598756194,
0.1316708229426434,0.020210504387945305,
0.13172069825436408,0.014840712495224668,
0.1317705735660848,0.032689669695721235,
0.13182044887780547,0.028527463922454935,
0.13187032418952618,0.016945310937531655,
0.1319201995012469,0.01007785947267597,
0.13197007481296757,0.022366468883745286,
0.13201995012468828,0.025015040973902176,
0.13206982543640897,0.02540630620844298,
0.13211970074812968,0.0003231921097119478,
0.13216957605985039,-0.011316989054974093,
0.13221945137157107,0.03225237820057843,
0.13226932668329178,0.011913640962473684,
0.13231920199501246,0.02539355163272622,
0.13236907730673317,0.03222828012144832,
0.13241895261845388,0.019720387559657493,
0.13246882793017456,-0.008191073743690916,
0.13251870324189527,-0.008659404796041057,
0.13256857855361595,0.00012095419591750742,
0.13261845386533666,-0.006346102187043125,
0.13266832917705737,0.006755349576989197,
0.13271820448877805,0.022572143899381683,
0.13276807980049876,0.020683140399794457,
0.13281795511221944,0.006835790260913988,
0.13286783042394015,0.004537664731002489,
0.13291770573566083,0.0010466580619929063,
0.13296758104738154,-0.0033409074188289773,
0.13301745635910225,-0.011292158651252392,
0.13306733167082294,0.0004168980502034991,
0.13311720698254365,-0.0075115605604861285,
0.13316708229426433,0.006166584654163056,
0.13321695760598504,0.007775075973124162,
0.13326683291770575,0.008557636860770702,
0.13331670822942643,-0.011870456532196573,
0.13336658354114714,-0.025082399656676947,
0.13341645885286782,0.007862583715643391,
0.13346633416458853,-0.013155959470936226,
0.13351620947630924,-0.011649034113445977,
0.13356608478802992,-0.015562630214668603,
0.13361596009975063,0.02095618974435572,
0.1336658354114713,-0.006950665964227656,
0.13371571072319202,0.04645268791728388,
0.13376558603491273,0.004726233310796857,
0.1338154613466334,-0.0009687827216000935,
0.13386533665835412,0.030034519904733572,
0.1339152119700748,0.01670914848085469,
0.13396508728179551,0.018416315873177977,
0.1340149625935162,-0.0005730808322031056,
0.1340648379052369,0.0019749188073954283,
0.13411471321695762,-0.018732662276415055,
0.1341645885286783,-0.022197788615064606,
0.134214463840399,0.03480574796887358,
0.1342643391521197,0.00029041547494732076,
0.1343142144638404,0.015295474012314814,
0.1343640897755611,0.003908719528410689,
0.1344139650872818,0.0205710539061756,
0.1344638403990025,0.017118164195603316,
0.13451371571072318,0.017238716829888836,
0.1345635910224439,0.008061740530076798,
0.1346134663341646,-0.015781588067886237,
0.13466334164588528,-0.0013231430129159614,
0.134713216957606,-0.0031330132319313483,
0.13476309226932667,0.003253280631307108,
0.13481296758104738,-0.003995105766293458,
0.1348628428927681,0.005113653740365661,
0.13491271820448877,-0.02045304273340387,
0.13496259351620948,0.0009322226108382341,
0.13501246882793017,-0.004614982846554255,
0.13506234413965088,-0.0020447847486554775,
0.13511221945137158,0.002441160838934515,
0.13516209476309227,-0.009131631487964096,
0.13521197007481298,0.002388186669216327,
0.13526184538653366,-0.007415015118540662,
0.13531172069825437,-0.0075722577699171845,
0.13536159600997505,-0.028159907966933705,
0.13541147132169576,-0.00496763891745938,
0.13546134663341647,0.016649666128563466,
0.13551122194513715,0.004256581055738834,
0.13556109725685786,0.00701899572743862,
0.13561097256857854,-8.708582970110186e-06,
0.13566084788029925,-0.009761645989053467,
0.13571072319201996,0.015876654558579794,
0.13576059850374064,-0.02443879911531752,
0.13581047381546135,0.006328233460722156,
0.13586034912718203,0.005747140435340917,
0.13591022443890274,0.0019036942089443523,
0.13596009975062345,-0.014322898761555805,
0.13600997506234414,0.015805546666333388,
0.13605985037406484,-0.004907672154712602,
0.13610972568578553,-0.020656235949594787,
0.13615960099750624,-0.012235768918706542,
0.13620947630922695,-0.02452841448173472,
0.13625935162094763,0.0140012594302622,
0.13630922693266834,0.013034444834707741,
0.13635910224438902,0.009481019628069846,
0.13640897755610973,0.0015688545204436653,
0.1364588528678304,-0.002053454997171712,
0.13650872817955112,-0.021115030427907508,
0.13655860349127183,-0.03691414624397257,
0.1366084788029925,-0.013744177123530325,
0.13665835411471322,0.003613819275336468,
0.1367082294264339,-0.01879145682034026,
0.1367581047381546,0.014892407256542587,
0.13680798004987532,-0.010860464777355777,
0.136857855361596,-0.015721588927004683,
0.1369077306733167,0.010482080323022478,
0.1369576059850374,-0.01323976600563224,
0.1370074812967581,-0.007506951715045576,
0.13705735660847881,-0.017224598603315478,
0.1371072319201995,0.005717426489187374,
0.1371571072319202,0.016637711101255056,
0.1372069825436409,-0.019471357790524144,
0.1372568578553616,-0.0023136835698099496,
0.1373067331670823,-0.011470095078685308,
0.137356608478803,-0.0027798465119707357,
0.1374064837905237,0.008767421153646832,
0.13745635910224438,-0.009812314624171398,
0.1375062344139651,-0.04230160794791476,
0.1375561097256858,-0.03131296558354128,
0.13760598503740648,-0.04275214755487648,
0.1376558603491272,-0.0014908629217754484,
0.13770573566084787,0.0016169880200362276,
0.13775561097256858,-0.01749961561507589,
0.13780548628428926,-0.010994350221031504,
0.13785536159600997,0.001575151072845997,
0.13790523690773068,-0.007565066064021469,
0.13795511221945136,-0.025049586572513403,
0.13800498753117207,0.00039513061427924254,
0.13805486284289276,0.018981301530414295,
0.13810473815461347,-0.015458303918564356,
0.13815461346633418,6.921429224151544e-05,
0.13820448877805486,-0.02026045854610853,
0.13825436408977557,-0.031602224376921416,
0.13830423940149625,-0.004063782591243295,
0.13835411471321696,-0.0221773488693146,
0.13840399002493767,-0.019121487312572176,
0.13845386533665835,0.003626544363409253,
0.13850374064837906,-0.0011360925549783792,
0.13855361596009974,-0.0017682479498099682,
0.13860349127182045,0.00629827308353606,
0.13865336658354116,-0.016159506514875188,
0.13870324189526184,-0.002460245005799576,
0.13875311720698255,-0.00458924852759888,
0.13880299251870323,-0.02811330298185483,
0.13885286783042394,-0.0219809997360441,
0.13890274314214462,0.013654571710100089,
0.13895261845386533,0.012814920993983745,
0.13900249376558604,-0.0050683590061760195,
0.13905236907730673,-0.029114301227560774,
0.13910224438902744,-0.006048947654415669,
0.13915211970074812,-0.017283219591005122,
0.13920199501246883,-0.025266942756512402,
0.13925187032418954,-0.03313660633995484,
0.13930174563591022,0.004510834634116749,
0.13935162094763093,-0.025584659327202705,
0.1394014962593516,-0.026017507449051153,
0.13945137157107232,0.006311891574927937,
0.13950124688279303,-0.007115230511564431,
0.1395511221945137,0.01984255328189688,
0.13960099750623442,-0.005667369892455912,
0.1396508728179551,-0.013197554460508248,
0.1397007481296758,-0.007842965709015687,
0.13975062344139652,-0.024543207717903266,
0.1398004987531172,-0.011410816678170187,
0.1398503740648379,-0.010525503127397803,
0.1399002493765586,0.004840446423742593,
0.1399501246882793,0.0005735345420929093,
0.14,0.00363733649771069,
0.1400498753117207,0.013062602774424528,
0.1400997506234414,0.003758852511977072,
0.1401496259351621,0.001990378127276718,
0.1401995012468828,0.0290784297214337,
0.14024937655860348,-0.011495815270835406,
0.1402992518703242,0.009595759992565176,
0.1403491271820449,-0.006103874658662785,
0.14039900249376558,0.007635896827978937,
0.1404488778054863,-0.0005664471195491985,
0.14049875311720697,-0.021672133055579287,
0.14054862842892768,-0.028344771841930683,
0.1405985037406484,0.00989989684514412,
0.14064837905236907,0.0041963773106888464,
0.14069825436408978,-0.01698795982537515,
0.14074812967581046,0.015418636200318575,
0.14079800498753117,-0.027733522963311243,
0.14084788029925188,-0.011975960899133435,
0.14089775561097256,0.007120281096289555,
0.14094763092269327,0.01459066640312896,
0.14099750623441396,0.003956761902518112,
0.14104738154613466,0.02758854968764948,
0.14109725685785537,-0.009623622966274229,
0.14114713216957606,0.001515546075168276,
0.14119700748129677,-0.01159043214118711,
0.14124688279301745,0.010167135627651093,
0.14129675810473816,0.020152090823217825,
0.14134663341645887,0.01723637116178694,
0.14139650872817955,0.013984738402946329,
