time,amplitude,label
0.0,-0.0017078335162806167,
4.987531172069826e-05,-0.01282894117013468,
9.975062344139652e-05,-0.0010779076673934798,
0.00014962593516209475,-0.01591136384610735,
0.00019950124688279303,-0.003527234612383862,
0.00024937655860349125,0.02079255945737728,
0.0002992518703241895,0.023539406481879122,
0.00034912718204488776,0.0044498026217201616,
0.00039900249376558606,0.01192831274757474,
0.0004488778054862843,-0.010944447110025879,
0.0004987531172069825,0.0014188761789754702,
0.0005486284289276808,0.015497954377387031,
0.000598503740648379,0.00013111117357957319,
0.0006483790523690773,-0.012690853598350064,
0.0006982543640897755,-0.011628440558381033,
0.0007481296758104738,-0.015844882414413487,
0.0007980049875311721,-0.013136639713194748,
0.0008478802992518703,-0.02780624846920683,
0.0008977556109725686,-0.009023150457226514,
0.0009476309226932668,-0.017998484942976994,
0.000997506234413965,0.020131001830030335,
0.0010473815461346633,0.0024152528017527567,
0.0010972568578553616,0.036452119385577894,
0.00114713216957606,-0.018043712214633974,
0.001197007481296758,-0.02611227185812088,
0.0012468827930174563,-0.017996406404151535,
0.0012967581047381546,-0.035125718256468416,
0.001346633416458853,-0.010676273143279584,
0.001396508728179551,-0.03164670819364397,
0.0014463840399002493,-0.015314015889646267,
0.0014962593516209476,-0.023162334322929155,
0.001546134663341646,0.01531879917422065,
0.0015960099750623442,-0.02910288975248793,
0.0016458852867830423,0.013576154346576587,
0.0016957605985037406,-0.01129115098605059,
0.001745635910224439,-0.008807725272584874,
0.0017955112219451373,-0.013751488571647041,
0.0018453865336658353,-0.022452594091257168,
0.0018952618453865336,-0.0049815995758414645,
0.001945137157107232,0.012325071169131604,
0.00199501246882793,-0.012782192110053544,
0.0020448877805486283,-0.0027097893682165187,
0.0020947630922693266,0.00016614387810330415,
0.002144638403990025,0.019218293614737664,
0.0021945137157107233,-0.02945408746615727,
0.0022443890274314216,-0.0056101486038011876,
0.00229426433915212,0.0020949049940599193,
0.0023441396508728177,-0.02643726062623914,
0.002394014962593516,-0.02798882907727543,
0.0024438902743142144,0.02310478012361606,
0.0024937655860349127,-0.017356035058363393,
0.002543640897755611,-0.023401682864895156,
0.0025935162094763093,-0.019588379867868298,
0.0026433915211970076,0.0036825772770480002,
0.002693266832917706,-0.0038891023866638244,
0.002743142144638404,-0.023704076879033677,
0.002793017456359102,-0.01339466792297253,
0.0028428927680798004,0.007025306837760722,
0.0028927680798004987,-0.023329768817785267,
0.002942643391521197,0.007565670904951874,
0.0029925187032418953,-0.01581519891463567,
0.0030423940149625936,0.0055887962443961735,
0.003092269326683292,-0.01200021632705979,
0.00314214463840399,-0.017387439650946496,
0.0031920199501246885,-0.026432847921027403,
0.0032418952618453864,-0.005417529247744865,
0.0032917705735660847,-0.029058466514704128,
0.003341645885286783,0.013030036698483963,
0.0033915211970074813,-0.03643153160278878,
0.0034413965087281796,-0.03951162006160841,
0.003491271820448878,-0.004711823838703388,
0.003541147132169576,-0.014793085880980897,
0.0035910224438902745,-0.013447382961746905,
0.0036408977556109724,0.012211122596983488,
0.0036907730673316707,-0.0020660748877297554,
0.003740648379052369,-0.02665998451250407,
0.0037905236907730673,-0.042649377653318554,
0.0038403990024937656,-0.015490596834867646,
0.003890274314214464,-0.01936650513684879,
0.003940149625935162,-0.004422362567822817,
0.00399002493765586,-0.01703399425181543,
0.004039900249376558,-0.01970790173845335,
0.004089775561097257,-0.009991881231769214,
0.004139650872817955,-0.036647858517524556,
0.004189526184538653,-0.01631602998897943,
0.004239401496259352,0.00021946658481176648,
0.00428927680798005,-0.0375568014561389,
0.004339152119700748,-0.031113746535691163,
0.0043890274314214465,0.02242852271063257,
0.004438902743142145,-0.006338094906202086,
0.004488778054862843,-0.04583909023884645,
0.004538653366583541,-0.03141952142254809,
0.00458852867830424,-0.04038177331460198,
0.004638403990024938,-0.0022713616962488567,
0.0046882793017456355,-0.02229208768035245,
0.004738154613466334,-0.04395599600306688,
0.004788029925187032,-0.030116465432594212,
0.00483790523690773,0.001850876217020677,
0.004887780548628429,-0.010189080043704255,
0.004937655860349127,-0.025992544625518057,
0.004987531172069825,-0.034226498667299154,
0.005037406483790524,-0.024036280933529292,
0.005087281795511222,-0.002537457234244988,
0.00513715710723192,-0.01222868203386764,
0.0051870324189526185,-0.03143358781385198,
0.005236907730673317,-0.02977574491175239,
0.005286783042394015,-0.023694029313284237,
0.0053366583541147134,-0.020318887279010257,
0.005386533665835412,-0.025484676168991333,
0.00543640897755611,-0.02574115531455444,
0.005486284289276808,-0.005773561729515129,
0.005536159600997507,-0.03581983679354629,
0.005586034912718204,-0.03305913906746203,
0.005635910224438902,-0.014831973252434403,
0.005685785536159601,-0.04534154551065947,
0.005735660847880299,-0.011279028483781088,
0.005785536159600997,-0.027211875809596275,
0.005835411471321696,0.0005681569378920663,
0.005885286783042394,-0.012039211422488268,
0.005935162094763092,-0.02331583890670186,
0.0059850374064837905,-0.006273129335339019,
0.006034912718204489,-0.017760122798501143,
0.006084788029925187,-0.015560932532505931,
0.0061346633416458855,-0.03802657193487754,
0.006184538653366584,-0.022576065196412486,
0.006234413965087282,-0.02351982591391229,
0.00628428927680798,-0.03358642873679193,
0.006334164588528679,-0.019581225675783083,
0.006384039900249377,-0.034447227958225565,
0.006433915211970074,-0.0051411941460891425,
0.006483790523690773,-0.028397777013004992,
0.006533665835411471,-0.03590017054923389,
0.006583541147132169,-0.011479913087409754,
0.006633416458852868,-0.034710135617960595,
0.006683291770573566,-0.005472315608393678,
0.006733167082294264,-0.025614101265289003,
0.0067830423940149626,-0.01318820940557,
0.006832917705735661,-0.03992092592162545,
0.006882793017456359,-0.03977774057039386,
0.0069326683291770575,-0.006689488571611765,
0.006982543640897756,-0.04634617310247771,
0.007032418952618454,-0.006479003920126144,
0.007082294264339152,-0.011962880011386401,
0.007132169576059851,0.007281179648343943,
0.007182044887780549,-0.018635795624737824,
0.007231920199501247,-0.03941968445816414,
0.007281795511221945,-0.007375386319196261,
0.007331670822942643,-0.002827698568242878,
0.007381546134663341,-0.03397582995639299,
0.00743142144638404,0.007502840548322015,
0.007481296758104738,-0.014907994300165818,
0.007531172069825436,-0.0062940226159612705,
0.007581047381546135,-0.007670316148470743,
0.007630922693266833,-0.022976684424872405,
0.007680798004987531,-0.010226533276543024,
0.0077306733167082295,0.002069230340407978,
0.007780548628428928,0.0001215511043790151,
0.007830423940149626,0.0041735704347773475,
0.007880299251870324,-0.0034078427609828266,
0.007930174563591023,-0.011530576086950422,
0.00798004987531172,-0.010069430567245007,
0.00802992518703242,-0.013557205349471009,
0.008079800498753117,-0.027496432480106005,
0.008129675810473816,-0.0188449028927226,
0.008179551122194513,-0.01871746658370099,
0.008229426433915213,-0.0023659671413169695,
0.00827930174563591,-0.019040460362833293,
0.00832917705735661,0.01704114425926477,
0.008379052369077307,-0.026436453964252874,
0.008428927680798006,-0.01687835958937274,
0.008478802992518703,-0.019286527285398126,
0.0085286783042394,-0.01847739383406036,
0.0085785536159601,0.00371675157165283,
0.008628428927680797,-0.027086036851275763,
0.008678304239401496,-0.03532275872088091,
0.008728179551122194,0.004338765601423639,
0.008778054862842893,0.0046231418173738655,
0.00882793017456359,0.008923147075856303,
0.00887780548628429,0.009842864913196477,
0.008927680798004987,-0.019720624399249938,
0.008977556109725686,0.0005156347391121405,
0.009027431421446384,-0.008556682623411513,
0.009077306733167083,-0.05530893409895878,
0.00912718204488778,-0.018099549857886334,
0.00917705735660848,0.008183990661217368,
0.009226932668329177,-0.020977158588449347,
0.009276807980049876,0.01282895952971477,
0.009326683291770574,-0.008872828448698692,
0.009376558603491271,0.028133378577609395,
0.00942643391521197,-0.00760709874483333,
0.009476309226932668,0.0067197754883726556,
0.009526184538653367,0.04161063935253145,
0.009576059850374064,-0.006641228291566588,
0.009625935162094763,-0.006032952972359098,
0.00967581047381546,-0.003330329970846902,
0.00972568578553616,0.01110368003636185,
0.009775561097256857,0.022135599472364775,
0.009825436408977557,-0.021219356467652946,
0.009875311720698254,0.004633375978623908,
0.009925187032418953,0.010510195101035583,
0.00997506234413965,0.0044144947351041465,
0.01002493765586035,0.012903904387916058,
0.010074812967581047,0.027223553794016062,
0.010124688279301746,0.01196498981622088,
0.010174563591022444,0.01648440642422902,
0.010224438902743141,0.017191055244887322,
0.01027431421446384,0.011835378915816557,
0.010324189526184538,-0.00862644158656736,
0.010374064837905237,-0.012168643254863502,
0.010423940149625935,0.005207261888465339,
0.010473815461346634,-0.005006435009785679,
0.010523690773067331,-0.0098087463160053,
0.01057356608478803,0.006679389749191503,
0.010623441396508728,0.014163555548599563,
0.010673316708229427,-0.00224615765204128,
0.010723192019950124,-0.005099953956387623,
0.010773067331670824,0.019220973540072565,
0.010822942643391521,0.01949503900232312,
0.01087281795511222,0.0018342709550493753,
0.010922693266832918,0.026662608851769548,
0.010972568578553617,0.010299966349044828,
0.011022443890274314,0.015326035052244847,
0.011072319201995013,0.008196955546853278,
0.01112219451371571,0.005394920366609718,
0.011172069825436408,-0.01248437738759438,
0.011221945137157107,0.006736141054165838,
0.011271820448877805,0.018472920167332905,
0.011321695760598504,-0.00650053526865726,
0.011371571072319201,-0.010126515389433197,
0.0114214463840399,0.011537530602819115,
0.011471321695760598,-0.012629188220498596,
0.011521197007481297,0.02701907057883379,
0.011571072319201995,-0.00844150946460278,
0.011620947630922694,0.009254222329568849,
0.011670822942643391,-0.01253544742737727,
0.01172069825436409,-0.00326074325212046,
0.011770573566084788,0.03025121032037028,
0.011820448877805487,0.027124495628545884,
0.011870324189526184,0.003469794267810529,
0.011920199501246884,0.02344405493532168,
0.011970074812967581,0.003919891145692939,
0.012019950124688279,0.019049188444525248,
0.012069825436408978,-0.001849387420173253,
0.012119700748129675,0.011907399879360086,
0.012169576059850374,0.0076387974787973465,
0.012219451371571072,0.0214523104696075,
0.012269326683291771,0.019366979326600257,
0.012319201995012468,0.01446567205455526,
0.012369077306733168,0.008122913942907685,
0.012418952618453865,0.0061356544938979355,
0.012468827930174564,-0.006956995170013157,
0.012518703241895262,0.028995682298627548,
0.01256857855361596,0.00939882550739729,
0.012618453865336658,0.008255708846505637,
0.012668329177057357,-0.002056838675503818,
0.012718204488778055,0.004425699338832341,
0.012768079800498754,0.011812388492148098,
0.012817955112219451,-0.00018889892931390692,
0.012867830423940149,0.038481776152910124,
0.012917705735660848,0.012075284453900315,
0.012967581047381545,0.013341323175837085,
0.013017456359102245,0.017507966728959,
0.013067331670822942,0.011275152018544381,
0.013117206982543641,0.036484705572348466,
0.013167082294264339,0.016247386951799305,
0.013216957605985038,0.004601741700960045,
0.013266832917705735,0.028592681210679965,
0.013316708229426434,-0.00012127951014018895,
0.013366583541147132,0.007307192839046652,
0.013416458852867831,0.026925525096155728,
0.013466334164588529,0.004267808011265663,
0.013516209476309228,0.04803986057736129,
0.013566084788029925,0.02198587430955767,
0.013615960099750624,0.009637305649105228,
0.013665835411471322,0.019936547746203154,
0.01371571072319202,-0.00021126499054015951,
0.013765586034912718,0.0060696529042944605,
0.013815461346633416,0.06279191680612597,
0.013865336658354115,0.006959105545136556,
0.013915211970074812,0.0073783306047686854,
0.013965087281795512,0.028387711874398584,
0.014014962593516209,0.027232365031108357,
0.014064837905236908,0.04057853280437377,
0.014114713216957606,0.017184618235074833,
0.014164588528678305,0.03625447648041305,
0.014214463840399002,0.03309398882297318,
0.014264339152119701,0.008240634166577613,
0.014314214463840399,0.03692819382802651,
0.014364089775561098,0.000757037320374139,
0.014413965087281795,-0.012084489486274684,
0.014463840399002495,0.01160091905962587,
0.014513715710723192,0.003416280119063149,
0.01456359102244389,0.010696752252381717,
0.014613466334164589,0.004403808077264537,
0.014663341645885286,0.008880349429120684,
0.014713216957605985,0.004866612591103863,
0.014763092269326683,0.02289526058693725,
0.014812967581047382,0.0053309872325078035,
0.01486284289276808,0.016559449086429638,
0.014912718204488778,0.0523768301016215,
0.014962593516209476,0.029883686647775305,
0.015012468827930175,0.036514920940886444,
0.015062344139650873,0.029469645223171904,
0.015112219451371572,0.022029216695680844,
0.01516209476309227,0.053346432547010075,
0.015211970074812968,0.027205001254912684,
0.015261845386533666,0.011620808677539783,
0.015311720698254365,0.016896623802085134,
0.015361596009975062,0.015395392888328745,
0.01541147132169576,0.015002026359885453,
0.015461346633416459,0.0065083305273253445,
0.015511221945137156,-0.0032385915725068916,
0.015561097256857856,0.02781307725472585,
0.015610972568578553,0.025277329681598938,
0.015660847880299252,0.025125609075225933,
0.01571072319201995,0.04465498486664292,
0.015760598503740647,0.017493857690441088,
0.015810473815461346,0.033940111385804786,
0.015860349127182045,0.010977649327823715,
0.015910224438902745,0.014658074087654738,
0.01596009975062344,0.016122310887622462,
0.01600997506234414,0.0301471127816682,
0.01605985037406484,0.0236023313762147,
0.016109725685785538,0.03328083768363982,
0.016159600997506234,0.006391483352860914,
0.016209476309226933,0.008269593107358817,
0.016259351620947632,0.03007794950735715,
0.016309226932668328,0.027514262080540988,
0.016359102244389027,0.012682306427944228,
0.016408977556109726,0.03318022948488594,
0.016458852867830425,-0.001857749522203786,
0.01650872817955112,0.02791203950256301,
0.01655860349127182,0.012220554142636116,
0.01660847880299252,0.014398926677459706,
0.01665835411471322,-0.011231411707849748,
0.016708229426433914,0.03177030212898713,
0.016758104738154613,0.01353355027481273,
0.016807980049875312,0.02178036874709123,
0.01685785536159601,0.012379450607884604,
0.016907730673316707,0.0337784663943662,
0.016957605985037406,0.03881675025558811,
0.017007481296758106,0.019060731020172597,
0.0170573566084788,0.017679006000285012,
0.0171072319201995,0.029699386736604015,
0.0171571072319202,0.024565555246038713,
0.0172069825436409,0.024373264161834694,
0.017256857855361595,0.01647850120594773,
0.017306733167082294,0.04120408738254633,
0.017356608478802993,0.03287107805175503,
0.017406483790523692,0.018824364752583377,
0.017456359102244388,-0.011670735523117131,
0.017506234413965087,0.029372899590456025,
0.017556109725685786,0.018260625341845558,
0.017605985037406485,-0.0007993500970546671,
0.01765586034912718,0.00946454839796328,
0.01770573566084788,0.0017526214646653455,
0.01775561097256858,0.021159071599316175,
0.01780548628428928,0.04619336312465808,
0.017855361596009974,0.03839358327831506,
0.017905236907730673,0.0054915648029654224,
0.017955112219451373,0.01189861921764386,
0.018004987531172068,0.01588572332980938,
0.018054862842892767,0.006495249430142473,
0.018104738154613467,0.022616000982886835,
0.018154613466334166,0.007900412110949183,
0.01820448877805486,0.0077273780137053815,
0.01825436408977556,0.015855608700174464,
0.01830423940149626,0.03484670388735252,
0.01835411471321696,-0.0028446241261106137,
0.018403990024937655,0.026308176511847196,
0.018453865336658354,-0.001263760702525105,
0.018503740648379053,-0.0038461940537001874,
0.018553615960099752,0.010418849539466627,
0.018603491271820448,0.00642669499033522,
0.018653366583541147,0.027256697275629863,
0.018703241895261846,0.017592899691552255,
0.018753117206982542,0.004820475559690145,
0.01880299251870324,-0.01225457276115204,
0.01885286783042394,0.0033057378251913436,
0.01890274314214464,0.013286128594275923,
0.018952618453865335,0.01838755277535832,
0.019002493765586034,-0.008250457976906506,
0.019052369077306733,0.019429133831869894,
0.019102244389027433,0.033030739708533666,
0.01915211970074813,0.004147306527505333,
0.019201995012468828,0.01491501482715766,
0.019251870324189527,-0.006467923807290888,
0.019301745635910226,0.021428891609582064,
0.01935162094763092,0.013707181517670659,
0.01940149625935162,-0.0052018844738636865,
0.01945137157107232,-0.018469284113258235,
0.01950124688279302,0.020881697086323647,
0.019551122194513715,-0.002924155147388024,
0.019600997506234414,0.01244432805984049,
0.019650872817955113,0.00023551624355690713,
0.01970074812967581,0.010270888194570884,
0.019750623441396508,0.0061877971675379905,
0.019800498753117207,-0.00578453898997315,
0.019850374064837906,0.013051858810623429,
0.019900249376558602,0.008636024954525217,
0.0199501246882793,0.030452769168911962,
0.02,0.005416745750571452,
0.0200498753117207,-0.00014721876264870868,
0.020099750623441395,0.013175589839152874,
0.020149625935162094,-0.01974791778147941,
0.020199501246882794,0.016565215167536968,
0.020249376558603493,0.0008663857108763562,
0.02029925187032419,0.013492868188311715,
0.020349127182044888,0.0034777987354584028,
0.020399002493765587,0.00430055244356029,
0.020448877805486283,-0.05084236684375122,
0.02049875311720698,-0.006681194376216686,
0.02054862842892768,-0.022967904949609392,
0.02059850374064838,-0.0022789731659734625,
0.020648379052369076,-0.00483665356917602,
0.020698254364089775,-0.011479738644718705,
0.020748129675810474,-0.006497186954796885,
0.020798004987531173,-0.0210590454593168,
0.02084788029925187,0.022424485340567096,
0.020897755610972568,-0.0032466385467774493,
0.020947630922693267,-0.0009989675392397656,
0.020997506234413967,-0.042273095578980596,
0.021047381546134662,-0.00904770951317124,
0.02109725685785536,0.011690981355391004,
0.02114713216957606,-0.0072692698087724935,
0.02119700748129676,0.002231024148632268,
0.021246882793017455,0.0017188172250597279,
0.021296758104738155,-0.0010207072820244594,
0.021346633416458854,-0.027672667241526817,
0.02139650872817955,-0.009172761749087112,
0.02144638403990025,-0.016456349937021747,
0.021496259351620948,0.008933385627261353,
0.021546134663341647,-0.03505779060670501,
0.021596009975062343,-0.03971404127102911,
0.021645885286783042,0.020302759209538168,
0.02169576059850374,-0.008190703981589538,
0.02174563591022444,-0.03182055982539699,
0.021795511221945136,-0.008177644256010507,
0.021845386533665835,-0.011615372596174327,
0.021895261845386534,-0.011328647160654135,
0.021945137157107233,0.003983094599622171,
0.02199501246882793,-0.025371190624243617,
0.02204488778054863,-0.010505688956120349,
0.022094763092269327,-0.011782524645894738,
0.022144638403990027,0.007693230332408315,
0.022194513715710722,-0.00430353138613841,
0.02224438902743142,-0.02715121496902649,
0.02229426433915212,-0.01757160985797954,
0.022344139650872816,-0.008071846539080683,
0.022394014962593516,-0.026772277793966775,
0.022443890274314215,0.007825229126980197,
0.022493765586034914,-0.018398681519635703,
0.02254364089775561,-0.025032975454480855,
0.02259351620947631,-0.008724933171545195,
0.022643391521197008,-0.012207462038219288,
0.022693266832917707,-0.012551751550294173,
0.022743142144638403,-0.01990911517513246,
0.022793017456359102,-0.033068504817340326,
0.0228428927680798,-0.052677347992930654,
0.0228927680798005,-0.017649660189494116,
0.022942643391521196,-0.04114689055079734,
0.022992518703241895,-0.029505487266730607,
0.023042394014962594,-0.03242698272513203,
0.02309226932668329,-0.014991710826100768,
0.02314214463840399,-0.021285812518805458,
0.02319201995012469,-0.006149085671003534,
0.023241895261845388,0.011474532457051701,
0.023291770573566083,-0.016444153443415065,
0.023341645885286783,0.00804446727686955,
0.02339152119700748,-0.021628146390832617,
0.02344139650872818,-0.025425851304813618,
0.023491271820448877,-0.018804648014063414,
0.023541147132169576,-0.0138376929783674,
0.023591022443890275,-0.018394807743526045,
0.023640897755610974,0.01735812559020507,
0.02369077306733167,-0.025679336004873578,
0.02374064837905237,-0.01797941976351278,
0.023790523690773068,-0.024338782808964076,
0.023840399002493767,-0.0028197089045084982,
0.023890274314214463,-0.0201367622930613,
0.023940149625935162,-0.017845922157717017,
0.02399002493765586,-0.0015654800837817534,
0.024039900249376557,-0.010057900758540739,
0.024089775561097256,-0.019605248939586203,
0.024139650872817955,-0.023277504580296246,
0.024189526184538655,-0.02943405818667084,
0.02423940149625935,-0.01911164359786324,
0.02428927680798005,-0.019513433399216063,
0.02433915211970075,-0.0150777385322442,
0.024389027431421448,-0.012976213908027105,
0.024438902743142144,-0.04047827667602291,
0.024488778054862843,-0.020056718965537176,
0.024538653366583542,-0.01721539579810909,
0.02458852867830424,0.0025314912415729425,
0.024638403990024937,-0.013489551023796566,
0.024688279301745636,-0.00783534678101781,
0.024738154613466335,-0.015380937410552785,
0.02478802992518703,-0.020836046988693818,
0.02483790523690773,-0.0018009381120345572,
0.02488778054862843,-0.0020938095074034303,
0.02493765586034913,0.013336962687710528,
0.024987531172069824,-0.013877442840229497,
0.025037406483790523,-0.01902116647697722,
0.025087281795511222,-0.01006463515346328,
0.02513715710723192,-0.045582868554490494,
0.025187032418952617,-0.013913716066548166,
0.025236907730673316,-0.05595683391630232,
0.025286783042394016,-0.0191813556010634,
0.025336658354114715,-0.02249110823373993,
0.02538653366583541,-0.030151711839397112,
0.02543640897755611,-0.011101418691333579,
0.02548628428927681,-0.02402351795814263,
0.025536159600997508,-0.006192787703119977,
0.025586034912718204,-0.021220313183278793,
0.025635910224438903,0.012515370927496657,
0.025685785536159602,-0.002945580425705705,
0.025735660847880298,-0.0010465674926607264,
0.025785536159600997,-0.007798192406460479,
0.025835411471321696,-0.019665167916489337,
0.025885286783042395,-0.03358279975907656,
0.02593516209476309,-0.02878396849657354,
0.02598503740648379,-0.010495762832881813,
0.02603491271820449,-0.019407713003613727,
0.02608478802992519,-0.004500744970530749,
0.026134663341645884,-0.03130255970430465,
0.026184538653366583,-0.031915042245387125,
0.026234413965087282,0.006762137061428371,
0.02628428927680798,-0.031172111415636368,
0.026334164588528677,-0.0041537057044551875,
0.026384039900249377,-0.0033393114740002134,
0.026433915211970076,-0.009193677649052732,
0.02648379052369077,-0.005332405872710999,
0.02653366583541147,-0.005722829483510973,
0.02658354114713217,0.0010950169107634515,
0.02663341645885287,-0.008631798568502613,
0.026683291770573565,-0.013386723705015275,
0.026733167082294264,-0.007845683484026686,
0.026783042394014963,-0.0056214233808034655,
0.026832917705735662,-0.03434104598632036,
0.026882793017456358,-0.013747900453499395,
0.026932668329177057,-0.009518268800346293,
0.026982543640897756,-0.013011134205511081,
0.027032418952618455,-0.01276588501735337,
0.02708229426433915,-0.00014427401474155326,
0.02713216957605985,-0.055302946005089865,
0.02718204488778055,-0.023304105519678434,
0.02723192019950125,-0.038433872782861825,
0.027281795511221944,-0.015390485886066379,
0.027331670822942643,-0.021226332144314547,
0.027381546134663343,-0.013099113725179572,
0.02743142144638404,-0.012903070343456184,
0.027481296758104738,0.022395350847373915,
0.027531172069825437,-0.009515683999189933,
0.027581047381546136,-0.039268257719970695,
0.02763092269326683,-0.03690795937607472,
0.02768079800498753,-0.0026908005231984587,
0.02773067331670823,-0.02852865300208459,
0.02778054862842893,-0.015476531663032986,
0.027830423940149625,-0.0264043038631194,
0.027880299251870324,-0.016742526798045287,
0.027930174563591023,-0.021516356745942877,
0.027980049875311722,0.0016803011252430767,
0.028029925187032418,-0.02696132823986323,
0.028079800498753117,-0.008532540884752299,
0.028129675810473816,0.012205312341626064,
0.028179551122194512,0.018987850048102068,
0.02822942643391521,-0.029624299372792585,
0.02827930174563591,0.0005678691074429264,
0.02832917705735661,0.02319673370405976,
0.028379052369077305,0.0007236661484770288,
0.028428927680798004,0.006747491017942498,
0.028478802992518704,-0.0290579496788708,
0.028528678304239403,0.0184725186148501,
0.0285785536159601,-0.01608182604330586,
0.028628428927680798,-0.006257482222794175,
0.028678304239401497,-0.013513544021192776,
0.028728179551122196,-0.022515091308530782,
0.02877805486284289,0.016254418265952746,
0.02882793017456359,-0.009296080716397976,
0.02887780548628429,-0.0002451703196706895,
0.02892768079800499,0.0180251090913047,
0.028977556109725685,0.0075418385106478785,
0.029027431421446384,0.047220535551325396,
0.029077306733167083,-0.00995120142419172,
0.02912718204488778,0.008152264787597348,
0.029177057356608478,-0.012295230312121461,
0.029226932668329177,-0.011666063979916196,
0.029276807980049877,0.003978872396009412,
0.029326683291770572,-0.01739678482585317,
0.02937655860349127,0.007635981732639395,
0.02942643391521197,0.006624082873813643,
0.02947630922693267,-0.004509809055584858,
0.029526184538653365,0.017272081951571126,
0.029576059850374065,0.009799330320001133,
0.029625935162094764,0.029826157372182586,
0.029675810473815463,-0.0024682449937993393,
0.02972568578553616,0.011772854361524704,
0.029775561097256858,0.018358988608073248,
0.029825436408977557,-0.008904430412369097,
0.029875311720698253,0.01948321895714303,
0.029925187032418952,0.03351184618765385,
0.02997506234413965,-0.00019862532255401346,
0.03002493765586035,-0.007419292123166046,
0.030074812967581046,0.00602010275214979,
0.030124688279301745,0.012450823844948193,
0.030174563591022444,-0.01642399749249522,
0.030224438902743143,0.0025465547913654982,
0.03027431421446384,-0.009574227165841172,
0.03032418952618454,-0.010022928920749302,
0.030374064837905237,0.0030906884730885764,
0.030423940149625937,-0.032625039583210044,
0.030473815461346632,0.0006160196493555786,
0.03052369077306733,0.0315805100034842,
0.03057356608478803,0.0035340918589464015,
0.03062344139650873,0.016326352442959352,
0.030673316708229426,0.031909945417228816,
0.030723192019950125,-0.025792023770266667,
0.030773067331670824,0.01573607830488378,
0.03082294264339152,0.02898313081769127,
0.03087281795511222,0.018048675249526067,
0.030922693266832918,0.017426047908265505,
0.030972568578553617,0.014884957022856436,
0.031022443890274313,0.0037060373695999597,
0.031072319201995012,-0.022358381328752723,
0.03112219451371571,0.012943855751222108,
0.03117206982543641,0.015330968325099163,
0.031221945137157106,0.007533521542203071,
0.03127182044887781,0.0021722920329117473,
0.031321695760598504,0.004255216610315479,
0.0313715710723192,-0.016860204194915497,
0.0314214463840399,-0.021468729975299333,
0.0314713216957606,0.015728373983497322,
0.031521197007481294,0.020001433127362744,
0.031571072319202,0.03085401869194172,
0.03162094763092269,0.014104184421169855,
0.03167082294264339,0.02544143424654064,
0.03172069825436409,-0.0035749800093745863,
0.03177057356608479,0.04204260659636575,
0.03182044887780549,-0.007062526285603509,
0.031870324189526185,0.01060565694887277,
0.03192019950124688,0.037170851406254174,
0.03197007481296758,0.01748594386318695,
0.03201995012468828,-0.011115487160377663,
0.032069825436408975,0.015447131136592865,
0.03211970074812968,0.04588570458484147,
0.03216957605985037,0.014076165049663025,
0.032219451371571076,-0.02630711895914705,
0.03226932668329177,0.020271286515138494,
0.03231920199501247,-0.006969135723240014,
0.03236907730673317,0.004827664860378961,
0.032418952618453865,-0.00824527700461803,
0.03246882793017456,0.0028549855267058968,
0.032518703241895264,0.007490648909463854,
0.03256857855361596,0.011555682988244064,
0.032618453865336655,0.02285045774560348,
0.03266832917705736,0.04097539054099487,
0.032718204488778053,0.038963235136589856,
0.032768079800498756,0.010846517224995814,
0.03281795511221945,0.03200152545058176,
0.03286783042394015,0.027992408912136772,
0.03291770573566085,0.005544852427800883,
0.032967581047381546,-0.026822155059993382,
0.03301745635910224,0.003912661984845666,
0.033067331670822944,0.0171272390100002,
0.03311720698254364,0.03530151241457383,
0.03316708229426434,-0.0014324759102195342,
0.03321695760598504,0.02140973206780688,
0.033266832917705734,0.05218857705382779,
0.03331670822942644,0.0105798472677712,
0.03336658354114713,-0.004742606862901951,
0.03341645885286783,0.017173738864845172,
0.03346633416458853,0.03287427077580587,
0.033516209476309226,0.05094325202179459,
0.03356608478802992,0.027650014452050387,
0.033615960099750625,0.02366394752582943,
0.03366583541147132,-0.00019106007471005396,
0.03371571072319202,0.02164791886392772,
0.03376558603491272,0.023785354344638934,
0.033815461346633414,0.0227462691069782,
0.03386533665835412,0.02769309684378867,
0.03391521197007481,0.015143539034303979,
0.03396508728179551,-0.012568050672744076,
0.03401496259351621,0.024719621235658098,
0.03406483790523691,0.00721332099647019,
0.0341147132169576,-0.002649381929625147,
0.034164588528678305,0.009563409354383112,
0.034214463840399,0.03438959149031271,
0.034264339152119704,0.005231283777808817,
0.0343142144638404,0.027112988062897865,
0.034364089775561095,0.06865011520230087,
0.0344139650872818,0.042910591728476416,
0.03446384039900249,0.022409143268376883,
0.03451371571072319,0.01665535899641403,
0.03456359102244389,0.0023790780883100257,
0.03461346633416459,0.001295222034255191,
0.03466334164588529,0.010786754520590868,
0.034713216957605986,0.027517574295634513,
0.03476309226932668,0.030219902816759726,
0.034812967581047384,0.036215439109952854,
0.03486284289276808,0.017664902771864777,
0.034912718204488775,0.024474005734619695,
0.03496259351620948,0.02560788012219373,
0.035012468827930174,0.03023206938785765,
0.03506234413965087,0.044582248904569896,
0.03511221945137157,0.02716433044368849,
0.03516209476309227,0.021640876867904307,
0.03521197007481297,0.018684711361367998,
0.035261845386533666,0.02419684826778036,
0.03531172069825436,-0.0002048581818891032,
0.035361596009975065,0.028266425499947585,
0.03541147132169576,0.02662213294237048,
0.035461346633416456,0.03338326928084316,
0.03551122194513716,0.029843927615948628,
0.035561097256857854,0.012308944253634359,
0.03561097256857856,0.03243120678430308,
0.03566084788029925,0.041462804439638595,
0.03571072319201995,0.04014484062341615,
0.03576059850374065,0.03021564591985317,
0.03581047381546135,0.02034023944249425,
0.03586034912718204,0.030852533447625702,
0.035910224438902745,0.00740658845061754,
0.03596009975062344,0.0024323071581834332,
0.036009975062344136,0.04615404118479227,
0.03605985037406484,0.02884366363098943,
0.036109725685785535,0.01680028387790977,
0.03615960099750624,0.04851590408787415,
0.03620947630922693,0.018193328676838004,
0.03625935162094763,0.03147034301334352,
0.03630922693266833,0.05763084292387843,
0.03635910224438903,0.03079928209189918,
0.03640897755610972,0.017712834601125556,
0.036458852867830426,0.04221283098856653,
0.03650872817955112,0.006603885198389649,
0.036558603491271824,-0.020723990217961053,
0.03660847880299252,0.021019846953845303,
0.036658354114713215,0.017232747553411167,
0.03670822942643392,0.008017204242162929,
0.036758104738154614,0.05786865387836001,
0.03680798004987531,0.018145532046716525,
0.03685785536159601,0.06101457536715098,
0.03690773067331671,0.034379717968303386,
0.0369576059850374,0.005649687354227084,
0.037007481296758106,0.0183206279241049,
0.0370573566084788,0.02609868184668175,
0.037107231920199504,0.01856835276083712,
0.0371571072319202,0.029218248224524176,
0.037206982543640896,0.03827488585832207,
0.0372568578553616,-0.007238978133136082,
0.037306733167082294,-0.004236359754044267,
0.03735660847880299,0.0324302093340558,
0.03740648379052369,0.01866050470618818,
0.03745635910224439,0.028743714539463297,
0.037506234413965084,0.033294807351156974,
0.037556109725685786,0.029556399944247178,
0.03760598503740648,-0.0017281448810847443,
0.037655860349127185,0.01992784742141716,
0.03770573566084788,-0.0005936101853720038,
0.037755610972568576,0.02070516150280144,
0.03780548628428928,0.04651034032021434,
0.037855361596009975,0.01958938687346921,
0.03790523690773067,0.056933704619360724,
0.03795511221945137,0.011648643395696937,
0.03800498753117207,0.022970977762345548,
0.03805486284289277,0.013000414529249264,
0.03810473815461347,-0.00077743625448355,
0.03815461346633416,0.020522421424882954,
0.038204488778054865,0.00735337781605515,
0.03825436408977556,0.017632955844476637,
0.03830423940149626,0.019315879514302824,
0.03835411471321696,-0.007752123572536195,
0.038403990024937655,0.007605072743719801,
0.03845386533665835,0.026157159002672487,
0.03850374064837905,0.03463510759770713,
0.03855361596009975,-0.009883340004102858,
0.03860349127182045,0.005485466366207373,
0.03865336658354115,0.023226035568003126,
0.03870324189526184,-0.006388099818372992,
0.038753117206982546,-0.0032281246863310967,
0.03880299251870324,0.016627372695450084,
0.03885286783042394,0.044039188831830674,
0.03890274314214464,-0.012601666538700117,
0.038952618453865336,0.004020128906550415,
0.03900249376558604,0.003785851370313585,
0.039052369077306734,0.005597269906870956,
0.03910224438902743,-0.011139408012773029,
0.03915211970074813,0.021660788779846743,
0.03920199501246883,-0.016593437658049333,
0.039251870324189524,-0.013993984273585761,
0.039301745635910226,-0.010028656085003253,
0.03935162094763092,0.022675093649558466,
0.03940149625935162,0.013951403472687536,
0.03945137157107232,-0.009696320140940429,
0.039501246882793016,0.0035834476007601426,
0.03955112219451372,0.021263076396298545,
0.039600997506234414,0.02686876585338609,
0.03965087281795511,0.012869953044723461,
0.03970074812967581,0.014416071366021545,
0.03975062344139651,0.0169185698291723,
0.039800498753117204,-0.006833006477169661,
0.03985037406483791,-0.007838071946438482,
0.0399002493765586,-0.028910327883439346,
0.039950124688279305,0.034494485639927595,
0.04,0.030092920534961622,
0.0400498753117207,0.009020568895219122,
0.0400997506234414,-0.005043989719859867,
0.040149625935162095,-0.0016937572379075424,
0.04019950124688279,0.02525026045275384,
0.04024937655860349,0.004651686968656558,
0.04029925187032419,0.003469635159256497,
0.040349127182044885,0.014819337043327644,
0.04039900249376559,-0.002509461170699097,
0.04044887780548628,-0.009494716654652324,
0.040498753117206986,-0.015043020957116212,
0.04054862842892768,-0.00814287065153972,
0.04059850374064838,-0.014077474420481144,
0.04064837905236908,-0.024156998375886102,
0.040698254364089775,-0.021908781020100417,
0.04074812967581047,-0.020509619835464708,
0.040798004987531174,-0.014304058145367289,
0.04084788029925187,0.029599353150842927,
0.040897755610972565,0.02154019880923708,
0.04094763092269327,0.024216547281522026,
0.04099750623441396,-0.016974506270813844,
0.041047381546134666,0.0037637611793106163,
0.04109725685785536,3.888235713953893e-05,
0.04114713216957606,-0.02919367052029115,
0.04119700748129676,0.0021821609147112155,
0.041246882793017456,0.005483367825316595,
0.04129675810473815,-0.006134274726910562,
0.041346633416458854,-0.0018926367844811624,
0.04139650872817955,-0.003352474645332449,
0.04144638403990025,0.002207793753301205,
0.04149625935162095,-0.022679372905059492,
0.041546134663341644,-0.003424954657994511,
0.04159600997506235,0.002953550105371225,
0.04164588528678304,-0.007312598567627207,
0.04169576059850374,0.031778048905590356,
0.04174563591022444,-0.01688036544664935,
0.041795511221945136,-0.019853481740923065,
0.04184538653366583,-0.0010524147228973945,
0.041895261845386535,-0.01741222453300526,
0.04194513715710723,-0.007750344760996789,
0.04199501246882793,0.011815417733256946,
0.04204488778054863,-0.015648054256987166,
0.042094763092269324,-0.01493891096212935,
0.04214463840399003,-0.01225756562533344,
0.04219451371571072,0.006770013570849878,
0.04224438902743142,-0.03164227709250037,
0.04229426433915212,-0.00616517222471394,
0.04234413965087282,-0.020812031914332056,
0.04239401496259352,-0.03255733748556817,
0.042443890274314215,-0.017852995732036442,
0.04249376558603491,-0.002257722200407788,
0.042543640897755614,-0.02252076430534766,
0.04259351620947631,-0.01143237937782365,
0.042643391521197005,-0.014881328795351055,
0.04269326683291771,-0.015894969312291778,
0.0427431421446384,-0.021597652026584327,
0.0427930174563591,-0.02298513551797847,
0.0428428927680798,-0.027795230247188444,
0.0428927680798005,-0.02209115544915884,
0.0429426433915212,-0.013320399925600732,
0.042992518703241896,-0.0040643287185648715,
0.04304239401496259,0.004085203652793645,
0.043092269326683294,-0.013883358298976247,
0.04314214463840399,0.010439869743371202,
0.043192019950124685,-0.02738809313619707,
0.04324189526184539,-0.0269276204655333,
0.043291770573566084,-0.02243058475283085,
0.043341645885286786,-0.030889821334090864,
0.04339152119700748,-0.01810303287063083,
0.04344139650872818,-0.010750800296683929,
0.04349127182044888,-0.009564432367094632,
0.043541147132169576,0.00868447794603561,
0.04359102244389027,-0.025677009610757986,
0.043640897755610975,0.026864954130032506,
0.04369077306733167,-0.022526312280740077,
0.043740648379052366,-0.03154424105137365,
0.04379052369077307,-0.03939531333944315,
0.043840399002493764,0.0014743726901495276,
0.04389027431421447,-0.020718813443962918,
0.04394014962593516,-0.008943083047638094,
0.04399002493765586,-0.027143610331128193,
0.04403990024937656,-0.0016844961376783537,
0.04408977556109726,-0.0290132496802085,
0.04413965087281795,-0.02395375498846921,
0.044189526184538655,-0.019331707482335873,
0.04423940149625935,-0.017320764218425433,
0.04428927680798005,-0.006963165319728487,
0.04433915211970075,0.008664943969943287,
0.044389027431421445,-0.004078038864195539,
0.04443890274314215,-0.010478800614811039,
0.04448877805486284,0.003772897178100202,
0.04453865336658354,0.011458972492672241,
0.04458852867830424,-0.023299332832700463,
0.04463840399002494,-0.021520477274660534,
0.04468827930174563,-0.004256692037868947,
0.044738154613466335,-0.03677159647997749,
0.04478802992518703,-0.0005717826769065758,
0.044837905236907734,-0.031048778946852505,
0.04488778054862843,0.0057274736100489144,
0.044937655860349125,-0.02527179387459455,
0.04498753117206983,-0.03547016197370048,
0.045037406483790524,-0.025730140040156953,
0.04508728179551122,-0.041403980692394614,
0.04513715710723192,-0.02721663344549928,
0.04518703241895262,0.0160639333455381,
0.04523690773067331,-0.016022170797991113,
0.045286783042394016,-0.005357630759879819,
0.04533665835411471,-0.020417351550029588,
0.045386533665835414,-0.04161246264377319,
0.04543640897755611,-0.03348696681095398,
0.045486284289276806,-0.012357741313348054,
0.04553615960099751,0.0024679539799818302,
0.045586034912718204,0.006898701847211513,
0.0456359102244389,-0.008798955850501687,
0.0456857855361596,-0.04074929475812282,
0.0457356608478803,0.015398206276036917,
0.045785536159601,-0.020973418390076146,
0.045835411471321696,-0.005009410598587697,
0.04588528678304239,0.0063482632246181885,
0.045935162094763095,-0.03105468451983048,
0.04598503740648379,-0.017328197792007033,
0.046034912718204486,0.0006196699872669815,
0.04608478802992519,-0.020935534050431123,
0.046134663341645885,-0.009170972214011312,
0.04618453865336658,-0.025926765821230047,
0.04623441396508728,0.0015360526246440149,
0.04628428927680798,-0.012384603134326003,
0.04633416458852868,0.019570302259043253,
0.04638403990024938,-0.03259007061649349,
0.04643391521197007,0.006964762724337631,
0.046483790523690775,-0.0022951417668485644,
0.04653366583541147,0.010144083386436801,
0.04658354114713217,0.0022349725961237545,
0.04663341645885287,-0.0025893654264642144,
0.046683291770573565,-0.021681285989839726,
0.04673316708229427,-0.0034643833377577017,
0.04678304239401496,-0.006711951100378029,
0.04683291770573566,-0.002459214237341913,
0.04688279301745636,-0.01974955170287087,
0.04693266832917706,-0.015412112924821253,
0.04698254364089775,-0.015129684014086877,
0.047032418952618456,-0.03205124583279521,
0.04708229426433915,-0.03864003583317985,
0.04713216957605985,-0.018781649395639415,
0.04718204488778055,-0.033420215959908996,
0.047231920199501246,-0.022811100391594567,
0.04728179551122195,0.01356661603143263,
0.047331670822942644,-0.01716596542828233,
0.04738154613466334,-0.021145740178958997,
0.04743142144638404,-0.018964511587857738,
0.04748129675810474,-0.033145336853121196,
0.047531172069825434,0.0017326384602806503,
0.047581047381546136,-0.024620474913144487,
0.04763092269326683,-0.00530597041885837,
0.047680798004987535,0.005371502259458259,
0.04773067331670823,-0.010203761442503925,
0.047780548628428926,-0.010367797076719198,
0.04783042394014963,-0.014160356161888921,
0.047880299251870324,-0.00865061743392522,
0.04793017456359102,-0.02187177581071114,
0.04798004987531172,-0.01926562676374468,
0.04802992518703242,0.005874529409414353,
0.048079800498753114,-0.013779248537904621,
0.04812967581047382,-0.0022994425082821547,
0.04817955112219451,-0.012279226640313196,
0.048229426433915215,-0.019156521378505854,
0.04827930174563591,-0.005957882628949225,
0.048329177057356607,-0.013037832447355966,
0.04837905236907731,-0.04033277198190111,
0.048428927680798005,0.01029386016451922,
0.0484788029925187,0.013944615573308564,
0.0485286783042394,-0.018593206474535974,
0.0485785536159601,-0.010446846990983895,
0.048628428927680795,0.001882086880669681,
0.0486783042394015,-0.029218375274156223,
0.04872817955112219,-0.006765365006197158,
0.048778054862842896,0.0007461054418517639,
0.04882793017456359,0.007598385108696614,
0.04887780548628429,-0.0033319936277436224,
0.04892768079800499,-0.008770330184676019,
0.048977556109725685,-0.014436116615981825,
0.04902743142144638,-0.014133969125044936,
0.049077306733167084,0.0023023953201962754,
0.04912718204488778,-0.027950502002437556,
0.04917705735660848,-0.0032570431636033317,
0.04922693266832918,0.011485314206131652,
0.04927680798004987,-0.00964105893134224,
0.049326683291770576,-0.006859136006441777,
0.04937655860349127,-0.02327695525018885,
0.04942643391521197,0.004194213380081448,
0.04947630922693267,0.024254158838436506,
0.049526184538653366,-0.022180375553879375,
0.04957605985037406,0.026933939383794042,
0.049625935162094764,0.0011421136107836371,
0.04967581047381546,0.02497892068232334,
0.04972568578553616,0.034887991265120245,
0.04977556109725686,-0.004800361534610613,
0.049825436408977554,-0.010221065270135245,
0.04987531172069826,0.0014839917003102235,
0.04992518703241895,0.010873723439847669,
0.04997506234413965,0.016192254491466197,
0.05002493765586035,0.0357800164808737,
0.050074812967581046,-0.016882712078543912,
0.05012468827930175,0.00025189009209001384,
0.050174563591022445,0.0005516369743841197,
0.05022443890274314,0.0214130482215084,
0.05027431421446384,-0.02439036715449281,
0.05032418952618454,-0.0030775133944961975,
0.050374064837905234,0.001213621912418872,
0.05042394014962594,0.014597636987854618,
0.05047381546134663,0.022214107030426353,
0.05052369077306733,0.023121086781966026,
0.05057356608478803,0.034478175720433435,
0.05062344139650873,0.008919375448618394,
0.05067331670822943,0.005668524312329115,
0.050723192019950125,0.020374457886650855,
0.05077306733167082,0.0011525000003446348,
0.050822942643391524,0.00998198211613967,
0.05087281795511222,0.01211215492221232,
0.050922693266832915,0.01525968268542651,
0.05097256857855362,0.005799507987207031,
0.05102244389027431,0.004998774425845659,
0.051072319201995016,-0.010523565535035504,
0.05112219451371571,0.005214099757288058,
0.05117206982543641,0.011971062920096292,
0.05122194513715711,0.024118339610463183,
0.051271820448877806,0.012286980591352546,
0.0513216957605985,0.0226194813326364,
0.051371571072319204,0.0298743300826105,
0.0514214463840399,0.02658623686926913,
0.051471321695760595,-0.00899058802584794,
0.0515211970074813,0.026007129260297947,
0.051571072319201994,0.02408621935038259,
0.051620947630922696,0.006900154239311058,
0.05167082294264339,0.019147657814834622,
0.05172069825436409,-0.0015209280110164737,
0.05177057356608479,0.006360909343472101,
0.051820448877805486,0.003636649542495188,
0.05187032418952618,0.0161793238451428,
0.051920199501246884,0.006309037833817031,
0.05197007481296758,0.02129820828600526,
0.052019950124688276,-0.012673477945684415,
0.05206982543640898,0.014987001728850298,
0.052119700748129674,0.038517945792615804,
0.05216957605985038,0.00925894439598025,
0.05221945137157107,0.020357114933134923,
0.05226932668329177,0.04591610531142423,
0.05231920199501247,-0.0005067394709431586,
0.05236907730673317,0.00923347627594357,
0.05241895261845386,0.01865038405331783,
0.052468827930174565,0.021171150425726752,
0.05251870324189526,0.02394078840764004,
0.05256857855361596,0.016600580730273342,
0.05261845386533666,0.02462773640723692,
0.052668329177057355,0.019881285097396062,
0.05271820448877806,0.011907426119122507,
0.05276807980049875,0.0322268081837323,
0.05281795511221945,0.024042941962314067,
0.05286783042394015,0.04460245074004926,
0.05291770573566085,0.017685273558185364,
0.05296758104738154,0.025913819121708793,
0.053017456359102245,0.0015822256686563,
0.05306733167082294,0.0035539528246050257,
0.053117206982543644,0.02536590754387614,
0.05316708229426434,0.029548185436103176,
0.053216957605985035,0.0411960935935559,
0.05326683291770574,0.04676702704632575,
0.053316708229426434,0.011768830864789916,
0.05336658354114713,0.014404791885339678,
0.05341645885286783,0.06415038733409975,
0.05346633416458853,0.015008926981578637,
0.05351620947630923,0.030791848148963692,
0.053566084788029926,0.019070271678811056,
0.05361596009975062,0.04940464863129283,
0.053665835411471324,0.011672829888079769,
0.05371571072319202,0.02564845484029151,
0.053765586034912716,0.036254286241711293,
0.05381546134663342,0.04801020181997462,
0.053865336658354114,0.007408371643831907,
0.05391521197007481,0.020166207935341716,
0.05396508728179551,0.0133637133811522,
0.05401496259351621,0.020878895540462045,
0.05406483790523691,0.0022921884065232184,
0.054114713216957606,0.023484595325895172,
0.0541645885286783,0.025423148487827278,
0.054214463840399005,0.026715468505435547,
0.0542643391521197,0.022670527688054977,
0.054314214463840396,0.00013252936158469897,
0.0543640897755611,0.004878576322511537,
0.054413965087281795,0.032166928231343934,
0.0544638403990025,0.012289850258477916,
0.05451371571072319,0.006496814922621611,
0.05456359102244389,0.04432850347001173,
0.05461346633416459,0.037795635719990596,
0.05466334164588529,0.05202232359919755,
0.05471321695760598,0.024631000446983475,
0.054763092269326685,0.019787023070189032,
0.05481296758104738,0.03520865524947009,
0.05486284289276808,0.018051371567901212,
0.05491271820448878,0.025186991890008677,
0.054962593516209475,0.004492916598154248,
0.05501246882793018,0.04413024045773997,
0.05506234413965087,0.02224340504734414,
0.05511221945137157,0.029594434663343515,
0.05516209476309227,0.04615018323745175,
0.05521197007481297,0.025990826983439713,
0.05526184538653366,0.0004365642964522763,
0.055311720698254366,0.007626336702000115,
0.05536159600997506,0.024904586808934124,
0.05541147132169576,0.027930496007745272,
0.05546134663341646,0.02068572536728981,
0.055511221945137156,-0.004125108912308249,
0.05556109725685786,0.031554790429533165,
0.055610972568578554,-0.0006168588288183487,
0.05566084788029925,0.009956522141902137,
0.05571072319201995,-0.0025276857807293267,
0.05576059850374065,-0.0003073310010365503,
0.055810473815461344,0.03331284162125449,
0.055860349127182046,0.028939100796480453,
0.05591022443890274,0.03220205954683339,
0.055960099750623445,0.013841917297465707,
0.05600997506234414,0.015778531250269096,
0.056059850374064836,0.03483797801737955,
0.05610972568578554,0.014793830065832772,
0.056159600997506234,0.04748827308067899,
0.05620947630922693,0.007169500111240717,
0.05625935162094763,0.059969897014147996,
0.05630922693266833,0.01189078763792277,
0.056359102244389024,0.0094184558205064,
0.05640897755610973,0.024612993675775345,
0.05645885286783042,0.025419631860456725,
0.056508728179551125,0.03884822194717197,
0.05655860349127182,0.04621545021355907,
0.056608478802992516,0.0068200103294592165,
0.05665835411471322,0.021643969306942717,
0.056708229426433915,0.039273656887364554,
0.05675810473815461,0.002634152086459382,
0.05680798004987531,0.014011904012104705,
0.05685785536159601,0.03790683248605638,
0.05690773067331671,-0.004230586900484008,
0.05695760598503741,-0.008126502757043543,
0.0570074812967581,0.03174557604104097,
0.057057356608478806,0.003884255491458405,
0.0571072319201995,0.006868200836123857,
0.0571571072319202,0.07112818994298417,
0.0572069825436409,-0.0003997865424362895,
0.057256857855361595,0.024767014106815283,
0.05730673316708229,0.014930626814291085,
0.057356608478802994,0.02376201282604018,
0.05740648379052369,0.009699430951541153,
0.05745635910224439,0.031241202883406927,
0.05750623441396509,0.03174081548752222,
0.05755610972568578,0.012392175640914587,
0.057605985037406486,0.0019225827436753218,
0.05765586034912718,0.010876049414269022,
0.05770573566084788,0.021899091814450662,
0.05775561097256858,-0.004360806165696347,
0.057805486284289276,0.019717999290973936,
0.05785536159600998,0.0025616111260190286,
0.057905236907730674,0.01998329608671525,
0.05795511221945137,0.017063507794693466,
0.05800498753117207,0.006358097341447492,
0.05805486284289277,0.009106143024956697,
0.058104738154613464,0.016654294950792268,
0.05815461346633417,0.014282547505118382,
0.05820448877805486,0.01650540496353394,
0.05825436408977556,-0.009619358432617138,
0.05830423940149626,0.0038617509550487976,
0.058354114713216956,0.026686059949435126,
0.05840399002493766,0.024859080867830653,
0.058453865336658355,0.013066412837701475,
0.05850374064837905,0.029265805241238736,
0.05855361596009975,0.019227759871015104,
0.05860349127182045,0.006105777230220619,
0.058653366583541144,0.032133187909696145,
0.05870324189526185,0.02563743526004007,
0.05875311720698254,0.013573059496580366,
0.05880299251870324,0.01749404472915376,
0.05885286783042394,0.008220672021435496,
0.05890274314214464,0.04690215288731689,
0.05895261845386534,0.010252602476115693,
0.059002493765586035,0.016965601076675454,
0.05905236907730673,0.021211302745158676,
0.059102244389027433,0.029271748529346307,
0.05915211970074813,0.009259659533768533,
0.059201995012468825,0.037534520746032,
0.05925187032418953,0.017774834262054763,
0.05930174563591022,0.00530523064578753,
0.059351620947630926,0.0009254773351877622,
0.05940149625935162,0.00898062716945021,
0.05945137157107232,0.002226574832337517,
0.05950124688279302,-0.003953795985175422,
0.059551122194513716,0.017749973250636708,
0.05960099750623441,0.003685212678089405,
0.059650872817955114,0.015538107522806642,
0.05970074812967581,0.00638316883387021,
0.059750623441396505,-0.006291156181090458,
0.05980049875311721,0.004991230026884971,
0.059850374064837904,0.013380304914987887,
0.059900249376558606,0.0012238537589182455,
0.0599501246882793,-0.008098599319591913,
0.06,0.010829502856417494,
0.0600498753117207,0.004697567941051303,
0.060099750623441396,0.009314520824367234,
0.06014962593516209,-0.007023563311942294,
0.060199501246882794,-0.00165298088816209,
0.06024937655860349,0.002998151919028841,
0.06029925187032419,-0.01896874358855625,
0.06034912718204489,0.015138636544489579,
0.060399002493765584,0.010557128754559882,
0.06044887780548629,-0.028674980976050923,
0.06049875311720698,0.03935269538536816,
0.06054862842892768,0.017655022416183372,
0.06059850374064838,0.002743032696445433,
0.06064837905236908,0.013030470509948348,
0.06069825436408977,-0.05156995968072081,
0.060748129675810475,0.003611626484721377,
0.06079800498753117,0.0020934106157417154,
0.06084788029925187,0.006744818841231349,
0.06089775561097257,-0.010759359794491583,
0.060947630922693265,0.024884638963910077,
0.06099750623441397,-0.00047111202879467355,
0.06104738154613466,-0.011242254697979338,
0.06109725685785536,-0.006110164146843536,
0.06114713216957606,-0.018726658917330944,
0.06119700748129676,-0.011921748789685336,
0.06124688279301746,-0.008800868363323801,
0.061296758104738155,-0.011351844972575444,
0.06134663341645885,-0.012598102005666448,
0.061396508728179554,0.021639357189563488,
0.06144638403990025,-0.019744923320112052,
0.061496259351620945,0.0032254775886561863,
0.06154613466334165,0.005973894048552001,
0.061596009975062344,0.02357480496575302,
0.06164588528678304,-0.006305460656432726,
0.06169576059850374,-0.016360092367705074,
0.06174563591022444,-0.02153123936395893,
0.06179551122194514,0.007958765679480003,
0.061845386533665836,0.005625030431735187,
0.06189526184538653,-0.0027652398312360154,
0.061945137157107234,-0.00937209138772138,
0.06199501246882793,0.02069515927007543,
0.062044887780548626,0.01408657706033791,
0.06209476309226933,0.011683374368000859,
0.062144638403990024,-0.0076040269811271325,
0.06219451371571072,-0.002481280386339638,
0.06224438902743142,-0.005508870955852058,
0.06229426433915212,-0.026182032778681478,
0.06234413965087282,-0.018317836364668796,
0.062394014962593516,0.006371093422921099,
0.06244389027431421,-0.01888282800438361,
0.062493765586034915,-0.01716250915514953,
0.06254364089775562,-0.009645511224068776,
0.06259351620947631,-0.009987026345791355,
0.06264339152119701,-0.014076734656031091,
0.0626932668329177,-0.03345359555558684,
0.0627431421446384,-0.0018175971050984202,
0.0627930174563591,0.01649062664075285,
0.0628428927680798,-0.00565810810122428,
0.0628927680798005,-0.01071211372088429,
0.0629426433915212,-0.03183908012404644,
0.06299251870324189,-0.02604013971158333,
0.06304239401496259,-0.0013319187538349715,
0.0630922693266833,-0.008752406268999698,
0.063142144638404,0.004933870947410001,
0.06319201995012469,-0.02113215037078999,
0.06324189526184539,-0.03277552560782103,
0.06329177057356608,-0.005841974206735842,
0.06334164588528678,-0.03656008672200275,
0.06339152119700749,-0.012694316445494238,
0.06344139650872818,-0.0058616527623232915,
0.06349127182044888,-0.01651779610498111,
0.06354114713216957,0.006521146153545841,
0.06359102244389027,-0.0007848309558728846,
0.06364089775561098,-0.011494840575566158,
0.06369077306733167,-0.006254114258411293,
0.06374064837905237,-0.014844115612552757,
0.06379052369077307,-0.026290187266482738,
0.06384039900249376,-0.0008115619897471095,
0.06389027431421446,-0.009874746097437662,
0.06394014962593517,-0.03924490560431962,
0.06399002493765586,-0.010697788979315353,
0.06403990024937656,-0.05301907193623959,
0.06408977556109725,-0.0014920619685831488,
0.06413965087281795,0.004670246131121797,
0.06418952618453866,0.0019614785634237825,
0.06423940149625935,-0.020639951209755675,
0.06428927680798005,-0.01679481702406801,
0.06433915211970075,-0.02147638782696984,
0.06438902743142144,-0.02245049546023992,
0.06443890274314215,0.004724647801625343,
0.06448877805486285,-0.023520651729167508,
0.06453865336658354,0.00013077385293529253,
0.06458852867830424,-0.032921481831972396,
0.06463840399002493,0.012331743084369273,
0.06468827930174563,0.003586688513240132,
0.06473815461346634,0.019860300778647685,
0.06478802992518704,-0.01309280412078274,
0.06483790523690773,-0.007581099262273071,
0.06488778054862843,-0.024869173693062553,
0.06493765586034912,-0.022533747366951528,
0.06498753117206983,-0.025051109464307057,
0.06503740648379053,-0.018437586995294946,
0.06508728179551122,-0.001271244229413944,
0.06513715710723192,-0.034833152533505454,
0.06518703241895261,-0.0209641243016565,
0.06523690773067331,-0.020133308273003157,
0.06528678304239402,-0.006358427510679951,
0.06533665835411472,-0.01343441139829314,
0.06538653366583541,-0.012355989928943859,
0.06543640897755611,-0.021196991577234772,
0.0654862842892768,-0.013437225582673892,
0.06553615960099751,-0.012443806231997106,
0.06558603491271821,-0.015259527982523946,
0.0656359102244389,-0.007533388953670852,
0.0656857855361596,-0.0059696205869840275,
0.0657356608478803,-0.013596028756080113,
0.06578553615960099,0.02123676074302854,
0.0658354114713217,-0.002819651781593489,
0.0658852867830424,-0.0017125635480535056,
0.06593516209476309,-0.023142271912000183,
0.06598503740648379,-0.029790853398758838,
0.06603491271820448,-0.00652301884433306,
0.06608478802992519,0.013781553895049573,
0.06613466334164589,-0.003844231015126362,
0.06618453865336658,-0.016766512664009477,
0.06623441396508728,-0.03155198203930834,
0.06628428927680798,-0.031435771393085954,
0.06633416458852869,-0.006886513267993079,
0.06638403990024938,-0.033644544927324965,
0.06643391521197008,-0.024178584381975562,
0.06648379052369077,-0.028388549851715475,
0.06653366583541147,-0.0021364480560780597,
0.06658354114713216,-0.0408853581913014,
0.06663341645885287,-0.009330879829629117,
0.06668329177057357,-0.02639237067182859,
0.06673316708229426,-0.016697526772600522,
0.06678304239401496,-0.019994470575948383,
0.06683291770573566,0.010803964715459002,
0.06688279301745637,-0.008326324894321013,
0.06693266832917706,0.01056726793648509,
0.06698254364089776,-0.0064942982123156,
0.06703241895261845,-0.03820821387316717,
0.06708229426433915,0.001679469026020626,
0.06713216957605984,-0.007097584011527408,
0.06718204488778055,0.016388960832722482,
0.06723192019950125,-0.02023449349635119,
0.06728179551122195,-0.002611066965931424,
0.06733167082294264,-0.01871138214539988,
0.06738154613466334,-0.010061561161723666,
0.06743142144638405,0.003302802086160411,
0.06748129675810474,-0.009144749940416018,
0.06753117206982544,-0.023582706187786462,
0.06758104738154613,-0.018043806777283757,
0.06763092269326683,0.0013532646973527587,
0.06768079800498752,-0.008335564387686656,
0.06773067331670823,-0.02886534870769194,
0.06778054862842893,-0.02782419528374595,
0.06783042394014963,-0.011685016793721371,
0.06788029925187032,0.012396572548438808,
0.06793017456359102,-0.0004625924369975904,
0.06798004987531173,0.01933446376483498,
0.06802992518703242,0.027406960099401443,
0.06807980049875312,-0.040671685639452795,
0.06812967581047381,0.0024910768353822417,
0.06817955112219451,-9.656061544073818e-05,
0.0682294264339152,0.013464326696654701,
0.06827930174563591,0.0008820226216458725,
0.06832917705735661,-0.01653711096397681,
0.0683790523690773,-0.01273306772138497,
0.068428927680798,-0.009657723372819496,
0.0684788029925187,-0.006198281791103934,
0.06852867830423941,0.004461139806634739,
0.0685785536159601,-0.02810306647352139,
0.0686284289276808,0.006635940966422822,
0.0686783042394015,0.004850361099215371,
0.06872817955112219,0.006425524424113623,
0.0687780548628429,-0.01850541938972299,
0.0688279301745636,-0.021291213866016526,
0.06887780548628429,-0.0014983480534606604,
0.06892768079800499,-0.034574880185544096,
0.06897755610972568,-0.0165157888568965,
0.06902743142144638,0.0013520175277882385,
0.06907730673316709,-0.01193375662970676,
0.06912718204488778,-0.010716328077329666,
0.06917705735660848,0.013850442455024233,
0.06922693266832917,-0.00011980135942702108,
0.06927680798004987,0.007288372417293893,
0.06932668329177058,0.00367305686090673,
0.06937655860349128,-0.029694922036533063,
0.06942643391521197,-0.019484221520617292,
0.06947630922693267,-0.005732588802403562,
0.06952618453865336,-0.008376281797447531,
0.06957605985037406,0.015636560056836057,
0.06962593516209477,0.002089432015427371,
0.06967581047381546,0.009520749519374167,
0.06972568578553616,0.005103513275245445,
0.06977556109725686,0.0071351620298633674,
0.06982543640897755,-0.013118346867761315,
0.06987531172069826,0.003930065254431591,
0.06992518703241896,0.008730357373469635,
0.06997506234413965,-0.0046623196192605056,
0.07002493765586035,-0.01833677967709641,
0.07007481296758104,-0.002696527880616098,
0.07012468827930174,0.005147352373841788,
0.07017456359102245,0.011413184700038612,
0.07022443890274314,0.031193060362542054,
0.07027431421446384,0.010287895836379844,
0.07032418952618454,-0.0073089563927676215,
0.07037406483790523,0.02925656672111672,
0.07042394014962594,0.013487020629420768,
0.07047381546134664,-0.006723897918584234,
0.07052369077306733,0.006482186667902443,
0.07057356608478803,0.010932459167399499,
0.07062344139650872,0.0027727659873319965,
0.07067331670822943,-0.004468748546797633,
0.07072319201995013,-0.024696734909943875,
0.07077306733167082,0.010799978547861482,
0.07082294264339152,0.006372100237778263,
0.07087281795511222,-0.010598701851145104,
0.07092269326683291,0.006352871401467589,
0.07097256857855362,0.026914238952973235,
0.07102244389027432,0.004388488083729235,
0.07107231920199501,0.016733789733461922,
0.07112219451371571,0.0019956987482624283,
0.0711720698254364,0.028794142995277577,
0.07122194513715711,-0.01955477786960406,
0.07127182044887781,0.025485354459883848,
0.0713216957605985,-0.0041581795702099605,
0.0713715710723192,0.024935444116678813,
0.0714214463840399,-0.006767051255019439,
0.07147132169576059,0.027344280379687856,
0.0715211970074813,0.015165962231641109,
0.071571072319202,0.015416373228197262,
0.0716209476309227,0.008579044748097939,
0.07167082294264339,-0.0004969856921140416,
0.07172069825436408,-0.005757498431566404,
0.0717705735660848,0.03062566199561169,
0.07182044887780549,-0.0109436709697617,
0.07187032418952619,-0.0014452365078677157,
0.07192019950124688,0.031298687682090376,
0.07197007481296758,0.022582080395360138,
0.07201995012468827,0.031325129122902334,
0.07206982543640898,-0.006842707615294999,
0.07211970074812968,0.026501222681481997,
0.07216957605985037,0.052641487850708074,
0.07221945137157107,0.02721641293970821,
0.07226932668329177,0.03132925053093352,
0.07231920199501247,0.02282334461083265,
0.07236907730673317,0.025238516918525637,
0.07241895261845387,0.01055088259625789,
0.07246882793017456,0.03738863089601119,
0.07251870324189526,0.015072557631264513,
0.07256857855361595,0.005385820821340998,
0.07261845386533666,0.009029170315924095,
0.07266832917705736,0.020526820204724794,
0.07271820448877805,0.01710433646111867,
0.07276807980049875,0.03588207343644469,
0.07281795511221945,0.030449817900883316,
0.07286783042394016,0.02278295591128834,
0.07291770573566085,0.019988151085802968,
0.07296758104738155,0.022355962866564768,
0.07301745635910224,0.027996752445807835,
0.07306733167082294,0.00014531374419663595,
0.07311720698254365,0.033554157616458254,
0.07316708229426434,0.0423944254725091,
0.07321695760598504,0.035369902989944954,
0.07326683291770573,0.01482214827488009,
0.07331670822942643,0.01965425485123786,
0.07336658354114713,0.04799549955009809,
0.07341645885286784,0.010591366167855032,
0.07346633416458853,0.056490852012135745,
0.07351620947630923,0.0037221908039067123,
0.07356608478802992,-0.005843623222485134,
0.07361596009975062,0.025703558577595743,
0.07366583541147133,0.030811567162785804,
0.07371571072319202,0.026991241499343815,
0.07376558603491272,0.006044543403826735,
0.07381546134663342,0.02024003832163088,
0.07386533665835411,0.030589264286894496,
0.0739152119700748,0.006499661386773565,
0.07396508728179552,0.030794779254312232,
0.07401496259351621,0.002580312277127024,
0.07406483790523691,0.053137023763921626,
0.0741147132169576,0.048073122993324495,
0.0741645885286783,0.037300559863990175,
0.07421446384039901,0.0470152040586029,
0.0742643391521197,0.013387777819366651,
0.0743142144638404,0.029411589070959785,
0.0743640897755611,0.030583378920124388,
0.07441396508728179,0.03838936511463461,
0.07446384039900249,0.026711241503486274,
0.0745137157107232,0.021297614985238043,
0.07456359102244389,0.01896620212515704,
0.07461346633416459,-0.0008958167948734247,
0.07466334164588528,0.028080697084082604,
0.07471321695760598,0.06448029249509979,
0.07476309226932669,0.0442456945718015,
0.07481296758104738,0.0021768327658316412,
0.07486284289276808,0.012487927752392061,
0.07491271820448878,0.0477556333443172,
0.07496259351620947,0.05016566890803255,
0.07501246882793017,0.04241036660660468,
0.07506234413965088,0.039665873472437455,
0.07511221945137157,0.03894968626476792,
0.07516209476309227,0.03754770145793224,
0.07521197007481296,0.03393881412636495,
0.07526184538653366,0.00712834163062848,
0.07531172069825437,0.05625826793063001,
0.07536159600997507,0.017181115036341666,
0.07541147132169576,0.012792534573277108,
0.07546134663341646,0.015847045339435067,
0.07551122194513715,0.04077240619111288,
0.07556109725685786,0.03237041974348766,
0.07561097256857856,0.03613709405809576,
0.07566084788029925,0.034523931388825306,
0.07571072319201995,0.03102156015960427,
0.07576059850374064,0.02457276668184622,
0.07581047381546134,0.02264805054202686,
0.07586034912718205,0.02784101648277037,
0.07591022443890275,0.038227224364407425,
0.07596009975062344,0.03508440633045546,
0.07600997506234414,0.032077369101146926,
0.07605985037406483,0.019500024491465387,
0.07610972568578554,0.019663679789600555,
0.07615960099750624,0.027811957122658885,
0.07620947630922693,0.01048626268360792,
0.07625935162094763,0.00794159338829609,
0.07630922693266833,0.021095018181367133,
0.07635910224438902,0.04845606976790049,
0.07640897755610973,0.041468263090382915,
0.07645885286783043,0.017824927577011294,
0.07650872817955112,0.003722277185760809,
0.07655860349127182,0.025519415278096282,
0.07660847880299251,0.017726667121239093,
0.07665835411471322,0.026249742285306667,
0.07670822942643392,0.037818475709426015,
0.07675810473815461,0.02168077074322431,
0.07680798004987531,0.044112319543786374,
0.076857855361596,0.023594830367005902,
0.0769077306733167,0.016136672878010322,
0.07695760598503741,0.01952644533585678,
0.0770074812967581,0.03365285320421371,
0.0770573566084788,0.046428560006505595,
0.0771072319201995,0.021371305135920633,
0.0771571072319202,0.04428284359430265,
0.0772069825436409,0.04529243745145814,
0.0772568578553616,0.031117008777979103,
0.0773067331670823,0.009692317635848319,
0.07735660847880299,0.00513436461256187,
0.07740648379052369,0.035179548458203785,
0.0774563591022444,0.0032088805359888582,
0.07750623441396509,0.019980743093115372,
0.07755610972568579,0.000747077012068869,
0.07760598503740648,0.038195000489828115,
0.07765586034912718,0.015352752793444866,
0.07770573566084787,0.06442293097842304,
0.07775561097256858,0.04223394981857387,
0.07780548628428928,-0.0035586009469856204,
0.07785536159600998,0.02676592053724799,
0.07790523690773067,0.0309442112683107,
0.07795511221945137,0.010361222602774407,
0.07800498753117208,0.023078746280182045,
0.07805486284289277,0.0008989495697553744,
0.07810473815461347,-0.006815659855964051,
0.07815461346633416,0.022512600959394835,
0.07820448877805486,0.03257742922163061,
0.07825436408977555,0.03554048781962123,
0.07830423940149626,0.015465183663434278,
0.07835411471321696,0.002147064397381942,
0.07840399002493766,0.011627885429892963,
0.07845386533665835,0.028033137812051273,
0.07850374064837905,0.011069812274885803,
0.07855361596009976,0.024532948630108867,
0.07860349127182045,-0.009424384187169232,
0.07865336658354115,-0.0011254083649784741,
0.07870324189526184,0.029092653125587516,
0.07875311720698254,0.0057493395856701105,
0.07880299251870324,0.028884182626358775,
0.07885286783042394,-0.005179458612759119,
0.07890274314214464,0.015650784863805736,
0.07895261845386534,-0.006202995202392281,
0.07900249376558603,-0.0011097850538074484,
0.07905236907730673,0.006530181919094085,
0.07910224438902744,-0.00949608183676482,
0.07915211970074813,0.030754236554552165,
0.07920199501246883,0.027800089239713235,
0.07925187032418952,0.032111707532491804,
0.07930174563591022,-9.419725131441271e-05,
0.07935162094763092,0.03882796027248657,
0.07940149625935163,0.038034231092096304,
0.07945137157107232,4.722287319999796e-06,
0.07950124688279302,-0.00472778914108935,
0.07955112219451371,-0.006595230232379871,
0.07960099750623441,-0.0013416470356154165,
0.07965087281795512,0.021120424969616983,
0.07970074812967581,0.021562550277606014,
0.07975062344139651,0.00030540439160367094,
0.0798004987531172,0.023626805473383267,
0.0798503740648379,-0.014663637512668607,
0.07990024937655861,0.02553487565239116,
0.0799501246882793,-0.0005715752938991866,
0.08,0.01150752069012189,
0.0800498753117207,-0.00036416492315863996,
0.0800997506234414,0.039360436467062734,
0.08014962593516209,0.03909175246582658,
0.0801995012468828,0.016060302761436208,
0.0802493765586035,0.028039359265825195,
0.08029925187032419,0.018294124149284323,
0.08034912718204489,-0.002701280309907442,
0.08039900249376558,0.000289625282782023,
0.08044887780548629,-0.004068068750078421,
0.08049875311720699,0.030694543081188946,
0.08054862842892768,-0.027974729107934502,
0.08059850374064838,0.01144860176350571,
0.08064837905236907,-0.00226547826489583,
0.08069825436408977,0.008120663343386599,
0.08074812967581048,0.010606864563080678,
0.08079800498753117,-0.002328970338381131,
0.08084788029925187,0.0003233631978065088,
0.08089775561097257,0.007010910362623919,
0.08094763092269326,0.013922081030597186,
0.08099750623441397,-0.008166024861573404,
0.08104738154613467,-0.01864491415508041,
0.08109725685785536,-0.00968651045178658,
0.08114713216957606,-0.008281418861852123,
0.08119700748129675,-0.014893046674648358,
0.08124688279301745,0.020565187003421408,
0.08129675810473816,-0.031696146858381076,
0.08134663341645886,0.0013187127909942763,
0.08139650872817955,-0.008453264188065416,
0.08144638403990025,0.026740557749621762,
0.08149625935162094,-0.006412226923623647,
0.08154613466334165,-0.017346176452832957,
0.08159600997506235,-0.006892249631080694,
0.08164588528678304,-0.0013342799111122293,
0.08169576059850374,0.00029382227361112595,
0.08174563591022443,-0.021122446581344923,
0.08179551122194513,0.013090411385018957,
0.08184538653366584,-0.015893608062035422,
0.08189526184538654,-0.03323078611550202,
0.08194513715710723,0.009152866998775232,
0.08199501246882793,-0.01832461825691748,
0.08204488778054862,0.020722134692587206,
0.08209476309226933,-0.039310750744103,
0.08214463840399003,-0.006402462480745282,
0.08219451371571072,-0.01573516967317194,
0.08224438902743142,-0.024825120881090307,
0.08229426433915212,-0.02354113835482464,
0.08234413965087282,-0.027028609028469965,
0.08239401496259352,0.00791538159730383,
0.08244389027431422,-0.0062239552980986575,
0.08249376558603491,-0.006163682853932779,
0.08254364089775561,0.022860163702208156,
0.0825935162094763,0.010667932384851708,
0.08264339152119701,-0.030819175378455813,
0.08269326683291771,-0.012306174075248453,
0.0827431421446384,-0.013109055332626431,
0.0827930174563591,0.012639996415932797,
0.0828428927680798,-0.014047503109736903,
0.0828927680798005,-0.006675577751701976,
0.0829426433915212,-0.01519151814077798,
0.0829925187032419,-0.03207664261881618,
0.08304239401496259,-0.013837306547032614,
0.08309226932668329,0.009930311090332102,
0.08314214463840398,-0.023039682581965773,
0.0831920199501247,6.540873549611137e-05,
0.08324189526184539,-0.03972732489309747,
0.08329177057356608,-0.0010048002540935033,
0.08334164588528678,-0.021588664699819418,
0.08339152119700748,7.265243770746693e-05,
0.08344139650872819,-0.01748614496599093,
0.08349127182044888,-0.005840170658584099,
0.08354114713216958,-0.02281524031475379,
0.08359102244389027,-0.010350351280906124,
0.08364089775561097,-0.013972521660098634,
0.08369077306733166,-0.01645190454433992,
0.08374064837905237,0.0010355415083465516,
0.08379052369077307,0.006074983046894675,
0.08384039900249377,-0.03144647971410641,
0.08389027431421446,-0.012199929654387338,
0.08394014962593516,-0.019698723122220388,
0.08399002493765587,-0.03465244492461665,
0.08403990024937656,-0.01373574157452498,
0.08408977556109726,-0.02294658908921595,
0.08413965087281795,-0.0571477821390689,
0.08418952618453865,-0.0036480360297758297,
0.08423940149625936,0.008558824968939425,
0.08428927680798005,-0.008134771741196856,
0.08433915211970075,0.005274323644318603,
0.08438902743142145,-0.041985317987727346,
0.08443890274314214,-0.007061256079062356,
0.08448877805486284,-0.02229651762221843,
0.08453865336658355,-0.04026712507690969,
0.08458852867830424,-0.005444687381946405,
0.08463840399002494,-0.01823292238220705,
0.08468827930174563,0.007684866625093774,
0.08473815461346633,-0.0015503398267896554,
0.08478802992518704,-0.01083091762924671,
0.08483790523690773,-0.04018053311914951,
0.08488778054862843,-0.010384208288249543,
0.08493765586034913,0.0023032166239708527,
0.08498753117206982,-0.0006467796985935009,
0.08503740648379052,-0.0019082053888344868,
0.08508728179551123,-0.022331128970782863,
0.08513715710723192,-0.007822158005267713,
0.08518703241895262,-0.014645442152632623,
0.08523690773067331,-0.0012049513752840184,
0.08528678304239401,-0.0208745276608053,
0.08533665835411472,-0.000296474603245769,
0.08538653366583542,-0.004194313451616222,
0.08543640897755611,-0.011763608131510197,
0.0854862842892768,0.011999736309344266,
0.0855361596009975,0.007916562466685808,
0.0855860349127182,-0.0025271440206980997,
0.08563591022443891,-0.03687679353808444,
0.0856857855361596,0.002007322697875246,
0.0857356608478803,0.022372847417945013,
0.085785536159601,-0.025356155998827252,
0.08583541147132169,-0.004930078306007082,
0.0858852867830424,-0.01896702596973438,
0.0859351620947631,-0.01701777660820506,
0.08598503740648379,0.003255073149500111,
0.08603491271820449,-0.019927618031564114,
0.08608478802992518,-0.016532583088771622,
0.08613466334164588,-0.035649713964403223,
0.08618453865336659,9.334766231134349e-05,
0.08623441396508728,-0.027498052215049786,
0.08628428927680798,-0.014175000944609549,
0.08633416458852868,-0.017561531915969222,
0.08638403990024937,-0.006167245017052039,
0.08643391521197008,-0.016230955270760093,
0.08648379052369078,0.008896888116746507,
0.08653366583541147,-0.006806796236245901,
0.08658354114713217,-0.031229868383855778,
0.08663341645885286,-0.013428117621203856,
0.08668329177057357,0.007592956505934379,
0.08673316708229427,-0.017317593725408434,
0.08678304239401496,-0.023072630496114754,
0.08683291770573566,-0.03052960332111694,
0.08688279301745636,0.010763459816091201,
0.08693266832917705,-0.0017300656927526567,
0.08698254364089776,-0.013557627684515327,
0.08703241895261846,-0.03249714713613493,
0.08708229426433915,-0.00618041909846318,
0.08713216957605985,-0.03604904448968059,
0.08718204488778054,-0.042926420114525896,
0.08723192019950125,0.013033108706323038,
0.08728179551122195,-0.003045203489711386,
0.08733167082294264,0.002722840983268037,
0.08738154613466334,-0.03364407538879678,
0.08743142144638404,-0.018250786942583076,
0.08748129675810473,-0.006787133471395016,
0.08753117206982544,-0.024167375191507336,
0.08758104738154614,-0.013389140372424212,
0.08763092269326683,-0.018756175640855764,
0.08768079800498753,-0.0036348834850507216,
0.08773067331670822,-0.0059102325645364415,
0.08778054862842893,-0.009246911197777803,
0.08783042394014963,-0.03349473570432387,
0.08788029925187033,-0.009727759798765145,
0.08793017456359102,0.014278561424824317,
0.08798004987531172,-0.008943602963122969,
0.08802992518703241,0.003655901969428126,
0.08807980049875312,-0.016555451547583918,
0.08812967581047382,-0.005053689116221425,
0.08817955112219451,-0.0019132234088609199,
0.08822942643391521,-0.006695057428552144,
0.0882793017456359,-0.0002909196055965635,
0.08832917705735661,0.001300529141450216,
0.08837905236907731,0.03117496518040247,
0.088428927680798,0.025079478879173552,
0.0884788029925187,0.00385254424890901,
0.0885286783042394,-0.009989022761193893,
0.0885785536159601,0.005302893337763873,
0.0886284289276808,-0.025643411995333487,
0.0886783042394015,-0.009457389271037134,
0.0887281795511222,0.0003955540933802328,
0.08877805486284289,-0.018320887124944923,
0.08882793017456359,-0.02779146170775403,
0.0888778054862843,0.003690374616978075,
0.08892768079800499,-0.017062665533490368,
0.08897755610972569,0.009237744481564347,
0.08902743142144638,-0.0054272813638039435,
0.08907730673316708,0.008637931764069262,
0.08912718204488779,-0.03601034460899712,
0.08917705735660848,0.02918923024605947,
0.08922693266832918,0.002303645485564404,
0.08927680798004987,0.02176764915702543,
0.08932668329177057,0.02429558829231653,
0.08937655860349127,-0.011023325274055133,
0.08942643391521198,-0.018112327439345044,
0.08947630922693267,-0.009884150624718991,
0.08952618453865337,0.007319911219420388,
0.08957605985037406,-0.010170072372091929,
0.08962593516209476,0.014525497244907376,
0.08967581047381547,0.00011768517258864408,
0.08972568578553616,-0.006817674535567469,
0.08977556109725686,-0.010672299634460366,
0.08982543640897755,0.009439030165729705,
0.08987531172069825,0.003118809974653558,
0.08992518703241895,0.01154471685199049,
0.08997506234413966,0.02062536076198005,
0.09002493765586035,0.016767107860684784,
0.09007481296758105,0.014601947880426916,
0.09012468827930174,-0.005393465091118914,
0.09017456359102244,0.002267513361304942,
0.09022443890274315,0.021163673133776487,
0.09027431421446384,0.013874776748313878,
0.09032418952618454,0.014398314479195096,
0.09037406483790524,0.009279456705843235,
0.09042394014962593,0.013327559207689499,
0.09047381546134663,0.03597157449479571,
0.09052369077306734,0.015202881328251277,
0.09057356608478803,0.021915592424490045,
0.09062344139650873,0.004812531003599605,
0.09067331670822942,0.014259052939303754,
0.09072319201995012,0.022794960150572294,
0.09077306733167083,0.01152921855305688,
0.09082294264339152,0.01589079305437511,
0.09087281795511222,0.00941535009663692,
0.09092269326683292,0.01886505525731997,
0.09097256857855361,0.04388253510030207,
0.09102244389027432,0.03171842979935679,
0.09107231920199502,0.01516613568660383,
0.09112219451371571,0.00489643337947167,
0.09117206982543641,0.016725153998612904,
0.0912219451371571,-0.00136544723564486,
0.0912718204488778,0.009850726434909605,
0.09132169576059851,0.025690800299441596,
0.0913715710723192,0.0227609120610215,
0.0914214463840399,-0.021028133306039767,
0.0914713216957606,0.029830970259856485,
0.09152119700748129,0.021664807642439665,
0.091571072319202,0.008928380553668486,
0.0916209476309227,0.0013620467425098266,
0.09167082294264339,0.023260697106319343,
0.09172069825436409,0.03718370439486669,
0.09177057356608478,0.00887273589624511,
0.09182044887780548,0.020030725996953845,
0.09187032418952619,0.022086383060674716,
0.09192019950124689,0.028580216769284916,
0.09197007481296758,0.06172502645196317,
0.09201995012468828,0.01711647264898843,
0.09206982543640897,0.028379720265391786,
0.09211970074812968,0.02290884167857726,
0.09216957605985038,0.023405319069093045,
0.09221945137157107,0.013128294971678004,
0.09226932668329177,0.015346241775353008,
0.09231920199501246,0.03444343445178881,
0.09236907730673316,0.030330585596098532,
0.09241895261845387,-0.011444103988820058,
0.09246882793017457,0.02072686073616367,
0.09251870324189526,-0.010717588859477087,
0.09256857855361596,0.0266294736841205,
0.09261845386533665,0.010809153321147041,
0.09266832917705736,-0.004300600531213054,
0.09271820448877806,0.023985076254768173,
0.09276807980049875,0.011824683181419406,
0.09281795511221945,0.01881980879532446,
0.09286783042394015,0.01808881982098875,
0.09291770573566084,0.022623440352584488,
0.09296758104738155,0.036326460185926515,
0.09301745635910225,0.029920667612043123,
0.09306733167082294,0.02440287136129991,
0.09311720698254364,0.010745692963518402,
0.09316708229426433,0.013001110723511998,
0.09321695760598504,0.02290913053401361,
0.09326683291770574,0.015949969175851633,
0.09331670822942643,0.058042029499974876,
0.09336658354114713,0.04607685597507952,
0.09341645885286783,0.03292348012563996,
0.09346633416458854,0.02736218725590195,
0.09351620947630923,0.05436798368424417,
0.09356608478802993,0.019296162402292955,
0.09361596009975062,0.0403093187119307,
0.09366583541147132,0.028434205624643397,
0.09371571072319201,0.03967620025468132,
0.09376558603491272,0.025187950967036386,
0.09381546134663342,0.01467985682183931,
0.09386533665835411,0.011917502324421382,
0.09391521197007481,0.019883487425792396,
0.0939650872817955,0.032528543033685485,
0.09401496259351622,0.023199458512751115,
0.09406483790523691,0.025387591462832565,
0.09411471321695761,0.008543071396695408,
0.0941645885286783,0.0311025240856352,
0.094214463840399,0.02535701384108905,
0.0942643391521197,0.03271901013095523,
0.0943142144638404,0.020336634964991045,
0.0943640897755611,0.024677468035407206,
0.0944139650872818,0.01832106717775353,
0.09446384039900249,0.052008604231872466,
0.09451371571072319,0.029844212069620086,
0.0945635910224439,0.04610407580795167,
0.09461346633416459,0.025153938340631378,
0.09466334164588529,0.027159751927601623,
0.09471321695760598,0.02503691655065542,
0.09476309226932668,0.02146387228040706,
0.09481296758104737,0.03458181582351526,
0.09486284289276808,0.037535467658134675,
0.09491271820448878,0.023576790141142303,
0.09496259351620948,0.01872192487123418,
0.09501246882793017,0.028533358482554012,
0.09506234413965087,0.026061399044015453,
0.09511221945137158,0.00864075863979405,
0.09516209476309227,0.04915719936394779,
0.09521197007481297,0.030167333477918327,
0.09526184538653366,0.02258241008444981,
0.09531172069825436,0.02659043062819522,
0.09536159600997507,0.03160220593100351,
0.09541147132169576,0.01000614549122724,
0.09546134663341646,0.03319636298005804,
0.09551122194513716,0.021310289403455626,
0.09556109725685785,0.016825613113249246,
0.09561097256857855,0.020865512616551698,
0.09566084788029926,0.037589796923071,
0.09571072319201995,0.0007670595617278939,
0.09576059850374065,0.03303509770377937,
0.09581047381546134,0.05021647546427118,
0.09586034912718204,0.02961002136374028,
0.09591022443890275,0.02930167196808355,
0.09596009975062345,0.04911101964555395,
0.09600997506234414,0.021770188707397463,
0.09605985037406484,0.0280162930047245,
0.09610972568578553,0.020465163898932222,
0.09615960099750623,0.057550553248114714,
0.09620947630922694,0.02629067938912693,
0.09625935162094763,0.013871895352193762,
0.09630922693266833,-0.014899744656072016,
0.09635910224438902,0.03228662191317471,
0.09640897755610972,-0.0017654103751476927,
0.09645885286783043,0.04203386144878126,
0.09650872817955113,0.007416865225444692,
0.09655860349127182,0.015286440688603534,
0.09660847880299252,0.024246096273137046,
0.09665835411471321,0.022511079766079918,
0.09670822942643391,0.0221851423513887,
0.09675810473815462,0.032414226990550146,
0.09680798004987531,0.02022494970466017,
0.09685785536159601,0.037044139657996036,
0.0969077306733167,0.008454863252182027,
0.0969576059850374,0.018589331566608046,
0.09700748129675811,0.04133520060527017,
0.0970573566084788,0.0119920286457993,
0.0971072319201995,0.021588440074341055,
0.0971571072319202,0.015315362636859724,
0.0972069825436409,0.01368455572740567,
0.09725685785536159,0.024330352969835305,
0.0973067331670823,0.011529470119770197,
0.097356608478803,0.018723363928868954,
0.09740648379052369,0.021770820018033193,
0.09745635910224439,-0.0021838586185857108,
0.09750623441396508,-0.007277776458827604,
0.09755610972568579,0.005564573046421977,
0.09760598503740649,0.03953321523321849,
0.09765586034912718,0.028704818866594102,
0.09770573566084788,0.01681949984805631,
0.09775561097256857,0.014139292462055243,
0.09780548628428928,0.04975360180276511,
0.09785536159600998,0.027150601382936262,
0.09790523690773068,0.022664393140534148,
0.09795511221945137,0.015741488810851408,
0.09800498753117207,0.016769776014992376,
0.09805486284289276,0.04649096388890404,
0.09810473815461347,0.028200029339905033,
0.09815461346633417,0.020010054679428256,
0.09820448877805486,-0.0007642165577424684,
0.09825436408977556,0.015730929148286506,
0.09830423940149625,0.017235044108357533,
0.09835411471321696,0.02483299776875214,
0.09840399002493766,0.02001364625195438,
0.09845386533665836,-0.0031091352363931263,
0.09850374064837905,0.03705002615085347,
0.09855361596009975,0.029653306758871255,
0.09860349127182044,0.021155562515197318,
0.09865336658354115,0.0293902463405136,
0.09870324189526185,0.020816984207875307,
0.09875311720698254,0.04223735523348979,
0.09880299251870324,-0.0140203033052939,
0.09885286783042393,-0.005253384913304026,
0.09890274314214464,-0.0026999632510516514,
0.09895261845386534,0.01115178834438773,
0.09900249376558604,-0.0011696770772557374,
0.09905236907730673,0.0056981473641947705,
0.09910224438902743,0.010013711294205608,
0.09915211970074812,0.005567902551865641,
0.09920199501246883,0.02347938891249566,
0.09925187032418953,-0.001963212868641477,
0.09930174563591022,-0.00033528729920946805,
0.09935162094763092,0.008860182777232384,
0.09940149625935162,0.025170316249434374,
0.09945137157107233,0.018104109951645332,
0.09950124688279302,0.04210098784833252,
0.09955112219451372,-0.008224251870807248,
0.09960099750623441,0.0006830292275524542,
0.09965087281795511,0.008178083655794692,
0.0997007481296758,0.00932604116072406,
0.09975062344139651,0.0007641042280761307,
0.09980049875311721,0.024643184048294443,
0.0998503740648379,-0.00030635697585355663,
0.0999002493765586,0.0033015018181759698,
0.0999501246882793,0.017342567480980238,
0.1,0.010723154223434736,
0.1000498753117207,0.01249015826462076,
0.1000997506234414,0.0006049332209808831,
0.10014962593516209,0.01564878659120498,
0.10019950124688279,-0.0001351203178615399,
0.1002493765586035,0.021154020563995395,
0.1002992518703242,5.032886152517204e-05,
0.10034912718204489,-0.0013201130688953473,
0.10039900249376559,-0.020039178436585658,
0.10044887780548628,-0.0020312970161367547,
0.10049875311720698,0.009047855484281112,
0.10054862842892769,-0.022412408173590533,
0.10059850374064838,0.0072405986353281365,
0.10064837905236908,0.015641320025675434,
0.10069825436408977,-0.008930486011903318,
0.10074812967581047,-0.002628301869768648,
0.10079800498753118,0.023057394632761734,
0.10084788029925187,-0.007156006081077336,
0.10089775561097257,-0.0020816555156698054,
0.10094763092269327,-0.030059011719535584,
0.10099750623441396,0.010678291464773889,
0.10104738154613466,-0.004180235822100306,
0.10109725685785537,0.003292071283263457,
0.10114713216957606,0.006401681532490895,
0.10119700748129676,0.010956485347997778,
0.10124688279301745,0.002191079125949608,
0.10129675810473815,-0.006903835863315784,
0.10134663341645886,-0.004684122286373545,
0.10139650872817955,0.0029915785283576085,
0.10144638403990025,-0.0240425130749253,
0.10149625935162095,-0.020056779963078107,
0.10154613466334164,0.0062982008544633615,
0.10159600997506234,0.011074065784387604,
0.10164588528678305,-0.006321740922766351,
0.10169576059850374,0.026808177965949323,
0.10174563591022444,0.0036121293902268807,
0.10179551122194513,-0.0007438844857481706,
0.10184538653366583,0.016524974530781014,
0.10189526184538654,0.015995257420817106,
0.10194513715710724,0.009946560306375432,
0.10199501246882793,-0.029726480405308762,
0.10204488778054863,-0.026654557788537776,
0.10209476309226932,-0.011868946216267965,
0.10214463840399003,-0.03643167137211357,
0.10219451371571073,3.292894040626045e-05,
0.10224438902743142,-0.019898267552423948,
0.10229426433915212,-0.002733872167745522,
0.10234413965087281,-0.011199723538784467,
0.10239401496259351,-0.00864432334476389,
0.10244389027431422,-0.028229105865137896,
0.10249376558603492,-0.0064064510344853005,
0.10254364089775561,-0.00818331915435645,
0.10259351620947631,0.02179043719183507,
0.102643391521197,-0.00999080770501555,
0.10269326683291771,-0.04419906698854785,
0.10274314214463841,-0.01378267851597848,
0.1027930174563591,0.009626350151741857,
0.1028428927680798,0.012153624772621208,
0.1028927680798005,-0.03875428331175469,
0.10294264339152119,0.009096637573861442,
0.1029925187032419,-0.025030537648769176,
0.1030423940149626,-0.0069294304255017826,
0.10309226932668329,-0.005400514141941095,
0.10314214463840399,-0.03578727461231556,
0.10319201995012468,-0.022288158240019354,
0.10324189526184539,-0.01125353078887436,
0.10329177057356609,-0.02907976059299004,
0.10334164588528678,0.00785893199808773,
0.10339152119700748,-0.007282378993625074,
0.10344139650872818,-0.026806040595686195,
0.10349127182044887,0.0050521182280971536,
0.10354114713216958,0.01715686255088445,
0.10359102244389028,-0.0034840585965997565,
0.10364089775561097,-0.008013673283780236,
0.10369077306733167,-0.024927146698256342,
0.10374064837905236,-0.028685853830869745,
0.10379052369077307,-0.022321710821594374,
0.10384039900249377,-0.004391510299342663,
0.10389027431421446,-0.0005860317190994994,
0.10394014962593516,-0.006623238161763868,
0.10399002493765586,-0.02084965096133002,
0.10403990024937655,-0.03140036161490463,
0.10408977556109726,0.0008924816740609014,
0.10413965087281796,0.010513370444846432,
0.10418952618453865,-0.03212704413252415,
0.10423940149625935,-0.025410031730302086,
0.10428927680798004,-0.01955461287029296,
0.10433915211970075,-0.04684849651345095,
0.10438902743142145,-0.019433702136796165,
0.10443890274314215,0.020042113826203953,
0.10448877805486284,-0.009828189735221997,
0.10453865336658354,-0.03804773677125482,
0.10458852867830425,-0.00512415237454568,
0.10463840399002494,-0.006765538615629501,
0.10468827930174564,0.018241263651989182,
0.10473815461346633,0.0033254143475038335,
0.10478802992518703,-0.03351433242997799,
0.10483790523690772,-0.013130399412632394,
0.10488778054862843,-0.044766617812204604,
0.10493765586034913,-0.009893950142875158,
0.10498753117206983,-0.028410525933578942,
0.10503740648379052,-0.013300303744603559,
0.10508728179551122,-0.03100212705298548,
0.10513715710723193,-0.03348572341493767,
0.10518703241895262,-0.018221242274701826,
0.10523690773067332,-0.02538426278449,
0.10528678304239401,-0.026889290113637145,
0.10533665835411471,0.011467604502180376,
0.1053865336658354,-0.04474243907265628,
0.10543640897755611,-0.0024171504351821124,
0.10548628428927681,-0.01641060463371935,
0.1055361596009975,-0.03279148617560304,
0.1055860349127182,-0.021436360023030204,
0.1056359102244389,-0.02248771697580621,
0.10568578553615961,-0.027933083967924335,
0.1057356608478803,-0.015534130992645124,
0.105785536159601,-0.006357294817235453,
0.1058354114713217,-0.005300610384778076,
0.10588528678304239,-0.002886242751007439,
0.10593516209476309,-0.012218887391416626,
0.1059850374064838,-0.016701944102577363,
0.10603491271820449,-0.019962687284300812,
0.10608478802992519,-0.02672316506400778,
0.10613466334164588,-0.00765102540724273,
0.10618453865336658,0.002101941372162802,
0.10623441396508729,-0.02277926967434091,
0.10628428927680798,-0.0297456084401649,
0.10633416458852868,-0.013405413727408867,
0.10638403990024937,0.0034250983136730334,
0.10643391521197007,-0.014443648906114798,
0.10648379052369077,0.005132942182782724,
0.10653366583541148,0.011493037171595125,
0.10658354114713217,-0.0028164626673772,
0.10663341645885287,-0.023815261585525688,
0.10668329177057356,-0.009663960137286412,
0.10673316708229426,-0.011101726024370292,
0.10678304239401497,-0.022998305826589523,
0.10683291770573566,0.04109530708357485,
0.10688279301745636,-0.014328674818092208,
0.10693266832917706,-0.00955684964445261,
0.10698254364089775,-0.020749433260256626,
0.10703241895261846,-0.0199132744534586,
0.10708229426433916,0.014599340687039039,
0.10713216957605985,-0.005559867797149211,
0.10718204488778055,-0.017446360528077257,
0.10723192019950124,-0.012866414845330179,
0.10728179551122194,-0.014330134727560808,
0.10733167082294265,-0.011140078789288892,
0.10738154613466334,0.009824551525679109,
0.10743142144638404,-0.005655460812239933,
0.10748129675810474,-0.013596287905393113,
0.10753117206982543,-0.002859049202574534,
0.10758104738154614,-0.0008131074111007537,
0.10763092269326684,-0.010190319528719557,
0.10768079800498753,-0.019026426777703824,
0.10773067331670823,0.014022262991673652,
0.10778054862842892,-0.03441572591814515,
0.10783042394014962,-0.003919860346366512,
0.10788029925187033,-0.006994424092377719,
0.10793017456359102,-0.013422324670956835,
0.10798004987531172,0.0025296808955939864,
0.10802992518703242,0.004882060691046141,
0.10807980049875311,0.012930370903161176,
0.10812967581047382,-0.027446259580495444,
0.10817955112219452,0.015402721435896294,
0.10822942643391521,0.002485675619344779,
0.10827930174563591,-0.0064967005571091715,
0.1083291770573566,-0.0019076906284897477,
0.1083790523690773,0.002631241204307134,
0.10842892768079801,0.017570326446071566,
0.1084788029925187,-0.020644618939185407,
0.1085286783042394,-0.018732129011599086,
0.1085785536159601,0.008566648072439932,
0.10862842892768079,0.01470945329990188,
0.1086783042394015,-0.007465233744073899,
0.1087281795511222,-0.01233585194061492,
0.1087780548628429,0.0014996274956659862,
0.10882793017456359,0.004105992073196989,
0.10887780548628428,-0.0013865004568448464,
0.108927680798005,-0.030577205144641694,
0.10897755610972569,0.0015751219902574876,
0.10902743142144639,-0.026528452547357133,
0.10907730673316708,-0.004459769095579147,
0.10912718204488778,0.007109485883305008,
0.10917705735660847,-0.008024483405640413,
0.10922693266832918,-0.004832187651985444,
0.10927680798004988,-0.012321441940447844,
0.10932668329177057,0.006084904787132941,
0.10937655860349127,-0.017305487379486013,
0.10942643391521197,0.00511677640289868,
0.10947630922693267,-0.0002366895234915305,
0.10952618453865337,0.013208050798686631,
0.10957605985037407,0.05555904362765164,
0.10962593516209476,0.020498636200044978,
0.10967581047381546,-0.016981492000875436,
0.10972568578553615,-0.008420005828468314,
0.10977556109725686,0.011808208968617187,
0.10982543640897756,0.011542974653427678,
0.10987531172069825,0.012242991614615558,
0.10992518703241895,0.023351644013812643,
0.10997506234413965,0.012087226083622019,
0.11002493765586036,0.011076283578145102,
0.11007481296758105,-0.00794987780852702,
0.11012468827930175,0.018341566914563533,
0.11017456359102244,-0.004500388837070057,
0.11022443890274314,0.027359628736339757,
0.11027431421446383,0.021067144611320664,
0.11032418952618454,-0.0047739715384652204,
0.11037406483790524,0.026788232378754717,
0.11042394014962593,0.011337324299984138,
0.11047381546134663,0.019204152620105705,
0.11052369077306733,-0.00044051385810173725,
0.11057356608478804,0.003129792076547514,
0.11062344139650873,0.014566271883524776,
0.11067331670822943,0.015209151722661126,
0.11072319201995012,0.006385157197574232,
0.11077306733167082,-0.00045644822728147134,
0.11082294264339151,0.03435653362445641,
0.11087281795511222,0.028159436414644017,
0.11092269326683292,-0.003002349575635714,
0.11097256857855362,0.009392748867424482,
0.11102244389027431,0.023328998383110457,
0.111072319201995,0.014352151698044763,
0.11112219451371572,-0.00629334274174588,
0.11117206982543641,0.013578604177111724,
0.11122194513715711,0.001953944993703438,
0.1112718204488778,0.01005246837850884,
0.1113216957605985,0.004616088503383667,
0.11137157107231921,-0.00845532154036497,
0.1114214463840399,0.011846787601121272,
0.1114713216957606,0.030989407150486634,
0.1115211970074813,-0.03360149720951462,
0.11157107231920199,-0.013828377835026405,
0.11162094763092269,0.03115079744472002,
0.1116708229426434,0.014893057861052097,
0.11172069825436409,-0.015728758546735347,
0.11177057356608479,0.021767850102689286,
0.11182044887780548,0.02357715947635735,
0.11187032418952618,-0.004279448096711491,
0.11192019950124689,0.02765306185230177,
0.11197007481296758,0.03459607623962143,
0.11201995012468828,0.02689611042106291,
0.11206982543640898,0.029777809633186898,
0.11211970074812967,-0.00772484785736114,
0.11216957605985037,0.005503133259954255,
0.11221945137157108,0.02146116497683807,
0.11226932668329177,0.010898766213157973,
0.11231920199501247,0.0007698291631889481,
0.11236907730673316,0.024539881574338365,
0.11241895261845386,-0.004429464286919638,
0.11246882793017457,0.05143221275404677,
0.11251870324189527,0.021285228704564948,
0.11256857855361596,0.048895699239283635,
0.11261845386533666,0.030750549588504837,
0.11266832917705735,0.004556105469270738,
0.11271820448877805,0.026929409587751123,
0.11276807980049876,0.026148908353643797,
0.11281795511221945,0.025206525541855828,
0.11286783042394015,0.013929208490593583,
0.11291770573566084,0.04284036951562793,
0.11296758104738154,0.03378040446904356,
0.11301745635910225,0.03515614847125448,
0.11306733167082295,0.026269928311504254,
0.11311720698254364,0.011698632621087722,
0.11316708229426434,0.03722712475865972,
0.11321695760598503,0.003105182158493189,
0.11326683291770574,0.03292856617711145,
0.11331670822942644,0.03955278979105504,
0.11336658354114713,0.0570746806325179,
0.11341645885286783,0.029819789054668918,
0.11346633416458853,0.014883961683829095,
0.11351620947630922,0.0639886730017506,
0.11356608478802993,0.026584878519918385,
0.11361596009975063,0.023198741712183175,
0.11366583541147132,0.03121544871780641,
0.11371571072319202,0.017094506424217518,
0.11376558603491271,0.013199026248339537,
0.11381546134663342,0.023593193641213303,
0.11386533665835412,0.044149848145369264,
0.11391521197007481,0.04678746096895358,
0.11396508728179551,0.05844434515468945,
0.1140149625935162,0.0224476215515299,
0.1140648379052369,0.0068618506878609445,
0.11411471321695761,0.0391996592679121,
0.1141645885286783,0.019479662925358153,
0.114214463840399,0.029178879116503444,
0.1142643391521197,0.01777009737535179,
0.1143142144638404,0.026687508517047008,
0.1143640897755611,0.033527319560756726,
0.1144139650872818,0.0027485749990131293,
0.1144638403990025,0.02367766199474322,
0.11451371571072319,0.04515377886869757,
0.11456359102244389,0.013773454767410471,
0.11461346633416458,0.03098422510080962,
0.11466334164588529,0.03788230907785644,
0.11471321695760599,0.017967104413333386,
0.11476309226932668,0.030220111126906972,
0.11481296758104738,0.040495397560197835,
0.11486284289276807,0.022789618167770326,
0.11491271820448878,0.03747867166021711,
0.11496259351620948,0.03626969446083025,
0.11501246882793018,0.027448747977863713,
0.11506234413965087,0.03846910591334464,
0.11511221945137157,0.021284963094380552,
0.11516209476309226,0.03326064102919595,
0.11521197007481297,0.026534521979393752,
0.11526184538653367,0.021273966513416575,
0.11531172069825436,0.02279198952955356,
0.11536159600997506,0.0214724428670877,
0.11541147132169575,0.03513769143174412,
0.11546134663341646,0.02399781688142551,
0.11551122194513716,0.03640736235396934,
0.11556109725685786,0.04807777524447289,
0.11561097256857855,0.029870253683364482,
0.11566084788029925,0.04061556398091115,
0.11571072319201996,0.03949808146218193,
0.11576059850374065,0.028242487193196275,
0.11581047381546135,0.022949097277201496,
0.11586034912718204,0.016584737882787477,
0.11591022443890274,0.025200440776892985,
0.11596009975062344,0.026960426925425416,
0.11600997506234415,0.029124887598799686,
0.11605985037406484,0.0219163602784075,
0.11610972568578554,0.05654954282980457,
0.11615960099750623,0.0345155511644325,
0.11620947630922693,0.026527014573563056,
0.11625935162094764,-0.0010683211675649278,
0.11630922693266833,0.05418769132005047,
0.11635910224438903,0.009311214558982296,
0.11640897755610972,0.02993097125668577,
0.11645885286783042,0.04408297803330557,
0.11650872817955112,0.022740832821213742,
0.11655860349127183,0.04303806048056205,
0.11660847880299252,0.032404467140281536,
0.11665835411471322,0.005272938812054411,
0.11670822942643391,0.03072331320863347,
0.11675810473815461,0.018914465605486517,
0.11680798004987532,0.023736911828995393,
0.11685785536159601,0.02713976455500923,
0.11690773067331671,0.04479744171916365,
0.1169576059850374,0.027928771127515763,
0.1170074812967581,0.03580424054454547,
0.1170573566084788,0.02743821136784341,
0.1171072319201995,0.03356450639259825,
0.1171571072319202,0.03925173301438652,
0.1172069825436409,0.0121204733959417,
0.1172568578553616,0.034753082894667775,
0.11730673316708229,0.033604111440022094,
0.117356608478803,0.009918585380876607,
0.1174064837905237,0.03687978374577532,
0.11745635910224439,0.01605659122976536,
0.11750623441396509,0.0174390806582542,
0.11755610972568578,0.018309461750137854,
0.11760598503740648,0.04576929753419809,
0.11765586034912719,-4.3040929822019125e-05,
0.11770573566084788,0.021444254699214745,
0.11775561097256858,0.050368755288265454,
0.11780548628428927,0.03620390998085593,
0.11785536159600997,0.0008176550665125702,
0.11790523690773068,0.014982470119119547,
0.11795511221945137,-0.0040443454277663965,
0.11800498753117207,0.01661126382209651,
0.11805486284289277,0.018754347414003374,
0.11810473815461346,0.007397585498216326,
0.11815461346633417,-0.010016230140174418,
0.11820448877805487,0.022905601163743083,
0.11825436408977556,0.031617612680137505,
0.11830423940149626,0.020730939974168833,
0.11835411471321695,-0.0007898945477941427,
0.11840399002493765,0.0038139851451053086,
0.11845386533665836,0.03233644771100149,
0.11850374064837906,0.023910349727025607,
0.11855361596009975,0.03039066092964881,
0.11860349127182045,0.002321869142424165,
0.11865336658354114,0.04411006842110903,
0.11870324189526185,0.02581991321429676,
0.11875311720698255,0.02833196126817135,
0.11880299251870324,0.019309734379528286,
0.11885286783042394,0.03634346697538457,
0.11890274314214463,0.03053140330620491,
0.11895261845386533,0.050380442117266576,
0.11900249376558604,0.010874103269915062,
0.11905236907730674,0.015506200873530968,
0.11910224438902743,0.02698918448924608,
0.11915211970074813,0.01326219488104284,
0.11920199501246882,0.017991758472842127,
0.11925187032418953,0.017005655097432362,
0.11930174563591023,0.012570124737632528,
0.11935162094763092,0.007307276701442386,
0.11940149625935162,0.010063602951691437,
0.11945137157107232,-0.025204341750093315,
0.11950124688279301,0.02272195160931501,
0.11955112219451372,0.0013953400265385631,
0.11960099750623442,1.4280990917919095e-05,
0.11965087281795511,0.015183552217772008,
0.11970074812967581,-0.006217884718818846,
0.1197506234413965,0.015852497443354395,
0.11980049875311721,-0.004410388159928849,
0.11985037406483791,-0.0010379472878600648,
0.1199002493765586,0.019144601533041518,
0.1199501246882793,0.009666850271397241,
0.12,-0.007472958232561272,
0.1200498753117207,0.017642459147442224,
0.1200997506234414,-0.013093586086694095,
0.1201496259351621,0.004775904288095847,
0.12019950124688279,0.013097916101438078,
0.12024937655860349,0.005786331594322963,
0.12029925187032418,0.00777104238982782,
0.1203491271820449,0.015438294813974504,
0.12039900249376559,0.02237049263134478,
0.12044887780548628,0.021961860578551734,
0.12049875311720698,-0.004126838888536856,
0.12054862842892768,-0.004886551694899513,
0.12059850374064839,0.010741133475007155,
0.12064837905236908,0.010344614161961726,
0.12069825436408978,0.001375018534101663,
0.12074812967581047,0.03366490906506694,
0.12079800498753117,0.009987634575961007,
0.12084788029925186,-0.011867943584717464,
0.12089775561097257,-0.00922342812363091,
0.12094763092269327,0.01215426779744282,
0.12099750623441397,-0.00876819432559509,
0.12104738154613466,0.02373653586030957,
0.12109725685785536,0.017809363289151576,
0.12114713216957607,-0.01085216789215936,
0.12119700748129676,0.011858876772661444,
0.12124688279301746,-0.0386052588248149,
0.12129675810473815,0.01731553438484902,
0.12134663341645885,0.026972758545559992,
0.12139650872817954,-0.030152485633164854,
0.12144638403990025,-0.004311115568717455,
0.12149625935162095,-0.016143512510566997,
0.12154613466334165,-0.026100988302556194,
0.12159600997506234,0.024754080413305717,
0.12164588528678304,-0.007468736359944777,
0.12169576059850375,0.005071922297778759,
0.12174563591022444,0.0005571388703670616,
0.12179551122194514,-0.007316446903011021,
0.12184538653366583,0.00011761107843594686,
0.12189526184538653,-0.0024113943446401336,
0.12194513715710723,-0.033713840845534526,
0.12199501246882793,-0.007987760537864583,
0.12204488778054863,0.03274544925595178,
0.12209476309226933,-0.027141242426539536,
0.12214463840399002,-0.012939060588913273,
0.12219451371571072,-0.02260062499342489,
0.12224438902743143,-0.010374952275818434,
0.12229426433915212,-0.007104293741611738,
0.12234413965087282,-0.00505517907222321,
0.12239401496259351,-0.020918462071484296,
0.12244389027431421,-0.03501130991411233,
0.12249376558603492,-0.016578821315172257,
0.12254364089775562,0.0050493992403185355,
0.12259351620947631,-0.020771655724256273,
0.122643391521197,-0.008273593852419322,
0.1226932668329177,-0.01187857814450382,
0.1227431421446384,-0.011800062581542481,
0.12279301745635911,-0.004167022869971622,
0.1228428927680798,-0.013390414841047492,
0.1228927680798005,0.005461891612645655,
0.1229426433915212,0.014689897961863506,
0.12299251870324189,-0.013295523681431849,
0.1230423940149626,0.027177249659181568,
0.1230922693266833,0.00047198704348467863,
0.12314214463840399,-0.01368751816459458,
0.12319201995012469,-0.007088797751670694,
0.12324189526184538,-0.005914321888243455,
0.12329177057356608,-0.02445309496196895,
0.12334164588528679,-0.027267937726254195,
0.12339152119700748,0.005661868647433777,
0.12344139650872818,-0.028456880995884226,
0.12349127182044888,-0.013129090783446654,
0.12354114713216957,0.004908206631541984,
0.12359102244389028,0.015753376498240615,
0.12364089775561098,-0.005615111799375439,
0.12369077306733167,-0.012448010855534365,
0.12374064837905237,-0.009061049276261498,
0.12379052369077306,-0.0011185024894820247,
0.12384039900249376,3.084590232970037e-05,
0.12389027431421447,-0.03548353643746704,
0.12394014962593516,-0.010335127618847452,
0.12399002493765586,-0.00697115911270842,
0.12403990024937656,-0.022520757319865442,
0.12408977556109725,0.0012486388539688434,
0.12413965087281796,-0.012423264308761424,
0.12418952618453866,-0.024323164378502748,
0.12423940149625935,-0.00017258960693215634,
0.12428927680798005,-0.025658552102375633,
0.12433915211970074,-0.02089965521851602,
0.12438902743142144,-0.010907246218111037,
0.12443890274314215,-0.005282088868172495,
0.12448877805486284,-0.011089536898095064,
0.12453865336658354,-0.03160861457873437,
0.12458852867830424,0.004069889711244881,
0.12463840399002493,0.013607907897970424,
0.12468827930174564,-0.023331693612891776,
0.12473815461346634,0.025499431919283572,
0.12478802992518703,-0.012135182409602305,
0.12483790523690773,-0.011959138083093786,
0.12488778054862842,-0.01572845479908071,
0.12493765586034913,-0.04285476511952662,
0.12498753117206983,0.010092035859308969,
0.12503740648379053,-0.034881110896370124,
0.12508728179551123,-0.019666447208971365,
0.12513715710723192,-0.015519102980142183,
0.12518703241895263,-0.0029415189023649004,
0.1252369077306733,-0.031460585702699204,
0.12528678304239402,-0.026985047028453585,
0.1253366583541147,-0.010460154436351364,
0.1253865336658354,-0.006998254083744922,
0.12543640897755612,-0.012475366086836137,
0.1254862842892768,-0.008285669608377956,
0.1255361596009975,-0.017170254647337898,
0.1255860349127182,-0.0033310137646013023,
0.1256359102244389,-0.007116630419538932,
0.1256857855361596,0.0003478064965147607,
0.1257356608478803,0.02586057193097926,
0.125785536159601,-0.010133181204362643,
0.12583541147132168,-0.009220593209085453,
0.1258852867830424,0.022297564407391137,
0.1259351620947631,0.004534494616791356,
0.12598503740648379,0.003306352016516783,
0.1260349127182045,0.006364750909733281,
0.12608478802992518,-0.008013456685878023,
0.1261346633416459,-0.00019021402456681318,
0.1261845386533666,0.007288797483594187,
0.12623441396508728,-0.009528639270228203,
0.126284289276808,-0.015890397832562714,
0.12633416458852867,-0.033339249154115874,
0.12638403990024938,-0.008819932621574125,
0.1264339152119701,-0.02206536877002962,
0.12648379052369077,0.003928323259221305,
0.12653366583541148,-0.00902984524254209,
0.12658354114713216,-0.012232697834310385,
0.12663341645885287,0.011973488738896731,
0.12668329177057355,-0.01710863206243733,
0.12673316708229426,0.00037902934310872494,
0.12678304239401497,0.006072808931793459,
0.12683291770573565,-0.005500611080643649,
0.12688279301745636,-0.033730518840433085,
0.12693266832917705,-0.00976698101850038,
0.12698254364089775,0.006260046835048709,
0.12703241895261846,-0.007381687624650014,
0.12708229426433915,0.020729267557397735,
0.12713216957605986,0.009764536617494709,
0.12718204488778054,0.012056248727036823,
0.12723192019950125,-0.012704414067969056,
0.12728179551122196,0.0027171694987429655,
0.12733167082294264,-0.015270886795071305,
0.12738154613466335,-0.0056522860496128115,
0.12743142144638403,-0.002395908742245424,
0.12748129675810474,0.012449216056545274,
0.12753117206982545,-0.008372650469118684,
0.12758104738154613,-0.005589375700326869,
0.12763092269326684,-0.020423858502670166,
0.12768079800498752,-0.009361205916596737,
0.12773067331670823,-0.009135793850635274,
0.1277805486284289,-0.04643445218944619,
0.12783042394014962,-0.0024821391404375873,
0.12788029925187033,0.011575298362749224,
0.12793017456359101,0.0031514359657458663,
0.12798004987531172,-0.0013691240102399673,
0.1280299251870324,0.010234986088918015,
0.12807980049875312,0.004058278436507751,
0.12812967581047383,-0.000338132413336692,
0.1281795511221945,-0.014939224947761403,
0.12822942643391522,0.006481515062660588,
0.1282793017456359,-0.016051041954836417,
0.1283291770573566,0.005525320269251647,
0.12837905236907732,-0.0011548036278497841,
0.128428927680798,0.011308596444465597,
0.1284788029925187,0.007314412942417787,
0.1285286783042394,0.00032657347351447804,
0.1285785536159601,0.008825682900951865,
0.1286284289276808,0.016011214016889833,
0.1286783042394015,-0.014164481705514076,
0.1287281795511222,0.021488325826893084,
0.12877805486284288,0.0035900279394282092,
0.1288279301745636,0.0009785612386792781,
0.1288778054862843,0.012948967274063295,
0.12892768079800498,0.01810662130758911,
0.1289775561097257,0.02475032489239025,
0.12902743142144638,0.024939355345858553,
0.12907730673316709,0.0003667773862294642,
0.12912718204488777,-0.037575303923056254,
0.12917705735660848,-0.02306516055017671,
0.1292269326683292,0.007029545580893151,
0.12927680798004987,-0.002566208571441267,
0.12932668329177058,-0.024270500909016484,
0.12937655860349126,0.0072775669898287945,
0.12942643391521197,0.010329510195236397,
0.12947630922693268,0.010319157423255844,
0.12952618453865336,0.022112384961644704,
0.12957605985037407,0.00984079675887323,
0.12962593516209475,-0.01468883592050067,
0.12967581047381546,-0.03683261286881317,
0.12972568578553617,0.012336584949773577,
0.12977556109725685,0.032741970910190064,
0.12982543640897756,0.02038954587421369,
0.12987531172069824,0.013858047177574351,
0.12992518703241895,0.044398333437276935,
0.12997506234413966,0.013820946019153516,
0.13002493765586035,0.03235586711175248,
0.13007481296758105,0.030901863110655407,
0.13012468827930174,0.019493692224297823,
0.13017456359102245,0.004626182004034485,
0.13022443890274316,-0.004263005278980108,
0.13027431421446384,0.005025104832301563,
0.13032418952618455,0.003929002108418078,
0.13037406483790523,0.0096177215153208,
0.13042394014962594,-0.004686694187464476,
0.13047381546134662,0.0007271063290550939,
0.13052369077306733,0.01741052180533336,
0.13057356608478804,-0.0031946883000891334,
0.13062344139650872,0.008288420267748429,
0.13067331670822943,0.0522433370474245,
0.1307231920199501,-9.848430834038732e-05,
0.13077306733167082,0.017239951656854595,
0.13082294264339153,-0.008524264530679762,
0.13087281795511221,0.0031378305223193,
0.13092269326683292,0.03572907373272398,
0.1309725685785536,0.007216560728821498,
0.13102244389027431,0.030557343216671785,
0.13107231920199502,0.007069530511312342,
0.1311221945137157,0.036095460412597626,
0.13117206982543642,0.009057333945032513,
0.1312219451371571,0.025494552128997712,
0.1312718204488778,0.00552795901827581,
0.13132169576059852,0.027423418753799243,
0.1313715710723192,0.01092517793919382,
0.1314214463840399,0.018935009610735274,
0.1314713216957606,0.02252363628688632,
0.1315211970074813,0.030383154057081717,
0.13157107231920198,0.04382626686192841,
0.1316209476309227,0.00979937076044673,
0.1316708229426434,0.05056414493848789,
0.13172069825436408,-0.00046768085506461096,
0.1317705735660848,0.004880459290668772,
0.13182044887780547,0.02002071843933707,
0.13187032418952618,0.049672067993063354,
0.1319201995012469,0.032148521955796545,
0.13197007481296757,0.025006147235247574,
0.13201995012468828,0.03964203948345081,
0.13206982543640897,0.024977346045872935,
0.13211970074812968,0.02213833167288479,
0.13216957605985039,0.042548986173253325,
0.13221945137157107,0.022483053933090195,
0.13226932668329178,0.014171764671075037,
0.13231920199501246,0.021898649422413444,
0.13236907730673317,0.03395483616172925,
0.13241895261845388,0.011281591440181264,
0.13246882793017456,0.023371694723265352,
0.13251870324189527,0.01478840320620712,
0.13256857855361595,0.03137304011080268,
0.13261845386533666,0.048732911117309194,
0.13266832917705737,0.03306640134006007,
0.13271820448877805,0.02022507702495676,
0.13276807980049876,0.039146188972079395,
0.13281795511221944,0.03456923079716906,
0.13286783042394015,0.029349077808055537,
0.13291770573566083,0.020302734518372226,
0.13296758104738154,0.025846642718094236,
0.13301745635910225,0.03749871463055448,
0.13306733167082294,0.0011590456392994927,
0.13311720698254365,0.03781856623886639,
0.13316708229426433,0.0531517607666733,
0.13321695760598504,-0.006253261899041178,
0.13326683291770575,0.031339556179876826,
0.13331670822942643,0.022814294322525335,
0.13336658354114714,0.02317008209291798,
0.13341645885286782,0.017755209153909414,
0.13346633416458853,0.03724991218735295,
0.13351620947630924,0.044909410485916165,
0.13356608478802992,0.01743614917137571,
0.13361596009975063,0.01247379797599287,
0.1336658354114713,0.014571696742446474,
0.13371571072319202,0.025513366599378612,
0.13376558603491273,0.00045106615694782276,
0.1338154613466334,0.016254660930353396,
0.13386533665835412,0.009105315208394995,
0.1339152119700748,0.04915494624205642,
0.13396508728179551,0.036159899663804666,
0.1340149625935162,0.025952321925092246,
0.1340648379052369,0.03526196938749299,
0.13411471321695762,0.025536048102203234,
0.1341645885286783,0.027663057480475685,
0.134214463840399,0.021424579740025537,
0.1342643391521197,0.011074121602804299,
0.1343142144638404,0.034975626466634525,
0.1343640897755611,0.04417511657523599,
0.1344139650872818,0.04113113552018827,
0.1344638403990025,0.030582810635165117,
0.13451371571072318,0.021173728505267032,
0.1345635910224439,0.02918267477494528,
0.1346134663341646,0.02676285448895548,
0.13466334164588528,0.03744536635005769,
0.134713216957606,0.03229230782166463,
0.13476309226932667,0.03337581748201609,
0.13481296758104738,0.05215489971618982,
0.1348628428927681,0.0195517309535517,
0.13491271820448877,0.031249458211888834,
0.13496259351620948,0.03313027143465641,
0.13501246882793017,0.055135973070367966,
0.13506234413965088,0.023947586542343316,
0.13511221945137158,0.004514473124246406,
0.13516209476309227,0.03701016053855754,
0.13521197007481298,0.03694025731978515,
0.13526184538653366,0.03516940066749939,
0.13531172069825437,0.00048492746650794297,
0.13536159600997505,0.04038527083130464,
0.13541147132169576,0.04000025209677857,
0.13546134663341647,0.053675518495555186,
0.13551122194513715,0.02483597893371664,
0.13556109725685786,0.019374287504934244,
0.13561097256857854,0.03315918714449769,
0.13566084788029925,0.017505652381542336,
0.13571072319201996,0.030104337988663053,
0.13576059850374064,0.023161748598108767,
0.13581047381546135,0.019731611305141845,
0.13586034912718203,0.0247969630798725,
0.13591022443890274,0.011074224151603106,
0.13596009975062345,0.01142103887518052,
0.13600997506234414,0.04521533536411629,
0.13605985037406484,0.03118441665213543,
0.13610972568578553,0.03374546147811215,
0.13615960099750624,0.021605300864542678,
0.13620947630922695,0.01663097639044873,
0.13625935162094763,0.019270897279256446,
0.13630922693266834,0.03805941062363801,
0.13635910224438902,0.025116711963783546,
0.13640897755610973,0.020301847416884608,
0.1364588528678304,0.03965876049176166,
0.13650872817955112,0.020807415771927056,
0.13655860349127183,0.01492412167398465,
0.1366084788029925,0.019811768466588414,
0.13665835411471322,0.029562629881858746,
0.1367082294264339,0.027382102860119082,
0.1367581047381546,0.01397940872738352,
0.13680798004987532,0.05682845267477776,
0.136857855361596,0.04487617326111443,
0.1369077306733167,0.019287943231099617,
0.1369576059850374,0.048926599546501345,
0.1370074812967581,0.027531110180557275,
0.13705735660847881,0.0070750663158375485,
0.1371072319201995,0.02635092319120093,
0.1371571072319202,0.003996217357504592,
0.1372069825436409,0.02372257199348101,
0.1372568578553616,0.022088272699815465,
0.1373067331670823,0.0426775678436693,
0.137356608478803,0.023960045760855312,
0.1374064837905237,0.05912084608130325,
0.13745635910224438,0.03107212759252566,
0.1375062344139651,0.038692683942270004,
0.1375561097256858,0.04387718523240711,
0.13760598503740648,0.02424704075316056,
0.1376558603491272,0.013849265671888648,
0.13770573566084787,0.043496940800440434,
0.13775561097256858,0.022282378009183954,
0.13780548628428926,0.0287259049696547,
0.13785536159600997,0.030504904584670187,
0.13790523690773068,0.007117090763824975,
0.13795511221945136,0.018003654281088917,
0.13800498753117207,0.02776642401435484,
0.13805486284289276,-0.005729646857125036,
0.13810473815461347,0.02819633718190417,
0.13815461346633418,0.037164234057026596,
0.13820448877805486,0.028928942588576863,
0.13825436408977557,0.03351277302532729,
0.13830423940149625,0.013367281890968741,
0.13835411471321696,-0.0015949598625973303,
0.13840399002493767,0.008182849155132592,
0.13845386533665835,0.003078932596463177,
0.13850374064837906,0.039048781394233664,
0.13855361596009974,0.029808002022228105,
0.13860349127182045,0.026980622923233086,
0.13865336658354116,0.020201814529436406,
0.13870324189526184,0.006440008173990054,
0.13875311720698255,-0.013664140880082862,
0.13880299251870323,0.03840066886005448,
0.13885286783042394,0.025080023968243163,
0.13890274314214462,-0.0015305514262741286,
0.13895261845386533,0.031847576943243444,
0.13900249376558604,0.023998064992764898,
0.13905236907730673,0.016252716739803413,
0.13910224438902744,0.03509942657295661,
0.13915211970074812,0.02015554129293965,
0.13920199501246883,0.0045197180846950225,
0.13925187032418954,0.005501055569104829,
0.13930174563591022,0.004109920320235319,
0.13935162094763093,0.014940337404814524,
0.1394014962593516,0.016248271159833454,
0.13945137157107232,0.01639847890055801,
0.13950124688279303,-0.0057333644437871315,
0.1395511221945137,0.034231024039563254,
0.13960099750623442,-0.004524748201318672,
0.1396508728179551,0.008362177309559425,
0.1397007481296758,-0.0035038669580175087,
0.13975062344139652,-0.0012661624489052371,
0.1398004987531172,-0.006558409753140671,
0.1398503740648379,0.00360719414346769,
0.1399002493765586,0.03886858527901153,
0.1399501246882793,0.005914427882060001,
0.14,0.0027060809289268864,
0.1400498753117207,-0.01408415985047494,
0.1400997506234414,-0.007198750671136183,
0.1401496259351621,0.013933745704377571,
0.1401995012468828,0.010017391665567133,
0.14024937655860348,0.01819833489931911,
0.1402992518703242,0.002687360001543516,
0.1403491271820449,0.0025730550520643705,
0.14039900249376558,-0.01000738645448069,
0.1404488778054863,0.02374434386186817,
0.14049875311720697,0.006489389187590964,
0.14054862842892768,0.014749740307624135,
0.1405985037406484,0.0021719690604542208,
0.14064837905236907,0.035383738511671946,
0.14069825436408978,0.0004321461050265287,
0.14074812967581046,0.016362209431251468,
0.14079800498753117,0.009652968473008783,
0.14084788029925188,-0.009780226409464134,
0.14089775561097256,0.017230518106546616,
0.14094763092269327,-0.013762792933217393,
0.14099750623441396,-0.016437447713707816,
0.14104738154613466,0.013431625214963144,
0.14109725685785537,0.017083509704491906,
0.14114713216957606,-0.009741913292558566,
0.14119700748129677,-0.011415896510376698,
0.14124688279301745,0.0131018728662184,
0.14129675810473816,0.0026221177480903342,
0.14134663341645887,-0.013609967666685619,
