time,amplitude,label
0.0,0.03046607025013539,
4.987531172069826e-05,0.0013398603964752814,
9.975062344139652e-05,0.023123281346734772,
0.00014962593516209475,0.030144018605089785,
0.00019950124688279303,0.008702455040652162,
0.00024937655860349125,0.028407689041209744,
0.0002992518703241895,0.023145558166778987,
0.00034912718204488776,0.02346269221767534,
0.00039900249376558606,0.03751920115439125,
0.0004488778054862843,0.016737241668040498,
0.0004987531172069825,-0.003925775085646541,
0.0005486284289276808,0.015585157601855509,
0.000598503740648379,0.03337513130240153,
0.0006483790523690773,0.0239513929472161,
0.0006982543640897755,0.02515707884568897,
0.0007481296758104738,0.01787032918193072,
0.0007980049875311721,0.02185481326913791,
0.0008478802992518703,-0.002418042384395233,
0.0008977556109725686,0.015656500147279772,
0.0009476309226932668,0.01329499328398612,
0.000997506234413965,0.033640635169247576,
0.0010473815461346633,0.05206859277793444,
0.0010972568578553616,0.030233150810514437,
0.00114713216957606,0.002661531500923079,
0.001197007481296758,0.03126751162413817,
0.0012468827930174563,0.03997323047955276,
0.0012967581047381546,0.02926468296511906,
0.001346633416458853,0.015399172708807302,
0.001396508728179551,0.027885731384237084,
0.0014463840399002493,0.02470443290607764,
0.0014962593516209476,0.016831241627934285,
0.001546134663341646,0.04131435037161752,
0.0015960099750623442,0.03925575654678702,
0.0016458852867830423,0.03599267348219777,
0.0016957605985037406,0.030736980781280558,
0.001745635910224439,0.015883883896279986,
0.0017955112219451373,0.021329231197377164,
0.0018453865336658353,0.025289864996972205,
0.0018952618453865336,0.024774530864385344,
0.001945137157107232,0.03527515158932496,
0.00199501246882793,0.009648221023576837,
0.0020448877805486283,0.01930090820924626,
0.0020947630922693266,0.018271772312681525,
0.002144638403990025,0.004636513982999146,
0.0021945137157107233,-0.009050647963370406,
0.0022443890274314216,0.028275916654296858,
0.00229426433915212,0.0023318954882539152,
0.0023441396508728177,0.02176123242154128,
0.002394014962593516,0.0003643663423824519,
0.0024438902743142144,0.023674878739081452,
0.0024937655860349127,0.021079062068051692,
0.002543640897755611,0.03478558857418552,
0.0025935162094763093,0.04932320135548888,
0.0026433915211970076,0.015478773703835368,
0.002693266832917706,0.0056180597305293106,
0.002743142144638404,0.017608750678596713,
0.002793017456359102,0.021620134770194775,
0.0028428927680798004,0.009733107791989602,
0.0028927680798004987,0.027628806185175256,
0.002942643391521197,0.0038376113570550187,
0.0029925187032418953,0.007127492655402766,
0.0030423940149625936,-0.007733244154147622,
0.003092269326683292,0.015488172410369998,
0.00314214463840399,0.04181918619099194,
0.0031920199501246885,0.011588398900210134,
0.0032418952618453864,-0.002268940537909731,
0.0032917705735660847,0.008357344126864945,
0.003341645885286783,0.023269810731108467,
0.0033915211970074813,0.003831597943958204,
0.0034413965087281796,0.02128138126627783,
0.003491271820448878,-0.02132557992363902,
0.003541147132169576,-0.0031185670473274814,
0.0035910224438902745,0.016346312760902763,
0.0036408977556109724,-0.023435186402308007,
0.0036907730673316707,0.00044364772042985827,
0.003740648379052369,0.0037155679298263656,
0.0037905236907730673,-0.006944583373441554,
0.0038403990024937656,0.012285977517149195,
0.003890274314214464,0.0026399846254137526,
0.003940149625935162,-0.0017526351370217791,
0.00399002493765586,0.002950316996391783,
0.004039900249376558,-0.012333694823914394,
0.004089775561097257,-0.0030221031390575623,
0.004139650872817955,-0.007752264680456471,
0.004189526184538653,-0.003569956569273766,
0.004239401496259352,0.0212359847541866,
0.00428927680798005,0.021863457334491736,
0.004339152119700748,0.022228760038066456,
0.0043890274314214465,-0.015566865602728745,
0.004438902743142145,0.024145104116463804,
0.004488778054862843,0.0157073274948333,
0.004538653366583541,-0.007174675099382641,
0.00458852867830424,0.01786019647204349,
0.004638403990024938,0.01583984112759908,
0.0046882793017456355,0.009635089746330951,
0.004738154613466334,-0.011579813349555962,
0.004788029925187032,-0.010235233827606676,
0.00483790523690773,0.021510320361804405,
0.004887780548628429,-0.003372136580323,
0.004937655860349127,0.008892908962243056,
0.004987531172069825,-0.021787130357711224,
0.005037406483790524,0.0028636480016670067,
0.005087281795511222,0.0019751473616686217,
0.00513715710723192,0.001302711522194776,
0.0051870324189526185,-0.026701159453470756,
0.005236907730673317,0.011140474613855691,
0.005286783042394015,-0.008342670571780644,
0.0053366583541147134,-0.00886633315513742,
0.005386533665835412,-0.0023640775069174087,
0.00543640897755611,0.003194468057244618,
0.005486284289276808,-0.012695832522032047,
0.005536159600997507,-0.031138847471411994,
0.005586034912718204,-0.013345722589668174,
0.005635910224438902,-0.012576592572486223,
0.005685785536159601,0.013007715058657502,
0.005735660847880299,0.012034512484368362,
0.005785536159600997,0.0007267365055107092,
0.005835411471321696,-0.005334641165853185,
0.005885286783042394,0.014263706064619746,
0.005935162094763092,0.005355865833830227,
0.0059850374064837905,-0.02378779314819413,
0.006034912718204489,0.013404432972151012,
0.006084788029925187,0.018440134543922994,
0.0061346633416458855,0.0010884427757144764,
0.006184538653366584,-0.004686959983947956,
0.006234413965087282,-0.012267216790664552,
0.00628428927680798,-0.044157422252479615,
0.006334164588528679,-0.01249687713462054,
0.006384039900249377,-0.029528681347713928,
0.006433915211970074,0.0023967412643429538,
0.006483790523690773,0.010664113884908464,
0.006533665835411471,0.014286735916050798,
0.006583541147132169,-0.004060562532747549,
0.006633416458852868,-0.021187565217283877,
0.006683291770573566,0.009824674778407542,
0.006733167082294264,-0.023232844110996125,
0.0067830423940149626,-0.0004450390813719573,
0.006832917705735661,-0.01371755327837016,
0.006882793017456359,-0.03133843929103769,
0.0069326683291770575,-0.005400743036546121,
0.006982543640897756,-0.008541411175539967,
0.007032418952618454,-0.05064216113533765,
0.007082294264339152,-0.013156063513737482,
0.007132169576059851,-0.003713527190995796,
0.007182044887780549,-0.017123832774067045,
0.007231920199501247,-0.010772310582705408,
0.007281795511221945,-0.027569961631706524,
0.007331670822942643,0.004314739253285259,
0.007381546134663341,-0.0014712587921728807,
0.00743142144638404,-0.02661654758461472,
0.007481296758104738,0.005661144155953651,
0.007531172069825436,-0.020168923429780303,
0.007581047381546135,0.015096044232590845,
0.007630922693266833,-0.01311336431075188,
0.007680798004987531,-0.026436173830685583,
0.0077306733167082295,-0.018221209325623457,
0.007780548628428928,-0.028433212639179944,
0.007830423940149626,-0.023433568728726557,
0.007880299251870324,0.008676648584912725,
0.007930174563591023,-0.006333651377298334,
0.00798004987531172,-0.013647824994709738,
0.00802992518703242,-0.023441587078740396,
0.008079800498753117,-0.0029432538199252924,
0.008129675810473816,-0.024339721467812873,
0.008179551122194513,-0.02592509774929819,
0.008229426433915213,-0.008404263327173086,
0.00827930174563591,-0.007455352683429341,
0.00832917705735661,-0.011553412102462482,
0.008379052369077307,-0.02462653586902304,
0.008428927680798006,-0.020690215900279238,
0.008478802992518703,-0.00943520492128343,
0.0085286783042394,0.010917121666429972,
0.0085785536159601,-0.031198082905042265,
0.008628428927680797,-0.014509851123263834,
0.008678304239401496,-0.013557572205602178,
0.008728179551122194,0.00389526803721333,
0.008778054862842893,-0.012361778469377761,
0.00882793017456359,-0.028646536673405443,
0.00887780548628429,0.0027409421946816698,
0.008927680798004987,-0.001959376997825401,
0.008977556109725686,-0.0030230614239094445,
0.009027431421446384,-0.01158751530634555,
0.009077306733167083,-0.03495802203735936,
0.00912718204488778,-0.002629387436203747,
0.00917705735660848,-0.02016714566237724,
0.009226932668329177,-0.045240986096973086,
0.009276807980049876,-0.03297474783845028,
0.009326683291770574,-0.02047649371460793,
0.009376558603491271,-0.013355069624352574,
0.00942643391521197,-0.008189851982888513,
0.009476309226932668,-0.019811419968972097,
0.009526184538653367,-0.028841607223999637,
0.009576059850374064,0.010803580523956302,
0.009625935162094763,-0.011416462448044585,
0.00967581047381546,-0.000254048743927017,
0.00972568578553616,-0.024547959692531814,
0.009775561097256857,-0.013690237394485487,
0.009825436408977557,-0.004063386258031524,
0.009875311720698254,0.013868086732137793,
0.009925187032418953,0.0005585243764141615,
0.00997506234413965,-0.005688798365684597,
0.01002493765586035,-0.016691222849846657,
0.010074812967581047,-0.012034064055609667,
0.010124688279301746,0.001069604927119279,
0.010174563591022444,-0.012912618395117197,
0.010224438902743141,-0.042364669989201936,
0.01027431421446384,-0.024555812849134693,
0.010324189526184538,-0.03918226046367754,
0.010374064837905237,-0.006200503518258604,
0.010423940149625935,-0.023690562669170336,
0.010473815461346634,-0.0162734262152745,
0.010523690773067331,-0.0073368296140178275,
0.01057356608478803,-0.017257990285702823,
0.010623441396508728,-0.03039843593637992,
0.010673316708229427,-0.010252944639144747,
0.010723192019950124,-0.016556149059981543,
0.010773067331670824,-0.03407052726457353,
0.010822942643391521,-0.008875748730277395,
0.01087281795511222,-0.03877779484815485,
0.010922693266832918,-0.01750454022518277,
0.010972568578553617,-0.016193793798598505,
0.011022443890274314,-0.028368550403321216,
0.011072319201995013,-0.03974281280570141,
0.01112219451371571,-0.0003668821441256964,
0.011172069825436408,-0.0007657787761094666,
0.011221945137157107,-0.03481037772973372,
0.011271820448877805,-0.042392846032237516,
0.011321695760598504,0.0008687481899026933,
0.011371571072319201,-0.023505885729770103,
0.0114214463840399,-0.02421667254051588,
0.011471321695760598,-0.008713024719302864,
0.011521197007481297,-0.022674232537214657,
0.011571072319201995,0.004406076242191727,
0.011620947630922694,-0.020185482947477202,
0.011670822942643391,-0.03399542098729872,
0.01172069825436409,-0.014018814722949585,
0.011770573566084788,-0.03698066720496332,
0.011820448877805487,-0.023367974313141034,
0.011870324189526184,-0.007366383434908801,
0.011920199501246884,-0.04242479916581624,
0.011970074812967581,-0.01308116134519301,
0.012019950124688279,-0.013525143235582966,
0.012069825436408978,-0.027873218957464724,
0.012119700748129675,-0.0233754721085778,
0.012169576059850374,-0.028604972794288107,
0.012219451371571072,-0.03859086569680225,
0.012269326683291771,-0.012594022537521114,
0.012319201995012468,-0.003094295022318616,
0.012369077306733168,-0.009792941141163029,
0.012418952618453865,0.016805123328645005,
0.012468827930174564,0.0075992875533291565,
0.012518703241895262,-0.010058498809312755,
0.01256857855361596,-0.008497387556529849,
0.012618453865336658,-0.012243046810237732,
0.012668329177057357,-0.017409829438085903,
0.012718204488778055,-0.014807127145932658,
0.012768079800498754,0.003587449891698369,
0.012817955112219451,0.012526567211174547,
0.012867830423940149,-0.02009436308523181,
0.012917705735660848,-0.03579666925828178,
0.012967581047381545,0.0016471334471517413,
0.013017456359102245,7.870355708527489e-05,
0.013067331670822942,-0.009993775725006277,
0.013117206982543641,-0.015065534077842915,
0.013167082294264339,-0.010333422628034923,
0.013216957605985038,-0.01414258701014563,
0.013266832917705735,-0.005201538150556553,
0.013316708229426434,-0.007344051812775579,
0.013366583541147132,-0.01299611051732045,
0.013416458852867831,0.02310676513188765,
0.013466334164588529,-0.004896591080292357,
0.013516209476309228,0.007054945072936717,
0.013566084788029925,-0.00963872809001148,
0.013615960099750624,-0.022712795318004547,
0.013665835411471322,-0.018102090638000612,
0.01371571072319202,-0.02559493553240632,
0.013765586034912718,-0.014124999778640639,
0.013815461346633416,-0.010366608141211405,
0.013865336658354115,-0.0033197807803419664,
0.013915211970074812,-0.006155687600835112,
0.013965087281795512,0.006793834722163087,
0.014014962593516209,-0.00330927777737329,
0.014064837905236908,-0.02627900135957268,
0.014114713216957606,-0.010595082304209861,
0.014164588528678305,0.013105774410265475,
0.014214463840399002,-0.008102083241719604,
0.014264339152119701,-0.004468681712651034,
0.014314214463840399,0.0033820997891045833,
0.014364089775561098,0.015495240850829258,
0.014413965087281795,-0.020562143660786646,
0.014463840399002495,-0.014647219518351282,
0.014513715710723192,-0.022833958905049204,
0.01456359102244389,0.023205055719374357,
0.014613466334164589,-0.010285541795871975,
0.014663341645885286,-0.025150117404842784,
0.014713216957605985,-0.03180751983519628,
0.014763092269326683,-0.005256185016671129,
0.014812967581047382,0.011901664792356706,
0.01486284289276808,0.013281335657512312,
0.014912718204488778,-0.028872366187686738,
0.014962593516209476,0.006665626413698405,
0.015012468827930175,-0.016496670853001022,
0.015062344139650873,0.008262445823565539,
0.015112219451371572,-0.010964799171359063,
0.01516209476309227,-0.002558658475385123,
0.015211970074812968,-0.011964415093021513,
0.015261845386533666,-0.008855104179288418,
0.015311720698254365,-0.01257915288278174,
0.015361596009975062,-0.005759796317499347,
0.01541147132169576,-0.02082246636927453,
0.015461346633416459,-0.005981409560077864,
0.015511221945137156,0.01041619818725567,
0.015561097256857856,-0.010024472907793196,
0.015610972568578553,-0.008733730778549461,
0.015660847880299252,0.0016547921174214098,
0.01571072319201995,0.018872443341518764,
0.015760598503740647,0.006826555013472386,
0.015810473815461346,-0.001369300451769806,
0.015860349127182045,0.012880419846033121,
0.015910224438902745,0.01421537375429648,
0.01596009975062344,0.01801801330524236,
0.01600997506234414,0.022582114632114122,
0.01605985037406484,0.008100947990242635,
0.016109725685785538,-0.0020145901735238473,
0.016159600997506234,0.01933852277269497,
0.016209476309226933,-0.00102658978360534,
0.016259351620947632,-0.006478067607730157,
0.016309226932668328,-0.004342058596995038,
0.016359102244389027,0.002198989502525669,
0.016408977556109726,0.00621904849326627,
0.016458852867830425,0.01912068711306096,
0.01650872817955112,0.02767211578239905,
0.01655860349127182,0.00731679573967177,
0.01660847880299252,0.007878350110434112,
0.01665835411471322,0.040063459204179586,
0.016708229426433914,0.0163708298418018,
0.016758104738154613,-0.0020682583597345077,
0.016807980049875312,0.015067206351715543,
0.01685785536159601,0.04589819750097539,
0.016907730673316707,0.018669879691993005,
0.016957605985037406,0.004551358874449868,
0.017007481296758106,-0.016407728123870313,
0.0170573566084788,-0.028752962949899964,
0.0171072319201995,0.013291638414999703,
0.0171571072319202,0.020318562884711917,
0.0172069825436409,0.028968147369278628,
0.017256857855361595,0.015883065341738285,
0.017306733167082294,0.04658429259143146,
0.017356608478802993,-0.002509983249319921,
0.017406483790523692,3.4049004693335536e-05,
0.017456359102244388,0.0062534039807786174,
0.017506234413965087,0.006487337845232633,
0.017556109725685786,0.020052123153412697,
0.017605985037406485,0.021132804580528554,
0.01765586034912718,-0.0017686238607615493,
0.01770573566084788,0.02045722953996633,
0.01775561097256858,0.012038055828049926,
0.01780548628428928,0.012403971101600398,
0.017855361596009974,0.016234612552779693,
0.017905236907730673,0.02503428628104136,
0.017955112219451373,0.01580586463274829,
0.018004987531172068,0.03340941150665074,
0.018054862842892767,0.021790459190292454,
0.018104738154613467,0.006594639942376336,
0.018154613466334166,0.029678019593767414,
0.01820448877805486,0.028196550805062486,
0.01825436408977556,0.016199917597462647,
0.01830423940149626,-0.001992605744799633,
0.01835411471321696,0.025200043022888013,
0.018403990024937655,0.05320444839804135,
0.018453865336658354,0.01513713053689076,
0.018503740648379053,0.025422540903863384,
0.018553615960099752,0.04051565800854806,
0.018603491271820448,0.02771275230724098,
0.018653366583541147,0.019712211641470783,
0.018703241895261846,0.008901686998985291,
0.018753117206982542,0.03139304707230223,
0.01880299251870324,0.00012422517867089963,
0.01885286783042394,0.024331037303664795,
0.01890274314214464,-0.005991171222425502,
0.018952618453865335,0.04622491739573258,
0.019002493765586034,0.05706687588148543,
0.019052369077306733,0.013908728975716019,
0.019102244389027433,0.04409797322776683,
0.01915211970074813,0.010959509829984698,
0.019201995012468828,0.0210631988108583,
0.019251870324189527,0.03669217532770769,
0.019301745635910226,0.012068010653817424,
0.01935162094763092,0.026950606358630492,
0.01940149625935162,0.022233459167471454,
0.01945137157107232,0.005412087297472036,
0.01950124688279302,0.03310976751817869,
0.019551122194513715,0.04305724565553568,
0.019600997506234414,0.05842895008211139,
0.019650872817955113,0.05099102127122634,
0.01970074812967581,0.02684361940864811,
0.019750623441396508,0.03202508192245338,
0.019800498753117207,0.02222557653963572,
0.019850374064837906,0.045084683400840736,
0.019900249376558602,0.01546654674197109,
0.0199501246882793,0.007782648001888055,
0.02,0.018261261718919217,
0.0200498753117207,0.01329820473055189,
0.020099750623441395,0.00553537685443278,
0.020149625935162094,0.027725706032353664,
0.020199501246882794,0.0010810116209442472,
0.020249376558603493,0.05068526169733652,
0.02029925187032419,0.02632704453196222,
0.020349127182044888,0.01616790735349064,
0.020399002493765587,0.025453706634151873,
0.020448877805486283,0.010022369841896316,
0.02049875311720698,-0.007494037613578607,
0.02054862842892768,0.03712210471711034,
0.02059850374064838,0.039395101137518616,
0.020648379052369076,0.020018136660210368,
0.020698254364089775,0.0524808161074678,
0.020748129675810474,0.01411125550353516,
0.020798004987531173,0.01140647694479325,
0.02084788029925187,0.026978988753487875,
0.020897755610972568,0.017361163527500858,
0.020947630922693267,0.02091001236724982,
0.020997506234413967,0.005440482175453213,
0.021047381546134662,0.037719494130626946,
0.02109725685785536,0.014780717707916112,
0.02114713216957606,0.0040216406030325405,
0.02119700748129676,0.0038157719745113214,
0.021246882793017455,0.011013392845704757,
0.021296758104738155,0.019890421020587638,
0.021346633416458854,-0.01486723069548701,
0.02139650872817955,0.007794385081046297,
0.02144638403990025,0.0038024291225369176,
0.021496259351620948,0.05625200021252444,
0.021546134663341647,0.031697657435418934,
0.021596009975062343,0.044135484802858366,
0.021645885286783042,0.029134938197022106,
0.02169576059850374,0.03321998351054592,
0.02174563591022444,0.03775961505377359,
0.021795511221945136,0.027547295946840463,
0.021845386533665835,0.04753203154102757,
0.021895261845386534,-0.002296993995626405,
0.021945137157107233,-0.005625151966035698,
0.02199501246882793,0.03898102130018645,
0.02204488778054863,0.030151654351550986,
0.022094763092269327,0.03166615914896048,
0.022144638403990027,0.011767156620263688,
0.022194513715710722,0.019266923688843446,
0.02224438902743142,0.009800418405937764,
0.02229426433915212,0.024728985907724314,
0.022344139650872816,0.0002522040200542454,
0.022394014962593516,0.026853025455513393,
0.022443890274314215,0.015036948604837095,
0.022493765586034914,0.022061581080565072,
0.02254364089775561,0.007449281642874872,
0.02259351620947631,0.008831901765529716,
0.022643391521197008,0.02680911165798515,
0.022693266832917707,0.021996161693100712,
0.022743142144638403,0.03582506910550172,
0.022793017456359102,0.030529876950332952,
0.0228428927680798,0.0017528436661395311,
0.0228927680798005,0.025224926040737866,
0.022942643391521196,0.04542398007193199,
0.022992518703241895,-0.0006192161438674723,
0.023042394014962594,0.02443375120493086,
0.02309226932668329,0.03303177041186291,
0.02314214463840399,0.029999670678059094,
0.02319201995012469,0.04289839273769972,
0.023241895261845388,-0.012418321701655747,
0.023291770573566083,0.026320775279412963,
0.023341645885286783,0.02198918865512202,
0.02339152119700748,0.029816138949299683,
0.02344139650872818,0.010366075683274679,
0.023491271820448877,0.043959663502095764,
0.023541147132169576,-0.002880127197772227,
0.023591022443890275,-0.011306375577407898,
0.023640897755610974,0.02022530677741976,
0.02369077306733167,-0.0028283692139757285,
0.02374064837905237,0.010090937271030765,
0.023790523690773068,0.023191877239242133,
0.023840399002493767,-0.011564265687640293,
0.023890274314214463,0.014786807135674889,
0.023940149625935162,0.007416963898726167,
0.02399002493765586,0.0165580209308989,
0.024039900249376557,0.00962400629480394,
0.024089775561097256,0.007817396195717185,
0.024139650872817955,-0.003716684075918098,
0.024189526184538655,-0.0018074054654306365,
0.02423940149625935,0.013024978102753496,
0.02428927680798005,-0.005963999733740221,
0.02433915211970075,-0.009321691912046673,
0.024389027431421448,0.008810859109647224,
0.024438902743142144,-0.004908673224575121,
0.024488778054862843,-0.031244222157517633,
0.024538653366583542,-0.033149535808971266,
0.02458852867830424,0.02207462736275904,
0.024638403990024937,0.02877505689551767,
0.024688279301745636,0.016664181379744014,
0.024738154613466335,0.019602913876635836,
0.02478802992518703,0.003020009026379613,
0.02483790523690773,-0.002150386654881558,
0.02488778054862843,0.02143214189853976,
0.02493765586034913,-0.026172067537026663,
0.024987531172069824,0.0019083628037133353,
0.025037406483790523,-0.018939224137861928,
0.025087281795511222,0.0052003968642474925,
0.02513715710723192,0.014339042961108734,
0.025187032418952617,0.00475050737027293,
0.025236907730673316,0.02536647759463281,
0.025286783042394016,0.019822089237838125,
0.025336658354114715,-0.03260388081802245,
0.02538653366583541,-0.03202438460827779,
0.02543640897755611,-0.0017278160809302719,
0.02548628428927681,0.004912261404838641,
0.025536159600997508,0.021484159662337778,
0.025586034912718204,0.020368294364786693,
0.025635910224438903,-0.023086800220779646,
0.025685785536159602,-0.006610004939009258,
0.025735660847880298,-0.004677988373056337,
0.025785536159600997,-0.008066369429180964,
0.025835411471321696,-0.025444557962598868,
0.025885286783042395,-0.005855638450639153,
0.02593516209476309,0.013571017201152273,
0.02598503740648379,-0.0027981737993214,
0.02603491271820449,-0.007785181475118141,
0.02608478802992519,0.013957549643755184,
0.026134663341645884,-0.01711360248214401,
0.026184538653366583,-0.0023496781642512042,
0.026234413965087282,-0.007243756231828181,
0.02628428927680798,-0.009566396481235192,
0.026334164588528677,-0.026117592556536846,
0.026384039900249377,0.030872385377494045,
0.026433915211970076,-0.03074755975097288,
0.02648379052369077,0.013616176925311183,
0.02653366583541147,-0.012271712779805113,
0.02658354114713217,-0.01626392844707665,
0.02663341645885287,-0.009585027361090603,
0.026683291770573565,0.012492646745414263,
0.026733167082294264,-0.023176244107636017,
0.026783042394014963,0.017437462962545905,
0.026832917705735662,-0.017559106392288713,
0.026882793017456358,-0.03046049627476699,
0.026932668329177057,0.004806037460371981,
0.026982543640897756,-0.03042275257283179,
0.027032418952618455,-0.019421361948362175,
0.02708229426433915,-0.01140503041815988,
0.02713216957605985,0.02220943951387332,
0.02718204488778055,-0.013233533243579029,
0.02723192019950125,0.0009544933655825441,
0.027281795511221944,-0.045075423261897285,
0.027331670822942643,-0.013756681358009034,
0.027381546134663343,-0.025618556389307018,
0.02743142144638404,0.011178707390799222,
0.027481296758104738,-0.010415497377447507,
0.027531172069825437,-0.018685512750605798,
0.027581047381546136,-0.016931761544899754,
0.02763092269326683,-0.0017868453917151503,
0.02768079800498753,-0.016982160663720283,
0.02773067331670823,-0.007861441769530946,
0.02778054862842893,-0.010741080910554876,
0.027830423940149625,-0.006260000796063574,
0.027880299251870324,-0.013467112662528521,
0.027930174563591023,-0.01477145094709072,
0.027980049875311722,-0.012011075988460764,
0.028029925187032418,-0.006840276701266643,
0.028079800498753117,-0.042951379323310064,
0.028129675810473816,-0.03594804430987251,
0.028179551122194512,-0.041031018562706585,
0.02822942643391521,-0.01993141308776518,
0.02827930174563591,-0.018019181266922063,
0.02832917705735661,-0.026679640384467556,
0.028379052369077305,-0.026026231639246916,
0.028428927680798004,-0.02674957251317507,
0.028478802992518704,-0.03452755048556551,
0.028528678304239403,-0.016895666465064837,
0.0285785536159601,-0.02424378257399314,
0.028628428927680798,-0.02532282536816844,
0.028678304239401497,-0.018299886999615073,
0.028728179551122196,-0.05374897162706295,
0.02877805486284289,-0.015918439813246293,
0.02882793017456359,-0.009492287185821718,
0.02887780548628429,-0.02077998451954741,
0.02892768079800499,-0.01255652614648961,
0.028977556109725685,-0.019970431773748278,
0.029027431421446384,0.0026282121223753785,
0.029077306733167083,-0.014571282240094225,
0.02912718204488778,-0.0011843194426660528,
0.029177057356608478,-0.03351798767115564,
0.029226932668329177,-0.004094386054364994,
0.029276807980049877,-0.010854464663723626,
0.029326683291770572,-0.02826352236079769,
0.02937655860349127,-0.008379878613827194,
0.02942643391521197,-0.0018634001529718048,
0.02947630922693267,-0.0239183829010832,
0.029526184538653365,-0.0022724479584090036,
0.029576059850374065,-0.03738742754045862,
0.029625935162094764,0.0032882762949079346,
0.029675810473815463,-0.017667017786018615,
0.02972568578553616,-0.0006235916504081368,
0.029775561097256858,-0.03834161145295416,
0.029825436408977557,-0.005395746626639978,
0.029875311720698253,-0.04334495503000337,
0.029925187032418952,-0.01416230092017207,
0.02997506234413965,-0.01156699179581804,
0.03002493765586035,-0.00624608191913068,
0.030074812967581046,-0.05273809270674483,
0.030124688279301745,0.0007166242580955787,
0.030174563591022444,-0.019477510288725658,
0.030224438902743143,-0.017322990432527736,
0.03027431421446384,0.007609727311383489,
0.03032418952618454,-0.018884307931581915,
0.030374064837905237,-0.047316561862153814,
0.030423940149625937,0.00021887758285552353,
0.030473815461346632,-0.01689277100445214,
0.03052369077306733,-0.01643999443359018,
0.03057356608478803,-0.006187362383646214,
0.03062344139650873,-0.014990807163434344,
0.030673316708229426,-0.02445632575112469,
0.030723192019950125,-0.024271753537652787,
0.030773067331670824,-0.0023495870926863276,
0.03082294264339152,0.008628850312119015,
0.03087281795511222,-0.006002536572408717,
0.030922693266832918,0.0011940121043719325,
0.030972568578553617,-0.00860108978275325,
0.031022443890274313,-0.028388676251439718,
0.031072319201995012,-0.002310485719471315,
0.03112219451371571,-0.0031885810330103802,
0.03117206982543641,-0.03309466447908796,
0.031221945137157106,0.0015535858571842955,
0.03127182044887781,-0.004652225126518309,
0.031321695760598504,-0.03254957198943991,
0.0313715710723192,-0.013162405926329453,
0.0314214463840399,-0.027257738569118,
0.0314713216957606,-0.012838060634052621,
0.031521197007481294,-0.0568155244646928,
0.031571072319202,-0.023471213658299142,
0.03162094763092269,-0.003092283939624232,
0.03167082294264339,-0.013275080688859693,
0.03172069825436409,0.005303671658679319,
0.03177057356608479,-0.0021812829162045633,
0.03182044887780549,-0.009733828042252982,
0.031870324189526185,-0.02037676684183983,
0.03192019950124688,-0.017025093018970625,
0.03197007481296758,0.009046296658134246,
0.03201995012468828,-0.033670374775424505,
0.032069825436408975,-0.007971846354925564,
0.03211970074812968,0.004066283631869828,
0.03216957605985037,-0.01022345227039088,
0.032219451371571076,-0.004687486750787492,
0.03226932668329177,-0.018797930435260745,
0.03231920199501247,-0.03392525892224831,
0.03236907730673317,-0.02641796488946842,
0.032418952618453865,-0.028743004401456534,
0.03246882793017456,-0.011072185355086113,
0.032518703241895264,-0.0021809744627088404,
0.03256857855361596,-0.03229340756422731,
0.032618453865336655,-0.021740478944341078,
0.03266832917705736,0.020188547572584856,
0.032718204488778053,-0.01643304549967929,
0.032768079800498756,0.004705186924796954,
0.03281795511221945,-0.0015320627433193356,
0.03286783042394015,1.171291624903377e-05,
0.03291770573566085,-0.02803345093116439,
0.032967581047381546,-0.029979906626168715,
0.03301745635910224,-0.038574512233441424,
0.033067331670822944,-0.00035970270871904866,
0.03311720698254364,0.00013120295127943236,
0.03316708229426434,-0.01234291028747406,
0.03321695760598504,0.008235740025960992,
0.033266832917705734,-0.013152000452227766,
0.03331670822942644,0.022833353474916773,
0.03336658354114713,-0.038651354010246594,
0.03341645885286783,-0.02294526630157176,
0.03346633416458853,-0.022853020277480512,
0.033516209476309226,-0.012363711709215975,
0.03356608478802992,0.014880193420401738,
0.033615960099750625,0.004746170676484746,
0.03366583541147132,-0.016955349322670402,
0.03371571072319202,0.004620054131517771,
0.03376558603491272,-0.014379621098908866,
0.033815461346633414,-0.006182612807575393,
0.03386533665835412,-0.009075754524778143,
0.03391521197007481,-0.006958795931817769,
0.03396508728179551,-0.008838165239661733,
0.03401496259351621,0.004729346149485962,
0.03406483790523691,0.0018298654326038663,
0.0341147132169576,0.008608836640493864,
0.034164588528678305,0.004209808958435716,
0.034214463840399,-0.0036663257153012946,
0.034264339152119704,-0.0007684185620361013,
0.0343142144638404,-0.01084532114106079,
0.034364089775561095,-0.023283275767128884,
0.0344139650872818,-0.008091838452248892,
0.03446384039900249,0.00471602478485142,
0.03451371571072319,-0.0009539191787199284,
0.03456359102244389,0.02146758343745552,
0.03461346633416459,-0.0167700345675482,
0.03466334164588529,-0.016161568457781283,
0.034713216957605986,-0.01714365781018515,
0.03476309226932668,-0.000853880847385785,
0.034812967581047384,-0.012910422851472394,
0.03486284289276808,0.010351831396699818,
0.034912718204488775,-0.008907528375353219,
0.03496259351620948,0.010708591146807146,
0.035012468827930174,0.01152782086379155,
0.03506234413965087,-0.003333821854157512,
0.03511221945137157,0.012502531480589297,
0.03516209476309227,0.009728775087986983,
0.03521197007481297,0.008548785752869948,
0.035261845386533666,-8.322066139612337e-05,
0.03531172069825436,0.02168563157189415,
0.035361596009975065,-0.006264260037524524,
0.03541147132169576,0.02454939108357406,
0.035461346633416456,0.013298035039076738,
0.03551122194513716,0.011703081187844182,
0.035561097256857854,0.01423690841229616,
0.03561097256857856,0.015152610963892539,
0.03566084788029925,0.020675484175432225,
0.03571072319201995,0.019131121491993933,
0.03576059850374065,0.005247335988977142,
0.03581047381546135,0.012024372673707123,
0.03586034912718204,0.019846016232351393,
0.035910224438902745,0.0018660519191041735,
0.03596009975062344,0.001431816287808892,
0.036009975062344136,-0.014655305210871094,
0.03605985037406484,0.020379574470063985,
0.036109725685785535,-0.0066772803896614896,
0.03615960099750624,0.024385755705526212,
0.03620947630922693,0.015599646276949503,
0.03625935162094763,0.027845893613910898,
0.03630922693266833,0.016245503930018362,
0.03635910224438903,0.033010675651125435,
0.03640897755610972,0.004183425726105469,
0.036458852867830426,0.03357340438153491,
0.03650872817955112,0.01087268878608753,
0.036558603491271824,0.036038652575484116,
0.03660847880299252,0.012599546662614498,
0.036658354114713215,0.01006158358478835,
0.03670822942643392,0.015696504191681768,
0.036758104738154614,0.01185974669925541,
0.03680798004987531,0.030803240045045338,
0.03685785536159601,-0.0056980822901314815,
0.03690773067331671,0.01197232779566779,
0.0369576059850374,0.004392322284326436,
0.037007481296758106,-0.004253431920013078,
0.0370573566084788,0.02078642966718225,
0.037107231920199504,0.004998952128474444,
0.0371571072319202,0.017319136568649387,
0.037206982543640896,-0.00035427858142038013,
0.0372568578553616,0.008265617133707858,
0.037306733167082294,0.010989474906257917,
0.03735660847880299,0.020241076285389153,
0.03740648379052369,-0.0016326487123095347,
0.03745635910224439,0.026043500346045655,
0.037506234413965084,0.011288722705221323,
0.037556109725685786,-0.02034663694140338,
0.03760598503740648,0.010124222093910113,
0.037655860349127185,-0.00826259625738934,
0.03770573566084788,0.001933747555578345,
0.037755610972568576,0.011476663857026025,
0.03780548628428928,0.011944979546497005,
0.037855361596009975,0.0023762592531914595,
0.03790523690773067,-0.006868795181157447,
0.03795511221945137,0.0018733617945711593,
0.03800498753117207,0.005674165041779599,
0.03805486284289277,0.0008237832724418796,
0.03810473815461347,0.010237921692113882,
0.03815461346633416,0.006571370807961437,
0.038204488778054865,0.021381596609536466,
0.03825436408977556,0.038879918919565104,
0.03830423940149626,0.001960392066423129,
0.03835411471321696,0.04432298404540216,
0.038403990024937655,0.001250946824559989,
0.03845386533665835,0.03759754485950226,
0.03850374064837905,0.041925190644089685,
0.03855361596009975,0.03531713563876616,
0.03860349127182045,0.004397964367515949,
0.03865336658354115,-0.001583465897887354,
0.03870324189526184,0.031085657591763925,
0.038753117206982546,0.029638188885848123,
0.03880299251870324,0.02049215562901718,
0.03885286783042394,0.05019507581611433,
0.03890274314214464,0.038349958284333074,
0.038952618453865336,0.01698958062226687,
0.03900249376558604,0.037948305715700736,
0.039052369077306734,0.009835009916393547,
0.03910224438902743,0.02325661570318084,
0.03915211970074813,0.012255227101379888,
0.03920199501246883,0.02908386440607722,
0.039251870324189524,0.03067666762781167,
0.039301745635910226,0.02172282277169293,
0.03935162094763092,0.03846081256699445,
0.03940149625935162,0.01727881211440003,
0.03945137157107232,0.030926862915009082,
0.039501246882793016,0.02372555857050449,
0.03955112219451372,0.019149856478064078,
0.039600997506234414,0.014890564651915997,
0.03965087281795511,0.014258735968036621,
0.03970074812967581,0.03190568832567348,
0.03975062344139651,0.011925423003695984,
0.039800498753117204,0.020539829674932036,
0.03985037406483791,0.01831423743482423,
0.0399002493765586,0.06988941277755292,
0.039950124688279305,0.042071069634323506,
0.04,0.023349190379358793,
0.0400498753117207,0.043572070664674785,
0.0400997506234414,-0.012121684733287546,
0.040149625935162095,0.032177647860044574,
0.04019950124688279,0.012352764604335988,
0.04024937655860349,0.019119591063459427,
0.04029925187032419,0.024283599046981172,
0.040349127182044885,0.009846604696252677,
0.04039900249376559,0.02780709694406161,
0.04044887780548628,0.06645798258118696,
0.040498753117206986,0.040105870159064576,
0.04054862842892768,0.04810195715651509,
0.04059850374064838,0.0018159047738942752,
0.04064837905236908,0.015666736779487957,
0.040698254364089775,0.02563169872284703,
0.04074812967581047,0.03370772280249337,
0.040798004987531174,0.017058024066777925,
0.04084788029925187,0.010168640425785386,
0.040897755610972565,0.04648279596446657,
0.04094763092269327,0.0212419110012409,
0.04099750623441396,0.035718435954219245,
0.041047381546134666,0.0075879437858808255,
0.04109725685785536,0.01600832961846705,
0.04114713216957606,0.002934359414523229,
0.04119700748129676,0.03027215908491656,
0.041246882793017456,0.013979060736544787,
0.04129675810473815,0.006345776872157795,
0.041346633416458854,0.004236082801032843,
0.04139650872817955,0.030124658554630552,
0.04144638403990025,0.033636105534423415,
0.04149625935162095,0.0321225333106498,
0.041546134663341644,0.019746797233813902,
0.04159600997506235,0.007580915252155611,
0.04164588528678304,0.05690504543734371,
0.04169576059850374,0.016588385796440838,
0.04174563591022444,-0.003202552971878634,
0.041795511221945136,0.010440799752248514,
0.04184538653366583,0.006064663270390543,
0.041895261845386535,0.0096668782319206,
0.04194513715710723,0.026536298336890907,
0.04199501246882793,0.025002453161319434,
0.04204488778054863,0.013942604468552316,
0.042094763092269324,-0.0027131992845325983,
0.04214463840399003,0.022164379799157734,
0.04219451371571072,0.024945776096045723,
0.04224438902743142,0.027804368407128025,
0.04229426433915212,0.015262937779582365,
0.04234413965087282,0.01068173591901301,
0.04239401496259352,0.03231925708729666,
0.042443890274314215,0.009472681332282608,
0.04249376558603491,0.01095703647605073,
0.042543640897755614,0.04224836342898984,
0.04259351620947631,0.0026111447989877225,
0.042643391521197005,0.014710476702754667,
0.04269326683291771,0.006842626787323289,
0.0427431421446384,0.015868535695625293,
0.0427930174563591,0.019920799782077444,
0.0428428927680798,0.018013484535738398,
0.0428927680798005,0.034313986768120905,
0.0429426433915212,0.012106133014481027,
0.042992518703241896,0.012868174279292793,
0.04304239401496259,0.008192118459176171,
0.043092269326683294,0.004422492909778688,
0.04314214463840399,-0.007078649071489453,
0.043192019950124685,0.018419696943087115,
0.04324189526184539,0.01079908711357818,
0.043291770573566084,0.011859602256973772,
0.043341645885286786,0.017971863386199088,
0.04339152119700748,-0.004492263218826812,
0.04344139650872818,-0.004582078215463043,
0.04349127182044888,-0.009765245705551205,
0.043541147132169576,0.03271094831249821,
0.04359102244389027,0.01666056530981384,
0.043640897755610975,0.032072223967755775,
0.04369077306733167,0.0028641454231254637,
0.043740648379052366,0.0003084404314014043,
0.04379052369077307,0.011060848987708032,
0.043840399002493764,0.0008685976932541022,
0.04389027431421447,0.01698902882535736,
0.04394014962593516,0.004978817009729649,
0.04399002493765586,0.012605269578550297,
0.04403990024937656,0.003728569999742617,
0.04408977556109726,-0.016423977205190565,
0.04413965087281795,0.013065673218915521,
0.044189526184538655,-0.008614798338423438,
0.04423940149625935,0.006993898583387257,
0.04428927680798005,0.015192094975362159,
0.04433915211970075,0.0015827346060044087,
0.044389027431421445,0.030562053215076802,
0.04443890274314215,0.010348228496734838,
0.04448877805486284,0.019355107909232276,
0.04453865336658354,0.004796549186776147,
0.04458852867830424,-0.01587933926324759,
0.04463840399002494,-0.012820373314419932,
0.04468827930174563,-0.006665903167408774,
0.044738154613466335,-0.00023241198749793333,
0.04478802992518703,0.005611511035080148,
0.044837905236907734,0.005233839790279509,
0.04488778054862843,0.012549422200188835,
0.044937655860349125,0.013883792303357905,
0.04498753117206983,-0.00664627248087128,
0.045037406483790524,0.009800605175652958,
0.04508728179551122,-0.02199577891080655,
0.04513715710723192,0.00921026900194398,
0.04518703241895262,-0.011531391503565401,
0.04523690773067331,-0.01677787612802415,
0.045286783042394016,-0.009527502529615447,
0.04533665835411471,0.004994898783748879,
0.045386533665835414,-0.0012083311000588425,
0.04543640897755611,0.007216474451926379,
0.045486284289276806,0.009568803582223855,
0.04553615960099751,-0.011723172122534662,
0.045586034912718204,0.016371593194395833,
0.0456359102244389,-0.0018982187043577554,
0.0456857855361596,-0.017159102004414527,
0.0457356608478803,-0.003847381705489732,
0.045785536159601,0.0037997646072729253,
0.045835411471321696,-0.0019188725567640518,
0.04588528678304239,-0.002281159569797183,
0.045935162094763095,-0.01458045829141714,
0.04598503740648379,-0.01388784280908351,
0.046034912718204486,0.033931473654624095,
0.04608478802992519,0.009957492061333388,
0.046134663341645885,-0.009592603867855834,
0.04618453865336658,0.026633503305981143,
0.04623441396508728,-0.005332323086482051,
0.04628428927680798,-0.019235568614076156,
0.04633416458852868,0.02888237677878675,
0.04638403990024938,0.0015319187816957205,
0.04643391521197007,-0.010057356739157246,
0.046483790523690775,0.02727011532356008,
0.04653366583541147,-0.007384168189853233,
0.04658354114713217,-0.00120659614010503,
0.04663341645885287,-0.016562059401690338,
0.046683291770573565,-0.007575305626096654,
0.04673316708229427,-0.01608930476235553,
0.04678304239401496,-0.021362703097891546,
0.04683291770573566,-0.03666464539767524,
0.04688279301745636,-0.010629175322697379,
0.04693266832917706,-0.025665143484861985,
0.04698254364089775,0.022441393556434732,
0.047032418952618456,-0.0008968614699178664,
0.04708229426433915,-0.00363138875768029,
0.04713216957605985,-0.014206869573163751,
0.04718204488778055,-0.006957645724770749,
0.047231920199501246,0.014418797104458255,
0.04728179551122195,-0.019434383674617764,
0.047331670822942644,0.011862467080160245,
0.04738154613466334,0.005942161068770114,
0.04743142144638404,-0.0013786128571087394,
0.04748129675810474,-0.0119231522550766,
0.047531172069825434,-0.004673909682751681,
0.047581047381546136,-0.026545751764120128,
0.04763092269326683,-0.001523871808683205,
0.047680798004987535,0.00955952360793696,
0.04773067331670823,-0.010199009845014971,
0.047780548628428926,-0.013167501659774396,
0.04783042394014963,0.00016624925755146826,
0.047880299251870324,-0.050537758745677945,
0.04793017456359102,0.004665893687044032,
0.04798004987531172,-0.026146893292773477,
0.04802992518703242,-0.002121147249841004,
0.048079800498753114,-0.02071883516329212,
0.04812967581047382,0.02737804115770468,
0.04817955112219451,-0.00019658294452330055,
0.048229426433915215,-0.012175240457306074,
0.04827930174563591,0.012894352852302709,
0.048329177057356607,-0.0232117157803421,
0.04837905236907731,-0.013921130914800586,
0.048428927680798005,-0.0022811520622912484,
0.0484788029925187,-0.018704735870757737,
0.0485286783042394,0.01623557508656511,
0.0485785536159601,-0.005730680862721554,
0.048628428927680795,-0.01053274501838933,
0.0486783042394015,-0.024659338716705406,
0.04872817955112219,-0.03320291697623608,
0.048778054862842896,-0.013516330597052092,
0.04882793017456359,-0.00434661288197166,
0.04887780548628429,-0.014370562807340951,
0.04892768079800499,-0.008239425574524095,
0.048977556109725685,-0.02437184503589468,
0.04902743142144638,-0.006643790271852286,
0.049077306733167084,-0.0248262639964984,
0.04912718204488778,-0.025798581453789285,
0.04917705735660848,-0.031230355599132734,
0.04922693266832918,-0.004602883956359223,
0.04927680798004987,-0.007864575739798964,
0.049326683291770576,-4.261515426606799e-05,
0.04937655860349127,-0.016174319601631987,
0.04942643391521197,-0.06297673130649722,
0.04947630922693267,-0.0033629061921119207,
0.049526184538653366,0.005728147689022748,
0.04957605985037406,-0.017894433013515603,
0.049625935162094764,-0.016031781984227913,
0.04967581047381546,-0.03823276467756209,
0.04972568578553616,-0.005623938172071668,
0.04977556109725686,0.0022669848990258847,
0.049825436408977554,0.002700661447627508,
0.04987531172069826,-0.04083907397005091,
0.04992518703241895,-0.00047969251339218325,
0.04997506234413965,0.0001403512417322457,
0.05002493765586035,-0.018023642813221146,
0.050074812967581046,-0.030539864637053035,
0.05012468827930175,-0.016726383022637972,
0.050174563591022445,0.0024464573292688092,
0.05022443890274314,-0.02881053983388558,
0.05027431421446384,-0.03059039650408195,
0.05032418952618454,-0.00872708760923042,
0.050374064837905234,-0.02145791328385897,
0.05042394014962594,-0.022768530842480088,
0.05047381546134663,0.0028907276608452666,
0.05052369077306733,-0.022815197918128822,
0.05057356608478803,-0.008784747863349436,
0.05062344139650873,-0.026248657438105255,
0.05067331670822943,-0.03140576623336487,
0.050723192019950125,0.0063344584985258745,
0.05077306733167082,-0.029747930595475487,
0.050822942643391524,-0.04204474491144038,
0.05087281795511222,0.014786284013812644,
0.050922693266832915,-0.028999037479578046,
0.05097256857855362,-0.03244684756848983,
0.05102244389027431,-0.002426986796368826,
0.051072319201995016,-0.01620742123126213,
0.05112219451371571,-0.02107047519573927,
0.05117206982543641,0.0006187574199468231,
0.05122194513715711,-0.007694983794035438,
0.051271820448877806,-0.0023140048271239246,
0.0513216957605985,-0.015033822153293123,
0.051371571072319204,0.009530352745415473,
0.0514214463840399,-0.007707978033932195,
0.051471321695760595,-0.011295399357723966,
0.0515211970074813,-0.02017880424434667,
0.051571072319201994,-0.013851136348245443,
0.051620947630922696,-0.029404055448959313,
0.05167082294264339,-0.020437202315869867,
0.05172069825436409,-0.021323832990292016,
0.05177057356608479,0.004164947119738482,
0.051820448877805486,0.01239503047691273,
0.05187032418952618,-0.05280674281081466,
0.051920199501246884,-0.01454446358102645,
0.05197007481296758,0.00047897697823268484,
0.052019950124688276,-0.020115552627756512,
0.05206982543640898,-0.023499609724407705,
0.052119700748129674,0.008527451168611585,
0.05216957605985038,-0.04205801137475863,
0.05221945137157107,-0.032933964509872286,
0.05226932668329177,0.013371059485630946,
0.05231920199501247,-0.0043017619335791344,
0.05236907730673317,-0.036199629287159196,
0.05241895261845386,-0.024038555846654347,
0.052468827930174565,-0.004026119770379029,
0.05251870324189526,-0.03870646775314586,
0.05256857855361596,0.00723613497026784,
0.05261845386533666,-0.012099177706590249,
0.052668329177057355,0.00755174144946048,
0.05271820448877806,-0.020324220633104483,
0.05276807980049875,-0.0034135811983126508,
0.05281795511221945,-0.003744862703727727,
0.05286783042394015,-0.002199865055153869,
0.05291770573566085,-0.011959261918343744,
0.05296758104738154,-0.009781017339354055,
0.053017456359102245,0.010094598833821123,
0.05306733167082294,-0.01213902910736631,
0.053117206982543644,0.03720958674019282,
0.05316708229426434,-0.023464745808105713,
0.053216957605985035,9.929537985694809e-05,
0.05326683291770574,-0.008941563906428704,
0.053316708229426434,0.0008756270396288708,
0.05336658354114713,-0.007949693372257392,
0.05341645885286783,-0.006083721217127407,
0.05346633416458853,0.016605748138017646,
0.05351620947630923,-0.017977949642990723,
0.053566084788029926,0.003989124599285302,
0.05361596009975062,-0.018590303166914415,
0.053665835411471324,0.009324916088146049,
0.05371571072319202,-0.012331754859956568,
0.053765586034912716,0.020430478478764637,
0.05381546134663342,-0.02992691798315684,
0.053865336658354114,0.002631386699862258,
0.05391521197007481,0.0079741993853291,
0.05396508728179551,0.0060373279453763695,
0.05401496259351621,0.00048765986902471817,
0.05406483790523691,0.007518502764964079,
0.054114713216957606,0.015882730571928447,
0.0541645885286783,-0.003424344724044328,
0.054214463840399005,0.004571631796146495,
0.0542643391521197,0.011895422423405994,
0.054314214463840396,0.017244411318482054,
0.0543640897755611,0.013483259239709389,
0.054413965087281795,0.008961277139375654,
0.0544638403990025,0.007026924368660371,
0.05451371571072319,-0.011967431992373757,
0.05456359102244389,0.012014709306018362,
0.05461346633416459,0.00903772908960191,
0.05466334164588529,0.008994000588571008,
0.05471321695760598,0.010600010936533727,
0.054763092269326685,0.0012137429527115393,
0.05481296758104738,-0.005245588500719451,
0.05486284289276808,0.008672505549790705,
0.05491271820448878,0.028210463974831495,
0.054962593516209475,-0.001995713950655311,
0.05501246882793018,0.0023493224930238588,
0.05506234413965087,0.05816030336461825,
0.05511221945137157,0.027456837681138567,
0.05516209476309227,0.022763424347508603,
0.05521197007481297,-0.0013401370148017622,
0.05526184538653366,0.036895916386844724,
0.055311720698254366,0.0019026662296927521,
0.05536159600997506,0.018522109793071895,
0.05541147132169576,0.01811504018385047,
0.05546134663341646,0.0013688044687334778,
0.055511221945137156,0.00981647436435859,
0.05556109725685786,0.015190410375283538,
0.055610972568578554,0.015330752076636417,
0.05566084788029925,0.012939402715355758,
0.05571072319201995,0.0256923707351482,
0.05576059850374065,0.02047748487028645,
0.055810473815461344,-0.0020942617347152834,
0.055860349127182046,0.006048214648495375,
0.05591022443890274,0.0236273081309033,
0.055960099750623445,0.011993827377674737,
0.05600997506234414,0.028946553330498937,
0.056059850374064836,0.025038647621111264,
0.05610972568578554,-0.012748878203469243,
0.056159600997506234,-0.0070437405477053044,
0.05620947630922693,-0.011503364205360835,
0.05625935162094763,-0.002345347393113739,
0.05630922693266833,0.0153996648440619,
0.056359102244389024,0.02646548359254858,
0.05640897755610973,0.02787624090986467,
0.05645885286783042,0.012287531758332264,
0.056508728179551125,0.008811330331214697,
0.05655860349127182,-0.00024469947633816436,
0.056608478802992516,0.023360013820870662,
0.05665835411471322,0.0385490837471644,
0.056708229426433915,0.01429890567302522,
0.05675810473815461,0.014889426314874889,
0.05680798004987531,0.04037825517563624,
0.05685785536159601,0.019856980111454012,
0.05690773067331671,0.038475390489778646,
0.05695760598503741,0.02101731136348294,
0.0570074812967581,0.008033445840874294,
0.057057356608478806,0.031150019719791013,
0.0571072319201995,0.009515589058498019,
0.0571571072319202,0.009560690004650901,
0.0572069825436409,0.009082989633134718,
0.057256857855361595,0.001693293151918471,
0.05730673316708229,0.03286463516051162,
0.057356608478802994,0.045154383224284146,
0.05740648379052369,0.03132864384541012,
0.05745635910224439,0.026465289516160475,
0.05750623441396509,0.008695708362921956,
0.05755610972568578,0.004627524037610742,
0.057605985037406486,-0.0015206901458062264,
0.05765586034912718,0.04466280749500746,
0.05770573566084788,0.002182402726789996,
0.05775561097256858,0.02084305859499181,
0.057805486284289276,0.004995300336645208,
0.05785536159600998,0.03363986408706062,
0.057905236907730674,0.026848352789664326,
0.05795511221945137,0.04546443043098253,
0.05800498753117207,0.034468969926138036,
0.05805486284289277,0.03605468818569322,
0.058104738154613464,0.008581245857937176,
0.05815461346633417,0.019997453067426296,
0.05820448877805486,0.026164759698658797,
0.05825436408977556,0.01655348309812552,
0.05830423940149626,0.016064360059063094,
0.058354114713216956,0.01252659919104779,
0.05840399002493766,0.027581981620745745,
0.058453865336658355,0.007947463806851395,
0.05850374064837905,0.029356478232066024,
0.05855361596009975,0.05400146650421594,
0.05860349127182045,0.044454925777140324,
0.058653366583541144,0.014697210149864123,
0.05870324189526185,0.036988184472053355,
0.05875311720698254,0.014189434404611456,
0.05880299251870324,0.03145223552216308,
0.05885286783042394,-0.009819246274109121,
0.05890274314214464,0.022293442006193077,
0.05895261845386534,0.01696990892325973,
0.059002493765586035,0.02552697382218333,
0.05905236907730673,0.023006164368785866,
0.059102244389027433,0.013417178564584038,
0.05915211970074813,0.03995390090210446,
0.059201995012468825,0.0522677270022869,
0.05925187032418953,0.017441839380489366,
0.05930174563591022,0.02113471334963045,
0.059351620947630926,0.023423808768301444,
0.05940149625935162,0.01699072725411728,
0.05945137157107232,0.021625882310267183,
0.05950124688279302,0.007366980877944629,
0.059551122194513716,0.01643233010695167,
0.05960099750623441,0.03253514766685662,
0.059650872817955114,0.013034164028603449,
0.05970074812967581,0.043433477125314826,
0.059750623441396505,-0.008191584370105493,
0.05980049875311721,0.02002908445151031,
0.059850374064837904,0.006499236225652374,
0.059900249376558606,0.008188635123124979,
0.0599501246882793,0.01139180375001585,
0.06,0.021410086938026936,
0.0600498753117207,0.026195849157128553,
0.060099750623441396,-0.0008813869765028626,
0.06014962593516209,0.050856499443838764,
0.060199501246882794,0.04246589597878487,
0.06024937655860349,0.01698826371059883,
0.06029925187032419,0.03955183818138405,
0.06034912718204489,0.03115058341065706,
0.060399002493765584,0.0214154787369339,
0.06044887780548629,0.016998091255401502,
0.06049875311720698,0.011269516772750052,
0.06054862842892768,0.03431017316928196,
0.06059850374064838,0.026859668485667537,
0.06064837905236908,0.029242902928572557,
0.06069825436408977,0.0071090124514573555,
0.060748129675810475,0.02523174033542631,
0.06079800498753117,0.009332445643079659,
0.06084788029925187,0.05752361697922123,
0.06089775561097257,0.009118169885036163,
0.060947630922693265,0.031071793023983975,
0.06099750623441397,0.04096077570108506,
0.06104738154613466,0.01296630796982475,
0.06109725685785536,0.015608653774969896,
0.06114713216957606,0.020967551348119045,
0.06119700748129676,0.005302405891056402,
0.06124688279301746,0.006312841088454868,
0.061296758104738155,0.03378911549982331,
0.06134663341645885,0.002535359705038844,
0.061396508728179554,0.02788560983021277,
0.06144638403990025,0.017282912877217414,
0.061496259351620945,0.005204797678201839,
0.06154613466334165,-0.00761795307318722,
0.061596009975062344,0.012698339857578117,
0.06164588528678304,0.0481666949895171,
0.06169576059850374,0.03383416809913295,
0.06174563591022444,0.016851312136748925,
0.06179551122194514,0.053518366711637164,
0.061845386533665836,0.03498062598230625,
0.06189526184538653,0.021515705457835637,
0.061945137157107234,0.005090222849569288,
0.06199501246882793,0.033366219854027566,
0.062044887780548626,0.009311547629621933,
0.06209476309226933,0.027096935842273802,
0.062144638403990024,0.022162864244315784,
0.06219451371571072,0.055371252162249474,
0.06224438902743142,0.024132371077723334,
0.06229426433915212,0.03630940915311448,
0.06234413965087282,0.035486074412067824,
0.062394014962593516,0.03958266065654106,
0.06244389027431421,0.0520880604500873,
0.062493765586034915,-0.0005422042914098382,
0.06254364089775562,0.02097910205714751,
0.06259351620947631,0.04298911658130397,
0.06264339152119701,0.017245073615554194,
0.0626932668329177,0.017729330003657805,
0.0627431421446384,0.021547985558942894,
0.0627930174563591,0.0016247442236151377,
0.0628428927680798,0.007785070181531786,
0.0628927680798005,0.021330687287583465,
0.0629426433915212,0.004104439067148946,
0.06299251870324189,0.018367000608754697,
0.06304239401496259,0.05079695213414745,
0.0630922693266833,-0.02280323628804664,
0.063142144638404,0.01193160787971719,
0.06319201995012469,0.019257954747146873,
0.06324189526184539,0.008103456891518646,
0.06329177057356608,0.026666774970609153,
0.06334164588528678,0.007399009187187671,
0.06339152119700749,0.01683291882399668,
0.06344139650872818,0.012829407066362755,
0.06349127182044888,0.049328723891317275,
0.06354114713216957,0.004236232186015458,
0.06359102244389027,-0.006614726109827329,
0.06364089775561098,0.01222537736938447,
0.06369077306733167,0.030258802079712457,
0.06374064837905237,0.01667101354929307,
0.06379052369077307,0.0008157349467279185,
0.06384039900249376,0.008613274084074212,
0.06389027431421446,0.004603492406110854,
0.06394014962593517,0.025103135067010743,
0.06399002493765586,0.028083190812242233,
0.06403990024937656,0.008087666217102728,
0.06408977556109725,0.0013735458849908604,
0.06413965087281795,-0.003152884583814925,
0.06418952618453866,0.030632932094170333,
0.06423940149625935,0.010565712812735698,
0.06428927680798005,0.014041693523049343,
0.06433915211970075,0.00189579843919142,
0.06438902743142144,0.03259896545334066,
0.06443890274314215,-0.008894854911985443,
0.06448877805486285,0.007174309036529091,
0.06453865336658354,0.01213021237028121,
0.06458852867830424,0.0017538553936719548,
0.06463840399002493,0.012889660513812254,
0.06468827930174563,-0.013583994461162213,
0.06473815461346634,0.0024849936948875048,
0.06478802992518704,0.010913055845489622,
0.06483790523690773,-0.019760601632929885,
0.06488778054862843,0.039990878408195776,
0.06493765586034912,-0.006476818053539406,
0.06498753117206983,0.0024901563794411568,
0.06503740648379053,0.0032012124213709543,
0.06508728179551122,0.0029876286320598923,
0.06513715710723192,0.019534388160579317,
0.06518703241895261,-0.01112881423283957,
0.06523690773067331,0.000218116711904583,
0.06528678304239402,-0.028601590660351034,
0.06533665835411472,0.04111078991188869,
0.06538653366583541,0.03199638453542874,
0.06543640897755611,-0.027507564365586868,
0.0654862842892768,-0.004584336311607578,
0.06553615960099751,-0.018622898201901127,
0.06558603491271821,0.0119705093469867,
0.0656359102244389,0.003763091561467449,
0.0656857855361596,-0.01620299841544398,
0.0657356608478803,-0.017186054960131474,
0.06578553615960099,0.011451972312104862,
0.0658354114713217,-0.018132027585167104,
0.0658852867830424,0.0002999618725816226,
0.06593516209476309,0.002328643250209853,
0.06598503740648379,0.010869258125597421,
0.06603491271820448,-0.015013468799423647,
0.06608478802992519,-0.00030013829040176083,
0.06613466334164589,-0.01882602844389023,
0.06618453865336658,-0.008365325803233367,
0.06623441396508728,0.03206348715435077,
0.06628428927680798,-0.005843633920152408,
0.06633416458852869,0.009592897698147928,
0.06638403990024938,0.0036032702926175842,
0.06643391521197008,0.02233201456389081,
0.06648379052369077,-0.016017752286226462,
0.06653366583541147,0.017357071842607076,
0.06658354114713216,0.0042894234586519754,
0.06663341645885287,0.03327827463615122,
0.06668329177057357,-0.0018380082746078607,
0.06673316708229426,0.003968886396598556,
0.06678304239401496,-0.01361799061024854,
0.06683291770573566,-0.04400388360222669,
0.06688279301745637,0.008792074695988066,
0.06693266832917706,-0.0010519795653833345,
0.06698254364089776,-5.2447409490887983e-05,
0.06703241895261845,-0.0014947616748803233,
0.06708229426433915,-0.0021707739992573357,
0.06713216957605984,-0.012509254379826246,
0.06718204488778055,-0.0037620151858539152,
0.06723192019950125,-0.01317168947722867,
0.06728179551122195,0.0024777497617975014,
0.06733167082294264,0.007916274571034904,
0.06738154613466334,0.0010693890352184675,
0.06743142144638405,0.010627951277970457,
0.06748129675810474,0.00375970413890518,
0.06753117206982544,-0.0205676382448858,
0.06758104738154613,0.011132236673344603,
0.06763092269326683,-0.017407139133769827,
0.06768079800498752,-0.013952305661468756,
0.06773067331670823,-0.019016615935654853,
0.06778054862842893,-0.02289653440946882,
0.06783042394014963,-0.03144333032427947,
0.06788029925187032,-0.0075240840156318035,
0.06793017456359102,-0.006658162741073918,
0.06798004987531173,0.0054921354890267345,
0.06802992518703242,-0.018276887404197733,
0.06807980049875312,0.0024403262944641783,
0.06812967581047381,-0.007611865436746254,
0.06817955112219451,-0.005711894844067295,
0.0682294264339152,-0.0064435436347686625,
0.06827930174563591,-0.0016178269498860962,
0.06832917705735661,0.0017956513486733112,
0.0683790523690773,-0.02217296743458345,
0.068428927680798,0.0019612632264115696,
0.0684788029925187,-0.02189139334264557,
0.06852867830423941,-0.022298524295643097,
0.0685785536159601,-0.00752097525596146,
0.0686284289276808,-0.015866172175493125,
0.0686783042394015,-0.026738089022441597,
0.06872817955112219,-0.0005971598884351274,
0.0687780548628429,-0.0013900409284221746,
0.0688279301745636,-0.02421291448437842,
0.06887780548628429,0.0013218876891033064,
0.06892768079800499,-0.013965978480152345,
0.06897755610972568,-0.00770410781885138,
0.06902743142144638,-0.011961277511756638,
0.06907730673316709,-0.015415031625988498,
0.06912718204488778,-0.00554866769838795,
0.06917705735660848,-0.024052676750251252,
0.06922693266832917,3.5637449266752094e-05,
0.06927680798004987,-0.03477139647291912,
0.06932668329177058,-0.004088408799346138,
0.06937655860349128,-0.018687660392962706,
0.06942643391521197,-0.01489730104783192,
0.06947630922693267,-0.0046061581819457735,
0.06952618453865336,-0.000172526590800616,
0.06957605985037406,-0.0013783210807759051,
0.06962593516209477,-0.014304822879543757,
0.06967581047381546,0.003616400823952695,
0.06972568578553616,-0.005321715340486102,
0.06977556109725686,-0.0453613978779961,
0.06982543640897755,-0.01766711373741021,
0.06987531172069826,-0.016558905375086128,
0.06992518703241896,-0.05417395961774808,
0.06997506234413965,-0.022637883649457596,
0.07002493765586035,-0.012104275596712297,
0.07007481296758104,-0.0064948731999460215,
0.07012468827930174,-0.020543974947514296,
0.07017456359102245,-0.0338816847868329,
0.07022443890274314,-0.01529082642933805,
0.07027431421446384,-0.012933418929918412,
0.07032418952618454,-0.02052073818173383,
0.07037406483790523,-0.005478340469702629,
0.07042394014962594,-0.0041597784184251255,
0.07047381546134664,-0.005864670969356599,
0.07052369077306733,-0.028076983905421772,
0.07057356608478803,-0.011182391962094017,
0.07062344139650872,0.00010973044885579514,
0.07067331670822943,-0.01677433661769693,
0.07072319201995013,-0.039113664128739525,
0.07077306733167082,-0.03290847581960166,
0.07082294264339152,0.0038858843692063556,
0.07087281795511222,-0.01673619098432206,
0.07092269326683291,-0.00790875055131145,
0.07097256857855362,-0.017316524921757986,
0.07102244389027432,-0.029755068288720453,
0.07107231920199501,-0.024502018094799273,
0.07112219451371571,0.013922780150855322,
0.0711720698254364,-0.023856046973990408,
0.07122194513715711,-0.010860206296401113,
0.07127182044887781,-0.01650180279854758,
0.0713216957605985,-0.00266412039147915,
0.0713715710723192,-0.009717340799291306,
0.0714214463840399,-0.00025189008050195694,
0.07147132169576059,0.004369034761295888,
0.0715211970074813,-0.024125885230770493,
0.071571072319202,-0.004907008565874366,
0.0716209476309227,-0.02514925530414759,
0.07167082294264339,-0.022813320323429018,
0.07172069825436408,-0.024371989551283342,
0.0717705735660848,-0.02534307725437584,
0.07182044887780549,-0.043766130631286065,
0.07187032418952619,-0.015884359515591792,
0.07192019950124688,-0.029704047728602207,
0.07197007481296758,0.004385790949926166,
0.07201995012468827,0.009895569657872636,
0.07206982543640898,-0.0105375704732394,
0.07211970074812968,-0.009110169946492205,
0.07216957605985037,-0.00996743457848711,
0.07221945137157107,0.022694814171951967,
0.07226932668329177,0.0003875088302880154,
0.07231920199501247,0.006376020814541455,
0.07236907730673317,-0.0009764645540543231,
0.07241895261845387,0.014656711261831507,
0.07246882793017456,-0.007494587658808585,
0.07251870324189526,-0.00329466588674728,
0.07256857855361595,-0.01364752813959303,
0.07261845386533666,0.006403327579984772,
0.07266832917705736,-0.017994804979573134,
0.07271820448877805,-0.0026088808332378165,
0.07276807980049875,-0.013015129280670473,
0.07281795511221945,-0.006386425156957596,
0.07286783042394016,-0.0061729295331978025,
0.07291770573566085,-0.010640678794665837,
0.07296758104738155,-0.005448694637212008,
0.07301745635910224,-0.007966560470965108,
0.07306733167082294,-0.00919005277458666,
0.07311720698254365,-0.012892307084335114,
0.07316708229426434,-0.004325630359937531,
0.07321695760598504,0.021928012209138696,
0.07326683291770573,0.005676913812551606,
0.07331670822942643,-0.015690344067474823,
0.07336658354114713,-0.017661672428201085,
0.07341645885286784,-0.02329383637307056,
0.07346633416458853,-0.005342987841485354,
0.07351620947630923,0.0028232148413592784,
0.07356608478802992,-0.03008067302543196,
0.07361596009975062,-0.016073720462145478,
0.07366583541147133,-0.012218572125630364,
0.07371571072319202,0.002132619126438128,
0.07376558603491272,-0.001915685031181811,
0.07381546134663342,-0.021800240543882077,
0.07386533665835411,0.006422940423197982,
0.0739152119700748,-0.02357548991769967,
0.07396508728179552,0.0034090499348527134,
0.07401496259351621,0.0031138819996338095,
0.07406483790523691,-0.004589492605628973,
0.0741147132169576,-0.02529580233506476,
0.0741645885286783,-0.006522691842788627,
0.07421446384039901,0.02163556168462611,
0.0742643391521197,-0.001459611248703117,
0.0743142144638404,0.04322235432953322,
0.0743640897755611,0.003025311858127912,
0.07441396508728179,0.019087484690710307,
0.07446384039900249,0.004092460003365124,
0.0745137157107232,-0.011813103864412852,
0.07456359102244389,0.0012507607708181425,
0.07461346633416459,0.03136868638345451,
0.07466334164588528,0.016389464682701863,
0.07471321695760598,0.025590082456783285,
0.07476309226932669,0.006645150848191112,
0.07481296758104738,0.002565736619935596,
0.07486284289276808,-0.03341239828366135,
0.07491271820448878,-0.008533181884640114,
0.07496259351620947,0.013285166844599341,
0.07501246882793017,-0.011043621863401966,
0.07506234413965088,-0.0029831557242138854,
0.07511221945137157,-0.021684941172835114,
0.07516209476309227,0.026553984130685607,
0.07521197007481296,-0.009396255761695248,
0.07526184538653366,0.006252657172948409,
0.07531172069825437,0.04112261320667797,
0.07536159600997507,-0.0007998996917215704,
0.07541147132169576,0.01485268053442388,
0.07546134663341646,0.029184146345800684,
0.07551122194513715,0.019144228395818728,
0.07556109725685786,-0.00855631202469805,
0.07561097256857856,-0.006102180051500887,
0.07566084788029925,0.0095006022929614,
0.07571072319201995,0.03278528595893733,
0.07576059850374064,-0.009345380793404637,
0.07581047381546134,0.0038036495567519606,
0.07586034912718205,-0.0005440799560951642,
0.07591022443890275,0.00908863615184009,
0.07596009975062344,0.01346611346808729,
0.07600997506234414,0.02734605891399517,
0.07605985037406483,0.01892477061544391,
0.07610972568578554,0.004103868988806705,
0.07615960099750624,0.014619090897315674,
0.07620947630922693,-0.0024566091244119983,
0.07625935162094763,0.0004827914428713314,
0.07630922693266833,-0.0005969644598472768,
0.07635910224438902,0.014432546661051766,
0.07640897755610973,0.016974675522806928,
0.07645885286783043,0.007877348303277697,
0.07650872817955112,0.02661055066370273,
0.07655860349127182,0.01309482380315661,
0.07660847880299251,0.02438756693130597,
0.07665835411471322,-0.009171653624910205,
0.07670822942643392,0.021295941835354534,
0.07675810473815461,0.02177510069260975,
0.07680798004987531,0.01670295624442079,
0.076857855361596,0.036418926553352035,
0.0769077306733167,0.01471465246517531,
0.07695760598503741,0.018037982755006038,
0.0770074812967581,-0.00023858374982639596,
0.0770573566084788,0.023290511878218564,
0.0771072319201995,0.027136327195532464,
0.0771571072319202,0.02547742970130832,
0.0772069825436409,0.006812100669248984,
0.0772568578553616,0.014781346092439838,
0.0773067331670823,0.015817921567829234,
0.07735660847880299,0.03123756002172555,
0.07740648379052369,-0.0036867295865729913,
0.0774563591022444,0.02966595733337411,
0.07750623441396509,0.03214349118794238,
0.07755610972568579,0.008505268026892882,
0.07760598503740648,0.028496467147686264,
0.07765586034912718,0.031655543807869065,
0.07770573566084787,0.0390410024762361,
0.07775561097256858,0.026984099601501787,
0.07780548628428928,0.038307292627970016,
0.07785536159600998,0.001008414718048127,
0.07790523690773067,0.04149816491963409,
0.07795511221945137,0.027368704297767756,
0.07800498753117208,0.019264997796985806,
0.07805486284289277,0.04172816203994774,
0.07810473815461347,0.014165170497115171,
0.07815461346633416,0.020514374424738916,
0.07820448877805486,0.010452596360950151,
0.07825436408977555,0.011214713458958185,
0.07830423940149626,0.03436681942779153,
0.07835411471321696,0.06201086194970483,
0.07840399002493766,0.023462136961379044,
0.07845386533665835,0.03163673852438167,
0.07850374064837905,0.018264056505864316,
0.07855361596009976,0.02600270729654678,
0.07860349127182045,0.028239700657514855,
0.07865336658354115,0.014270360594016792,
0.07870324189526184,0.0425090867814655,
0.07875311720698254,0.031525558881327034,
0.07880299251870324,0.005830342169334788,
0.07885286783042394,0.04115218258986595,
0.07890274314214464,0.01769670328897115,
0.07895261845386534,0.012566992514740319,
0.07900249376558603,0.01939069111774868,
0.07905236907730673,0.0418840031384143,
0.07910224438902744,0.02282143196902548,
0.07915211970074813,0.029732084148836324,
0.07920199501246883,0.02487202138590213,
0.07925187032418952,0.021431680316038926,
0.07930174563591022,0.030425371034614932,
0.07935162094763092,0.01926407619178854,
0.07940149625935163,0.04102594346185868,
0.07945137157107232,0.03155824303573915,
0.07950124688279302,0.013985450862280773,
0.07955112219451371,0.03875705827581222,
0.07960099750623441,0.031781653940403866,
0.07965087281795512,0.023198118418500356,
0.07970074812967581,0.020576698114911588,
0.07975062344139651,0.004113063158569935,
0.0798004987531172,0.008914111948421764,
0.0798503740648379,0.020934791769043663,
0.07990024937655861,0.014072537435152787,
0.0799501246882793,0.036311696564299896,
0.08,0.006098988623536462,
0.0800498753117207,0.05622432356604091,
0.0800997506234414,0.040696431631949824,
0.08014962593516209,0.030393498880032996,
0.0801995012468828,0.013450597092288125,
0.0802493765586035,0.040541651070710255,
0.08029925187032419,0.039596437606458625,
0.08034912718204489,0.050682380205111045,
0.08039900249376558,0.010754573756478016,
0.08044887780548629,0.0327659027682887,
0.08049875311720699,0.013051379412480945,
0.08054862842892768,0.013305074379306697,
0.08059850374064838,0.02192434872406157,
0.08064837905236907,0.03102205793959125,
0.08069825436408977,0.014167988608930348,
0.08074812967581048,0.0011997388937262689,
0.08079800498753117,0.03679140613465343,
0.08084788029925187,-0.008999333942336152,
0.08089775561097257,-0.004397316027257649,
0.08094763092269326,0.016885747161526556,
0.08099750623441397,0.02125391344492221,
0.08104738154613467,0.024248845573933826,
0.08109725685785536,0.014554467175321729,
0.08114713216957606,0.011060674202063081,
0.08119700748129675,0.01951263023666059,
0.08124688279301745,0.04879279968366526,
0.08129675810473816,-0.00027778089956101773,
0.08134663341645886,0.018176233886072514,
0.08139650872817955,0.01767324484252162,
0.08144638403990025,0.008627676414123757,
0.08149625935162094,0.002480951392929212,
0.08154613466334165,0.007771512731424787,
0.08159600997506235,0.058535950578465876,
0.08164588528678304,0.03551041989263798,
0.08169576059850374,0.04198284281271317,
0.08174563591022443,0.019766637325512683,
0.08179551122194513,0.02910593119300809,
0.08184538653366584,0.00087162246737384,
0.08189526184538654,0.021376099470845455,
0.08194513715710723,0.023485654100998076,
0.08199501246882793,0.03646537134405121,
0.08204488778054862,0.0045173820276584176,
0.08209476309226933,0.0300612253475879,
0.08214463840399003,0.01893891173052895,
0.08219451371571072,0.0202080558915825,
0.08224438902743142,-0.0010917684268829803,
0.08229426433915212,0.012680462714589122,
0.08234413965087282,0.004921992521256774,
0.08239401496259352,0.049540645067213215,
0.08244389027431422,0.01295078019080007,
0.08249376558603491,0.04400384824582974,
0.08254364089775561,0.05066820699572342,
0.0825935162094763,0.012311771955264327,
0.08264339152119701,0.01214781118896442,
0.08269326683291771,0.0378874421838014,
0.0827431421446384,0.02627841775535292,
0.0827930174563591,0.01562761267759563,
0.0828428927680798,0.03771629185601529,
0.0828927680798005,0.012263788101384232,
0.0829426433915212,0.016803375811996937,
0.0829925187032419,0.023933073724830365,
0.08304239401496259,0.028490057479457816,
0.08309226932668329,0.0028233755705151173,
0.08314214463840398,-0.0010129757400842224,
0.0831920199501247,0.0039397237222061395,
0.08324189526184539,0.055088112675114466,
0.08329177057356608,0.011398489889042402,
0.08334164588528678,0.016166156335388388,
0.08339152119700748,0.029121928460626924,
0.08344139650872819,-0.004765999008188977,
0.08349127182044888,0.039997242368784644,
0.08354114713216958,-0.0011060865962729295,
0.08359102244389027,0.02610627051262463,
0.08364089775561097,0.02525678605852764,
0.08369077306733166,0.025895819800205205,
0.08374064837905237,-0.0077800295951791325,
0.08379052369077307,0.02184095155166299,
0.08384039900249377,-0.0026273855595918168,
0.08389027431421446,-0.006785312847359327,
0.08394014962593516,0.02999687379020369,
0.08399002493765587,0.009078808526827305,
0.08403990024937656,-0.001116436239901035,
0.08408977556109726,0.03044402802269495,
0.08413965087281795,0.027636009035039124,
0.08418952618453865,-0.007248752132112478,
0.08423940149625936,0.007635208795945261,
0.08428927680798005,0.004702276025633165,
0.08433915211970075,-0.014376283961015899,
0.08438902743142145,0.014577747025918191,
0.08443890274314214,0.016564626712259826,
0.08448877805486284,0.02331043870162181,
0.08453865336658355,0.016757445219998418,
0.08458852867830424,0.00033764336552805085,
0.08463840399002494,0.001428987684465444,
0.08468827930174563,0.015656085622018635,
0.08473815461346633,0.003713607409500947,
0.08478802992518704,0.02718808516786022,
0.08483790523690773,0.015832246025620927,
0.08488778054862843,0.030083516122580593,
0.08493765586034913,0.03944386426311108,
0.08498753117206982,0.010100114863835625,
0.08503740648379052,0.023220550399506164,
0.08508728179551123,0.02798199883353751,
0.08513715710723192,-0.0033989619856041693,
0.08518703241895262,-0.008876152577371121,
0.08523690773067331,0.014752378054684453,
0.08528678304239401,-0.0159399596310434,
0.08533665835411472,-0.014889675898543335,
0.08538653366583542,-0.0026204491678033194,
0.08543640897755611,-0.017439412442813985,
0.0854862842892768,0.013272840110652911,
0.0855361596009975,-0.004522042154778605,
0.0855860349127182,-0.010938941298043068,
0.08563591022443891,0.011127102140659437,
0.0856857855361596,0.0015070997963850705,
0.0857356608478803,0.005237369797326536,
0.085785536159601,-0.017448785905247732,
0.08583541147132169,-0.013385988650950049,
0.0858852867830424,-0.00428112196128267,
0.0859351620947631,0.01611524533504504,
0.08598503740648379,0.008855606786571855,
0.08603491271820449,0.003916081571718749,
0.08608478802992518,0.022432072939730905,
0.08613466334164588,-0.008624052489300146,
0.08618453865336659,-0.001011972600133213,
0.08623441396508728,-0.011719143200302665,
0.08628428927680798,-0.03201547505011756,
0.08633416458852868,0.006626671050014772,
0.08638403990024937,-0.049196691506978585,
0.08643391521197008,-0.013479100911726646,
0.08648379052369078,-0.017957124674430273,
0.08653366583541147,0.02432262894097844,
0.08658354114713217,-0.03289525020117555,
0.08663341645885286,0.007591476991515132,
0.08668329177057357,0.002149126316545265,
0.08673316708229427,-0.011502846815617734,
0.08678304239401496,-0.007921883512825592,
0.08683291770573566,-0.002808808108535743,
0.08688279301745636,-0.012040304727111772,
0.08693266832917705,-0.03085422526345228,
0.08698254364089776,0.0058460980539684,
0.08703241895261846,-0.0038137835517981786,
0.08708229426433915,-0.014907592191162717,
0.08713216957605985,-0.011461565054593191,
0.08718204488778054,-0.011655707067183621,
0.08723192019950125,-0.02326254652359342,
0.08728179551122195,-0.014709934203506355,
0.08733167082294264,0.015036507150140769,
0.08738154613466334,0.017091657622460676,
0.08743142144638404,0.001854252689150843,
0.08748129675810473,0.0047057047217766105,
0.08753117206982544,-0.001408965704953689,
0.08758104738154614,-0.0043639850853021776,
0.08763092269326683,-0.01536498750125091,
0.08768079800498753,-0.013619017814866664,
0.08773067331670822,-0.012476065487068169,
0.08778054862842893,-0.021857069262732166,
0.08783042394014963,-0.017490043885847774,
0.08788029925187033,0.033078275253162155,
0.08793017456359102,-0.027198493113130495,
0.08798004987531172,0.0016341007742603064,
0.08802992518703241,-0.005464268609922132,
0.08807980049875312,0.012011097580779222,
0.08812967581047382,0.004884771346753159,
0.08817955112219451,0.004555269604535995,
0.08822942643391521,-0.0034186606656100016,
0.0882793017456359,-0.021896943669826856,
0.08832917705735661,-0.025342233836660538,
0.08837905236907731,-0.04939871548041663,
0.088428927680798,-0.026556092499290633,
0.0884788029925187,-0.025222893224217106,
0.0885286783042394,-0.025931548043457084,
0.0885785536159601,0.012318696724254206,
0.0886284289276808,0.00044897806903264163,
0.0886783042394015,-0.011515759897900067,
0.0887281795511222,-0.004344225439677512,
0.08877805486284289,-0.01598258776315965,
0.08882793017456359,-0.01855398973000989,
0.0888778054862843,-0.01788318543635754,
0.08892768079800499,0.004668013581699819,
0.08897755610972569,-0.0106322524262047,
0.08902743142144638,0.015517967936847054,
0.08907730673316708,-0.015478378151773954,
0.08912718204488779,0.004309436470577591,
0.08917705735660848,-0.025256487166046004,
0.08922693266832918,-0.015757559606418926,
0.08927680798004987,-0.027131941256091037,
0.08932668329177057,-0.010515268044549953,
0.08937655860349127,-0.01072835867020277,
0.08942643391521198,-0.03815507284427229,
0.08947630922693267,-0.033511759794862817,
0.08952618453865337,-0.010374027385431066,
0.08957605985037406,-0.002343804460538763,
0.08962593516209476,-0.015767044575434794,
0.08967581047381547,-0.007958488138196732,
0.08972568578553616,-0.012357735219143205,
0.08977556109725686,-0.025283729743553997,
0.08982543640897755,-0.02153859441196077,
0.08987531172069825,0.013136224441097553,
0.08992518703241895,-0.013780455911907909,
0.08997506234413966,-0.009899439009761393,
0.09002493765586035,-0.004751648839495819,
0.09007481296758105,0.002214089101419684,
0.09012468827930174,-0.004602543284334067,
0.09017456359102244,-0.0321907515833641,
0.09022443890274315,0.0075049979341697565,
0.09027431421446384,-0.02245847620437716,
0.09032418952618454,-0.01898931495922825,
0.09037406483790524,-0.003003741195211556,
0.09042394014962593,-0.010270177297204147,
0.09047381546134663,-0.02396564690664598,
0.09052369077306734,-0.04241987838477948,
0.09057356608478803,-0.03155361467499107,
0.09062344139650873,-0.019530478034789793,
0.09067331670822942,-0.012854938705128683,
0.09072319201995012,-0.011836063157192512,
0.09077306733167083,-0.02013799319848167,
0.09082294264339152,-0.012176106297079785,
0.09087281795511222,-0.0007946943295610836,
0.09092269326683292,-0.03839707177577903,
0.09097256857855361,-0.017361542271960562,
0.09102244389027432,-0.046745557507995465,
0.09107231920199502,-0.03911215437229283,
0.09112219451371571,0.0010335522714423236,
0.09117206982543641,0.028712519253330165,
0.0912219451371571,-0.029688107874915867,
0.0912718204488778,-0.02288778335529421,
0.09132169576059851,-0.017711420481382273,
0.0913715710723192,-0.0034829141970635774,
0.0914214463840399,-0.00822451255747968,
0.0914713216957606,-0.01779457956270554,
0.09152119700748129,-0.011010904427709819,
0.091571072319202,-0.022131832534419256,
0.0916209476309227,0.012970420342613271,
0.09167082294264339,0.004397591527339243,
0.09172069825436409,-0.012106784471594155,
0.09177057356608478,-0.012043883781266706,
0.09182044887780548,-0.01332366740151582,
0.09187032418952619,0.007905528247020788,
0.09192019950124689,-0.004183921172705127,
0.09197007481296758,-0.020438908657864296,
0.09201995012468828,0.012215902978227288,
0.09206982543640897,-0.015413097463936756,
0.09211970074812968,-0.0054804914732875225,
0.09216957605985038,-0.002670737958919667,
0.09221945137157107,0.004125885556056794,
0.09226932668329177,0.0110962010859929,
0.09231920199501246,-0.018799907222922255,
0.09236907730673316,0.010336766011137267,
0.09241895261845387,0.0015627559691920988,
0.09246882793017457,-0.014033657162952714,
0.09251870324189526,-0.0018770965474307457,
0.09256857855361596,-0.009218207388303465,
0.09261845386533665,0.020430743715951227,
0.09266832917705736,0.008161065389052955,
0.09271820448877806,-0.00703629144439023,
0.09276807980049875,-0.020160416595161306,
0.09281795511221945,-0.002666625759268007,
0.09286783042394015,0.014109346126245164,
0.09291770573566084,0.003085517452243624,
0.09296758104738155,-0.027089488417753823,
0.09301745635910225,-0.006613593477456257,
0.09306733167082294,0.02223390256418649,
0.09311720698254364,0.010768111323193538,
0.09316708229426433,0.010910551965664008,
0.09321695760598504,0.010490443030407241,
0.09326683291770574,-0.005068289316750183,
0.09331670822942643,0.027040145686558773,
0.09336658354114713,-0.008423207722825274,
0.09341645885286783,-0.00554915909687179,
0.09346633416458854,0.004621024003144557,
0.09351620947630923,0.014795993843312675,
0.09356608478802993,-0.013908740310066704,
0.09361596009975062,-0.005665230319952938,
0.09366583541147132,-0.005355332790627686,
0.09371571072319201,0.003757048298838165,
0.09376558603491272,-0.015106452776004867,
0.09381546134663342,-0.015585091918674595,
0.09386533665835411,-0.002869082683050128,
0.09391521197007481,-0.011059018315282032,
0.0939650872817955,0.005197032564128969,
0.09401496259351622,0.020437992048589055,
0.09406483790523691,-0.007216142289031379,
0.09411471321695761,-0.005488471385156622,
0.0941645885286783,0.0010776872141832596,
0.094214463840399,-0.010480020466358243,
0.0942643391521197,-0.0008528247893688284,
0.0943142144638404,0.0027196713351601604,
0.0943640897755611,-0.0026824174989171865,
0.0944139650872818,0.019652551577836037,
0.09446384039900249,0.024461826121404472,
0.09451371571072319,0.006436145232326448,
0.0945635910224439,0.021275664863990917,
0.09461346633416459,0.009181050747929707,
0.09466334164588529,0.01714937419986018,
0.09471321695760598,-0.005181478510991247,
0.09476309226932668,0.012647435475279906,
0.09481296758104737,0.005998262357608184,
0.09486284289276808,0.014401898153853976,
0.09491271820448878,0.01586402768303416,
0.09496259351620948,-0.0005722702808978099,
0.09501246882793017,0.022797810917911845,
0.09506234413965087,-0.010286945528482663,
0.09511221945137158,0.01753050099847142,
0.09516209476309227,0.0034235427439099804,
0.09521197007481297,0.020460685137665212,
0.09526184538653366,0.019351748490443146,
0.09531172069825436,0.022840951262283346,
0.09536159600997507,0.015057146473131791,
0.09541147132169576,0.01688180443272937,
0.09546134663341646,0.01131320698848034,
0.09551122194513716,-0.006319085925110646,
0.09556109725685785,0.02779415774297512,
0.09561097256857855,0.010717582699581537,
0.09566084788029926,0.00978202067728428,
0.09571072319201995,-0.0015893588065542443,
0.09576059850374065,-0.0031442985883528597,
0.09581047381546134,-0.002771420669814584,
0.09586034912718204,0.005273709212583061,
0.09591022443890275,-0.003018854250083247,
0.09596009975062345,0.026438902987893635,
0.09600997506234414,0.028389063710041657,
0.09605985037406484,0.0023960797045933565,
0.09610972568578553,0.006065848556679029,
0.09615960099750623,-0.01049983092692932,
0.09620947630922694,0.020049362477668094,
0.09625935162094763,0.010195326103418601,
0.09630922693266833,0.004164526729165922,
0.09635910224438902,0.0126040300030674,
0.09640897755610972,0.040924268898085814,
0.09645885286783043,0.03861325540355212,
0.09650872817955113,0.017107286419444798,
0.09655860349127182,0.017962079540206857,
0.09660847880299252,0.00231427719816177,
0.09665835411471321,0.024819579234149364,
0.09670822942643391,0.00737844162226853,
0.09675810473815462,-0.0029739571104933533,
0.09680798004987531,0.059649994871362896,
0.09685785536159601,0.05160215294603208,
0.0969077306733167,0.026241420375355727,
0.0969576059850374,0.0023447807009114863,
0.09700748129675811,0.03191855219750005,
0.0970573566084788,0.030494947577282473,
0.0971072319201995,0.002429287147228485,
0.0971571072319202,0.001131613514092824,
0.0972069825436409,0.029520340953329942,
0.09725685785536159,-0.007324864384968179,
0.0973067331670823,0.007680808503495486,
0.097356608478803,0.01434988911506202,
0.09740648379052369,0.023087707162711316,
0.09745635910224439,0.028632467327536094,
0.09750623441396508,0.006699732407049212,
0.09755610972568579,0.001959662470349479,
0.09760598503740649,0.01654292280474056,
0.09765586034912718,0.033472849761280773,
0.09770573566084788,0.02001570159426524,
0.09775561097256857,0.04485358542935751,
0.09780548628428928,0.030516429722920277,
0.09785536159600998,0.01419143940716778,
0.09790523690773068,0.00438739458185234,
0.09795511221945137,0.028468300862637068,
0.09800498753117207,0.0362281453484007,
0.09805486284289276,0.05177714180032317,
0.09810473815461347,0.035022041534101156,
0.09815461346633417,0.027416028014669646,
0.09820448877805486,0.018852004158637387,
0.09825436408977556,0.020304454466640403,
0.09830423940149625,0.018519903151256456,
0.09835411471321696,-0.0012423615045309734,
0.09840399002493766,0.015886291320631712,
0.09845386533665836,0.035470898106215065,
0.09850374064837905,0.043126051116052444,
0.09855361596009975,0.03283626397878431,
0.09860349127182044,0.03808224839907873,
0.09865336658354115,0.0017846374883355859,
0.09870324189526185,0.025055000559453817,
0.09875311720698254,0.019982730967393697,
0.09880299251870324,0.005281546330160241,
0.09885286783042393,0.02392904326925633,
0.09890274314214464,0.03987060528251651,
0.09895261845386534,0.0201340429110524,
0.09900249376558604,0.037241450767974686,
0.09905236907730673,0.021601276963979017,
0.09910224438902743,-0.01186755042008884,
0.09915211970074812,0.024270969810619054,
0.09920199501246883,0.03458435280068131,
0.09925187032418953,0.055586084211873575,
0.09930174563591022,0.03049251625909001,
0.09935162094763092,0.027750516247434753,
0.09940149625935162,0.026553524402603577,
0.09945137157107233,0.03362939605955459,
0.09950124688279302,0.015230538181019774,
0.09955112219451372,0.01586279486473867,
0.09960099750623441,0.03485652512009134,
0.09965087281795511,0.023376794797609946,
0.0997007481296758,0.022144884275138645,
0.09975062344139651,0.02248213443294096,
0.09980049875311721,0.030277315119208448,
0.0998503740648379,0.033015808313987434,
0.0999002493765586,0.027782882737704004,
0.0999501246882793,0.025329004967192162,
0.1,0.0522913174093485,
0.1000498753117207,0.011503413728407616,
0.1000997506234414,0.037390573372895086,
0.10014962593516209,0.024281185585651836,
0.10019950124688279,0.03289974330919769,
0.1002493765586035,0.06850603158894726,
0.1002992518703242,0.0402062654182633,
0.10034912718204489,0.025631870449451432,
0.10039900249376559,0.025229173187981777,
0.10044887780548628,0.0339249219041258,
0.10049875311720698,0.028663127074984827,
0.10054862842892769,0.028980159749744137,
0.10059850374064838,0.025005887327213892,
0.10064837905236908,0.048254098087550615,
0.10069825436408977,0.03168794641605183,
0.10074812967581047,0.050860540915517935,
0.10079800498753118,0.03359899863349281,
0.10084788029925187,0.00931313232924788,
0.10089775561097257,0.018448795904130313,
0.10094763092269327,0.04053279009250235,
0.10099750623441396,0.03313836342034649,
0.10104738154613466,-0.0060380863144643936,
0.10109725685785537,0.023615622328578608,
0.10114713216957606,0.0439845819796782,
0.10119700748129676,0.021812777499004548,
0.10124688279301745,0.009761237696426391,
0.10129675810473815,0.01613048371662762,
0.10134663341645886,0.019617202445142007,
0.10139650872817955,0.023699324206939057,
0.10144638403990025,0.007626951666587896,
0.10149625935162095,0.022137796621112562,
0.10154613466334164,0.013812825812725252,
0.10159600997506234,0.011471243659269782,
0.10164588528678305,-0.018251921413115525,
0.10169576059850374,0.053333940253980076,
0.10174563591022444,0.03660316630774983,
0.10179551122194513,0.005740648693642443,
0.10184538653366583,0.0344530530793312,
0.10189526184538654,0.01747528635109656,
0.10194513715710724,0.03872452017483284,
0.10199501246882793,0.020661094685179675,
0.10204488778054863,0.04448312287324048,
0.10209476309226932,0.029505415714975367,
0.10214463840399003,0.02555807985207415,
0.10219451371571073,0.0232837397657238,
0.10224438902743142,0.03739379677596661,
0.10229426433915212,0.03832798310962077,
0.10234413965087281,0.013379755515376459,
0.10239401496259351,0.004381491208045422,
0.10244389027431422,0.0043629543264789815,
0.10249376558603492,0.023363890509486153,
0.10254364089775561,0.03799088180466502,
0.10259351620947631,0.028391648411810955,
0.102643391521197,0.021612868248144047,
0.10269326683291771,0.04834720464647904,
0.10274314214463841,0.04597102665795387,
0.1027930174563591,0.015668984753348603,
0.1028428927680798,0.0066704994395456775,
0.1028927680798005,0.005968359179572662,
0.10294264339152119,0.04753884546270964,
0.1029925187032419,-0.007695114650720626,
0.1030423940149626,0.03158736994143415,
0.10309226932668329,0.021161556347001526,
0.10314214463840399,0.0002923913136276511,
0.10319201995012468,0.03155978137639766,
0.10324189526184539,0.026809918086750772,
0.10329177057356609,0.02732727564684246,
0.10334164588528678,0.019143137688113494,
0.10339152119700748,0.03249193778813204,
0.10344139650872818,-0.008062046325447096,
0.10349127182044887,0.0005143626573551087,
0.10354114713216958,0.011067428489003214,
0.10359102244389028,0.02953538769290942,
0.10364089775561097,0.016163809419996025,
0.10369077306733167,0.011528533749497756,
0.10374064837905236,0.02183121743779523,
0.10379052369077307,0.010695327967143519,
0.10384039900249377,0.013776260007208087,
0.10389027431421446,0.0023370120991674462,
0.10394014962593516,0.004548679443007752,
0.10399002493765586,0.00917468396583343,
0.10403990024937655,-0.0023584331549764276,
0.10408977556109726,-0.00041659692098234766,
0.10413965087281796,0.02111522149686058,
0.10418952618453865,0.0456928820185514,
0.10423940149625935,0.015907608043320445,
0.10428927680798004,0.007099029138362903,
0.10433915211970075,-0.0023047066556994966,
0.10438902743142145,0.005733217544920791,
0.10443890274314215,0.019117222872128664,
0.10448877805486284,0.01782153412713192,
0.10453865336658354,0.038064427140991015,
0.10458852867830425,0.015031662883966505,
0.10463840399002494,0.024911569447146516,
0.10468827930174564,-0.004636685305756142,
0.10473815461346633,-0.024363080567777383,
0.10478802992518703,0.003260884359656174,
0.10483790523690772,0.016425131878627052,
0.10488778054862843,0.02155718283120288,
0.10493765586034913,0.04527589825664657,
0.10498753117206983,0.014138397454950945,
0.10503740648379052,0.03993284030031098,
0.10508728179551122,-0.007149266897079298,
0.10513715710723193,0.0008741518871050302,
0.10518703241895262,0.003066781635728031,
0.10523690773067332,-0.006447103383640871,
0.10528678304239401,-0.013775043917985121,
0.10533665835411471,0.016245121233601396,
0.1053865336658354,0.0051080913868281185,
0.10543640897755611,0.006527482035851432,
0.10548628428927681,0.01795307666790226,
0.1055361596009975,0.0008446427334752636,
0.1055860349127182,0.010723372231371132,
0.1056359102244389,0.012927442260063707,
0.10568578553615961,0.029287788052316646,
0.1057356608478803,0.030435153970048118,
0.105785536159601,-0.0034264912181096643,
0.1058354114713217,-0.0007950832068705071,
0.10588528678304239,-0.015295797645294642,
0.10593516209476309,0.020804353074168228,
0.1059850374064838,0.023667491172553387,
0.10603491271820449,0.013280596431145531,
0.10608478802992519,-0.033762558992748104,
0.10613466334164588,0.025476359156436795,
0.10618453865336658,0.01164111935148725,
0.10623441396508729,0.027847820675606885,
0.10628428927680798,0.03948623448509839,
0.10633416458852868,0.01753926743904433,
0.10638403990024937,0.010973423352932913,
0.10643391521197007,-0.04774073647338321,
0.10648379052369077,0.005096823383792686,
0.10653366583541148,0.003568361597662468,
0.10658354114713217,-0.015925152429576678,
0.10663341645885287,0.012414061792909662,
0.10668329177057356,0.011717568140897012,
0.10673316708229426,0.009402039856313065,
0.10678304239401497,-0.014917071792788162,
0.10683291770573566,-0.012081646709150767,
0.10688279301745636,-0.006021807739052709,
0.10693266832917706,-0.013988923963758903,
0.10698254364089775,-0.0032873573711997505,
0.10703241895261846,0.003892520341026406,
0.10708229426433916,0.007190852805157083,
0.10713216957605985,0.00872691410313723,
0.10718204488778055,-0.004630722771831426,
0.10723192019950124,0.010272641917901316,
0.10728179551122194,0.004278864208090765,
0.10733167082294265,-0.007965708692799441,
0.10738154613466334,0.0035378431540377796,
0.10743142144638404,0.006133844217732385,
0.10748129675810474,-0.007617899039581434,
0.10753117206982543,0.023282319944429898,
0.10758104738154614,-0.0021065513662753897,
0.10763092269326684,0.026399734297667378,
0.10768079800498753,-0.00044914369004207463,
0.10773067331670823,-0.029237621137358442,
0.10778054862842892,0.007246545888842857,
0.10783042394014962,0.028460879594274936,
0.10788029925187033,0.014763031511981608,
0.10793017456359102,-0.03204662795448352,
0.10798004987531172,-0.003187188892392526,
0.10802992518703242,-0.008023830889124672,
0.10807980049875311,-0.012432796234817568,
0.10812967581047382,0.01663363846709244,
0.10817955112219452,-0.005044627102231523,
0.10822942643391521,0.01727835840263653,
0.10827930174563591,0.005210084251378576,
0.1083291770573566,-0.022910984474282067,
0.1083790523690773,0.0032298830303087774,
0.10842892768079801,-0.008302196671460324,
0.1084788029925187,0.0010111422555886714,
0.1085286783042394,-0.01620727714955085,
0.1085785536159601,-0.012540337576607186,
0.10862842892768079,-0.02553665707642906,
0.1086783042394015,-0.007338184099777292,
0.1087281795511222,-0.018739094464912592,
0.1087780548628429,-0.01734201253396547,
0.10882793017456359,-0.010362637492702829,
0.10887780548628428,-0.010336114628697312,
0.108927680798005,-0.005847048066949142,
0.10897755610972569,0.005975339082532397,
0.10902743142144639,-0.0552583349669688,
0.10907730673316708,0.014760185983229094,
0.10912718204488778,-0.007501196867389247,
0.10917705735660847,-0.007269553229182791,
0.10922693266832918,-0.020121203779364247,
0.10927680798004988,-0.001472001951385287,
0.10932668329177057,-0.04117388505023948,
0.10937655860349127,-0.032511583374199994,
0.10942643391521197,-0.00437686147049664,
0.10947630922693267,0.0038425589498729974,
0.10952618453865337,-0.002168008423680012,
0.10957605985037407,-0.04457783946148265,
0.10962593516209476,-0.010025642987597576,
0.10967581047381546,-0.017521844673284236,
0.10972568578553615,-0.003644151673961038,
0.10977556109725686,-0.014435808378711569,
0.10982543640897756,-0.004371325293921132,
0.10987531172069825,-0.0352191721807726,
0.10992518703241895,-0.0029039791962495506,
0.10997506234413965,0.0009229612210291307,
0.11002493765586036,0.0004371446996217637,
0.11007481296758105,-0.02041579048915606,
0.11012468827930175,-0.0140483625559692,
0.11017456359102244,-0.015634736300691968,
0.11022443890274314,-0.031227402357215786,
0.11027431421446383,-0.005457841021825608,
0.11032418952618454,0.0026893431696813856,
0.11037406483790524,-0.013252081851500893,
0.11042394014962593,-0.015222143650842582,
0.11047381546134663,0.0032602464945289695,
0.11052369077306733,0.01896530077141078,
0.11057356608478804,0.006595025436991458,
0.11062344139650873,-0.005023172380258565,
0.11067331670822943,-0.012270022296708311,
0.11072319201995012,-0.012653941103940445,
0.11077306733167082,-0.028556097094981678,
0.11082294264339151,-0.013951632809976312,
0.11087281795511222,-0.005240120948386731,
0.11092269326683292,-0.03407042817629581,
0.11097256857855362,-0.017327256232820047,
0.11102244389027431,0.01689025770481808,
0.111072319201995,-0.01792811214802571,
0.11112219451371572,0.0027066300650371595,
0.11117206982543641,0.0010988535525690672,
0.11122194513715711,-0.017041961460899636,
0.1112718204488778,-0.03167764650675456,
0.1113216957605985,-0.014529920425490046,
0.11137157107231921,-0.012289048247547556,
0.1114214463840399,-0.021511463747595227,
0.1114713216957606,-0.012135617870051638,
0.1115211970074813,0.0013229672461654018,
0.11157107231920199,-0.02755427291439863,
0.11162094763092269,-0.03257238666957784,
0.1116708229426434,-0.014794687443683192,
0.11172069825436409,0.009193378518304417,
0.11177057356608479,-0.011551628684769643,
0.11182044887780548,0.002730840467771457,
0.11187032418952618,0.0034195232879274517,
0.11192019950124689,-0.016388962696461694,
0.11197007481296758,-0.019285233627991276,
0.11201995012468828,-0.01670197392446086,
0.11206982543640898,0.0036088397119691112,
0.11211970074812967,0.001928450194306425,
0.11216957605985037,-0.002200315396079058,
0.11221945137157108,-0.036641390270801086,
0.11226932668329177,-0.016557437923012508,
0.11231920199501247,-0.011597512555165007,
0.11236907730673316,0.0036692013291353617,
0.11241895261845386,-0.02253871301380886,
0.11246882793017457,-0.007742712324363269,
0.11251870324189527,0.008026828780335133,
0.11256857855361596,0.003810138668953753,
0.11261845386533666,0.011176965177163803,
0.11266832917705735,-0.0023893760294985524,
0.11271820448877805,-0.009262062886874464,
0.11276807980049876,-0.029886995324411483,
0.11281795511221945,-0.02297548127300294,
0.11286783042394015,-0.025089188655769562,
0.11291770573566084,-0.010546698509573632,
0.11296758104738154,-0.016137995083167645,
0.11301745635910225,0.004877966540536641,
0.11306733167082295,-0.0043371293938220135,
0.11311720698254364,-0.014096039944180436,
0.11316708229426434,0.01116443501892817,
0.11321695760598503,0.0013426830551586206,
0.11326683291770574,-0.008508256739824924,
0.11331670822942644,-0.015371270530846358,
0.11336658354114713,0.0031130910828714425,
0.11341645885286783,-0.018497864724328877,
0.11346633416458853,-0.0043741455886217116,
0.11351620947630922,0.008809577067358553,
0.11356608478802993,-0.005098644895516706,
0.11361596009975063,-0.008574679777201914,
0.11366583541147132,0.027643289165276516,
0.11371571072319202,-0.0016745484688891993,
0.11376558603491271,0.014271156646129754,
0.11381546134663342,0.020229633424807297,
0.11386533665835412,-0.0032408558214775144,
0.11391521197007481,-0.0009110042852190346,
0.11396508728179551,-0.012140072242782603,
0.1140149625935162,-0.0028320875105110723,
0.1140648379052369,-0.007607722782393371,
0.11411471321695761,-0.029970731585529393,
0.1141645885286783,0.025457751163377264,
0.114214463840399,0.01735009337919749,
0.1142643391521197,-0.00691683953932448,
0.1143142144638404,0.01109507129639067,
0.1143640897755611,-0.013829643107822727,
0.1144139650872818,-0.004001102420800937,
0.1144638403990025,0.01893692803396604,
0.11451371571072319,-0.005121562411521805,
0.11456359102244389,0.0050350573167883775,
0.11461346633416458,0.030164944694325405,
0.11466334164588529,-0.002582961158120428,
0.11471321695760599,0.01811279333774468,
0.11476309226932668,0.0024755726262008287,
0.11481296758104738,0.016413033062002695,
0.11486284289276807,-0.001765272939024459,
0.11491271820448878,0.007382670580147404,
0.11496259351620948,0.009085334716629694,
0.11501246882793018,0.01966332081332369,
0.11506234413965087,0.009167452673196082,
0.11511221945137157,0.02548733158947132,
0.11516209476309226,0.0106007874000303,
0.11521197007481297,-0.004230563438996495,
0.11526184538653367,0.01713885049297849,
0.11531172069825436,0.010097026260790428,
0.11536159600997506,-0.007675561167398842,
0.11541147132169575,0.020149658870556423,
0.11546134663341646,0.0356128888188704,
0.11551122194513716,0.021500635287355345,
0.11556109725685786,0.004583141562790474,
0.11561097256857855,0.030365885954409057,
0.11566084788029925,0.015977098282201403,
0.11571072319201996,0.007405558534168847,
0.11576059850374065,0.007456345869675305,
0.11581047381546135,0.021741724093699552,
0.11586034912718204,0.007562511008543458,
0.11591022443890274,0.018931895476869617,
0.11596009975062344,0.006140847213539951,
0.11600997506234415,0.002887625111330956,
0.11605985037406484,0.003299137380112274,
0.11610972568578554,0.014774305154279471,
0.11615960099750623,0.01065354141711122,
0.11620947630922693,0.028273316472882434,
0.11625935162094764,0.031371954938132704,
0.11630922693266833,0.030756078076677847,
0.11635910224438903,0.026410682013922417,
0.11640897755610972,0.03891012505004929,
0.11645885286783042,0.011034076701495242,
0.11650872817955112,-0.008936335664739076,
0.11655860349127183,0.030392705469746595,
0.11660847880299252,0.025305696942418007,
0.11665835411471322,0.029884118251121736,
0.11670822942643391,0.014118112455285986,
0.11675810473815461,0.017878688829879696,
0.11680798004987532,0.01475918842506543,
0.11685785536159601,0.011184909397647817,
0.11690773067331671,0.03128758455729362,
0.1169576059850374,0.039251148566719594,
0.1170074812967581,0.01788230712484971,
0.1170573566084788,-2.100138421890635e-05,
0.1171072319201995,0.018698097688957034,
0.1171571072319202,0.017957389761573402,
0.1172069825436409,0.048262666774179994,
0.1172568578553616,0.037251829197698066,
0.11730673316708229,0.029200176187427776,
0.117356608478803,0.00566929267067404,
0.1174064837905237,0.020183110447403868,
0.11745635910224439,0.03354959426787025,
0.11750623441396509,0.018157464466652094,
0.11755610972568578,0.02730239993088505,
0.11760598503740648,0.03353633063383235,
0.11765586034912719,0.04961575945661359,
0.11770573566084788,0.006549367437345854,
0.11775561097256858,0.019507906953124748,
0.11780548628428927,0.002013323673228866,
0.11785536159600997,0.03749965250681963,
0.11790523690773068,0.02702155988623063,
0.11795511221945137,0.04414827906251516,
0.11800498753117207,0.03221990418444911,
0.11805486284289277,0.013963961361234433,
0.11810473815461346,0.06143210786594855,
0.11815461346633417,0.007032996814662365,
0.11820448877805487,0.018368144372542777,
0.11825436408977556,0.01466300641879235,
0.11830423940149626,0.011233541345148515,
0.11835411471321695,0.03030338638794749,
0.11840399002493765,0.018179411198146207,
0.11845386533665836,0.0279152789733556,
0.11850374064837906,0.05727933041577815,
0.11855361596009975,0.03584215967271774,
0.11860349127182045,0.004588079415245864,
0.11865336658354114,0.03178329692386461,
0.11870324189526185,0.029305260978703698,
0.11875311720698255,0.015941289393380836,
0.11880299251870324,0.039116263767001336,
0.11885286783042394,0.037517851128665375,
0.11890274314214463,0.028820948046558294,
0.11895261845386533,0.01407938754801018,
0.11900249376558604,0.013929391894378076,
0.11905236907730674,-0.00463801738859651,
0.11910224438902743,0.026076567802861758,
0.11915211970074813,0.03723882571434227,
0.11920199501246882,0.05514114863386687,
0.11925187032418953,0.006143152225052625,
0.11930174563591023,0.0421523715969122,
0.11935162094763092,0.004079470046699559,
0.11940149625935162,0.022909575212834366,
0.11945137157107232,0.046908415460643546,
0.11950124688279301,0.026283426679729573,
0.11955112219451372,0.009717168817049922,
0.11960099750623442,0.01774751801763097,
0.11965087281795511,0.050872792893349596,
0.11970074812967581,0.028533975300206023,
0.1197506234413965,0.012497556649720583,
0.11980049875311721,0.07107488677929052,
0.11985037406483791,0.03585813806583593,
0.1199002493765586,0.029558072175564835,
0.1199501246882793,0.017404665475980838,
0.12,0.011073629913774419,
0.1200498753117207,0.0259415838378857,
0.1200997506234414,0.03646164588910755,
0.1201496259351621,0.05014061804398094,
0.12019950124688279,0.0484678676381678,
0.12024937655860349,0.0244216070417173,
0.12029925187032418,0.02024158957751269,
0.1203491271820449,0.011221090616706852,
0.12039900249376559,0.018207728774974265,
0.12044887780548628,0.0072042572220337026,
0.12049875311720698,0.01218878850916415,
0.12054862842892768,0.0033596203809790337,
0.12059850374064839,0.02597035370777211,
0.12064837905236908,0.03813102996247382,
0.12069825436408978,0.01720265845639424,
0.12074812967581047,0.006841420777892859,
0.12079800498753117,0.04791895326159955,
0.12084788029925186,0.015476976883624802,
0.12089775561097257,0.01719903996590317,
0.12094763092269327,0.006395749815723269,
0.12099750623441397,-0.004443707338488152,
0.12104738154613466,0.04708405071393419,
0.12109725685785536,0.017786509514775166,
0.12114713216957607,0.03376642286812355,
0.12119700748129676,0.039046207081360335,
0.12124688279301746,0.015564014775755383,
0.12129675810473815,0.07047751922529058,
0.12134663341645885,0.00370453770628704,
0.12139650872817954,0.023624879072084472,
0.12144638403990025,0.05807020522464597,
0.12149625935162095,0.023541502676335122,
0.12154613466334165,0.02520118764517205,
0.12159600997506234,0.022432683257618227,
0.12164588528678304,0.05137856769186877,
0.12169576059850375,0.03515956746094488,
0.12174563591022444,0.04009875056440345,
0.12179551122194514,0.013827891271167481,
0.12184538653366583,0.02485727921194286,
0.12189526184538653,0.006865148335200296,
0.12194513715710723,0.016214280775896348,
0.12199501246882793,0.03502895397182264,
0.12204488778054863,0.028981972631341876,
0.12209476309226933,0.014407661897814507,
0.12214463840399002,0.06252604994661812,
0.12219451371571072,0.04230534746187621,
0.12224438902743143,0.038283267612585783,
0.12229426433915212,0.04036228543025938,
0.12234413965087282,0.036928345967582744,
0.12239401496259351,0.025704539760517245,
0.12244389027431421,0.026634335493218208,
0.12249376558603492,0.005806665902984384,
0.12254364089775562,0.0011559277715017142,
0.12259351620947631,0.024136809652380267,
0.122643391521197,0.030107257852630978,
0.1226932668329177,0.017429198355491324,
0.1227431421446384,0.037229017575499804,
0.12279301745635911,0.011513827488462178,
0.1228428927680798,0.06655572374366192,
0.1228927680798005,0.013456592129089165,
0.1229426433915212,0.024009777941993694,
0.12299251870324189,0.018212701579432153,
0.1230423940149626,0.02420788909428727,
0.1230922693266833,0.00869739689521324,
0.12314214463840399,0.026506740157385935,
0.12319201995012469,0.03500667293666325,
0.12324189526184538,0.014375622844983168,
0.12329177057356608,0.03504771367839331,
0.12334164588528679,0.016724855120287856,
0.12339152119700748,0.01648296639771253,
0.12344139650872818,0.0327769659931266,
0.12349127182044888,0.02712303973346475,
0.12354114713216957,0.051181038724632505,
0.12359102244389028,0.021965941927866866,
0.12364089775561098,0.036436554390320855,
0.12369077306733167,-0.0020431491399241115,
0.12374064837905237,0.004176180524160956,
0.12379052369077306,0.016582949030807516,
0.12384039900249376,6.529028617575233e-06,
0.12389027431421447,0.036762480462582854,
0.12394014962593516,0.023946575388956087,
0.12399002493765586,0.013771097596972006,
0.12403990024937656,0.001391348610103883,
0.12408977556109725,0.01236034847397513,
0.12413965087281796,0.025161490850999155,
0.12418952618453866,-0.004901186696959263,
0.12423940149625935,0.017430995658721783,
0.12428927680798005,0.010952906744361989,
0.12433915211970074,0.022597692798213623,
0.12438902743142144,0.012146560208941247,
0.12443890274314215,0.03017664631992957,
0.12448877805486284,-0.005124702039735602,
0.12453865336658354,0.03092316390904761,
0.12458852867830424,0.02397857185688882,
0.12463840399002493,0.03386439182181017,
0.12468827930174564,-0.028274125970206225,
0.12473815461346634,0.019869908748611272,
0.12478802992518703,0.0005333898387041656,
0.12483790523690773,0.014846808314365714,
0.12488778054862842,0.035368588704715084,
0.12493765586034913,0.017789248204039793,
0.12498753117206983,0.009526927765727312,
0.12503740648379053,0.007808838173126119,
0.12508728179551123,0.0010932752336931147,
0.12513715710723192,-0.01804940506340353,
0.12518703241895263,0.0022171173271418277,
0.1252369077306733,-0.006525570134904367,
0.12528678304239402,0.013058391032952577,
0.1253366583541147,2.159151046305513e-07,
0.1253865336658354,0.009530994608608189,
0.12543640897755612,-0.010297628567306193,
0.1254862842892768,-0.012966234585157155,
0.1255361596009975,-0.010465498688695226,
0.1255860349127182,-0.013958112287930927,
0.1256359102244389,0.0033833179936522424,
0.1256857855361596,0.011731799120916157,
0.1257356608478803,-0.01163564594515189,
0.125785536159601,0.005643863913432122,
0.12583541147132168,0.014392964477729366,
0.1258852867830424,0.0053625750642630745,
0.1259351620947631,0.0005801314920880402,
0.12598503740648379,0.018882441211203263,
0.1260349127182045,-0.027677764480682536,
0.12608478802992518,0.02883301462247912,
0.1261346633416459,0.006533530116995417,
0.1261845386533666,-0.0023953507048298456,
0.12623441396508728,-0.0041058510126829725,
0.126284289276808,-0.004164796740096487,
0.12633416458852867,0.015249969648978474,
0.12638403990024938,-0.01297917616471732,
0.1264339152119701,0.01129138564491072,
0.12648379052369077,0.0050238300328314285,
0.12653366583541148,-0.019910002718935182,
0.12658354114713216,-0.008545054093463646,
0.12663341645885287,0.0037991424169797005,
0.12668329177057355,0.028878042570295845,
0.12673316708229426,0.003923765285692198,
0.12678304239401497,-0.0024493018757454797,
0.12683291770573565,-0.016059013667300538,
0.12688279301745636,-0.0033869589766317427,
0.12693266832917705,0.015374716445443278,
0.12698254364089775,-0.019889293246800367,
0.12703241895261846,-0.03364396218506976,
0.12708229426433915,0.030387142324466297,
0.12713216957605986,0.001165589995110336,
0.12718204488778054,-0.01715415809243474,
0.12723192019950125,0.01597036212072386,
0.12728179551122196,0.00013569249060199065,
0.12733167082294264,0.0011500736121245712,
0.12738154613466335,-0.014272339251392353,
0.12743142144638403,-0.0010317983800226696,
0.12748129675810474,0.005405798991678427,
0.12753117206982545,-0.00458682746786988,
0.12758104738154613,0.004502633047771928,
0.12763092269326684,-0.005993545674543471,
0.12768079800498752,0.013460818809064395,
0.12773067331670823,-0.012266350028555206,
0.1277805486284289,-0.01268619329387594,
0.12783042394014962,-0.009139797012151847,
0.12788029925187033,-0.016149213775057906,
0.12793017456359101,0.002151936097518575,
0.12798004987531172,0.0017141962955188935,
0.1280299251870324,-0.03626672805146206,
0.12807980049875312,-0.0034909020888988797,
0.12812967581047383,-0.013179796205330739,
0.1281795511221945,-0.013444865306341983,
0.12822942643391522,0.006006673641699552,
0.1282793017456359,-0.008178856777794369,
0.1283291770573566,-3.368123258068109e-05,
0.12837905236907732,-0.011072392017541325,
0.128428927680798,0.0030029142362179555,
0.1284788029925187,-0.0035828203101672933,
0.1285286783042394,-0.018518500995224133,
0.1285785536159601,0.03147250032720618,
0.1286284289276808,0.016648560787106297,
0.1286783042394015,0.0030521266877038076,
0.1287281795511222,0.00819637905545523,
0.12877805486284288,0.0014085428585788127,
0.1288279301745636,-0.00287125173323955,
0.1288778054862843,-0.004767517063308017,
0.12892768079800498,-0.019260706443653686,
0.1289775561097257,-0.04427574743119502,
0.12902743142144638,-0.00677496411072202,
0.12907730673316709,-0.017545001119564366,
0.12912718204488777,-0.04701212011665783,
0.12917705735660848,-0.01134458465893088,
0.1292269326683292,-0.005537261264073906,
0.12927680798004987,0.002715325142556872,
0.12932668329177058,-0.010042534698527594,
0.12937655860349126,-0.012106546706807338,
0.12942643391521197,-0.02716950568754342,
0.12947630922693268,-0.0143906436410389,
0.12952618453865336,-0.0036721461750173446,
0.12957605985037407,-0.018466688307891995,
0.12962593516209475,-0.019084881049931515,
0.12967581047381546,-0.02699884335247693,
0.12972568578553617,-0.0034347762102781114,
0.12977556109725685,-0.020869378747336298,
0.12982543640897756,-0.0269394774873351,
0.12987531172069824,-0.016538404542824403,
0.12992518703241895,-0.018424936557390414,
0.12997506234413966,-0.0034386189173857256,
0.13002493765586035,-0.018413262412053884,
0.13007481296758105,-0.016465852675801067,
0.13012468827930174,-0.005282226823678301,
0.13017456359102245,-0.007305462153673722,
0.13022443890274316,-0.018821729569465893,
0.13027431421446384,-0.012860494859038498,
0.13032418952618455,-0.004687883848944106,
0.13037406483790523,-0.016501899271571967,
0.13042394014962594,0.02208457728551312,
0.13047381546134662,-0.020452435567307393,
0.13052369077306733,-0.007259076077102461,
0.13057356608478804,-0.0060635537843198644,
0.13062344139650872,-0.015400153888976134,
0.13067331670822943,-0.01489860983748488,
0.1307231920199501,-0.003800396907864696,
0.13077306733167082,-0.003531989175382353,
0.13082294264339153,-0.02529035379625515,
0.13087281795511221,-0.003966891910188984,
0.13092269326683292,-0.013961374517430021,
0.1309725685785536,-0.009353288919400888,
0.13102244389027431,0.008289035703226807,
0.13107231920199502,-0.010876808552606443,
0.1311221945137157,-0.015382289402252329,
0.13117206982543642,-0.015365171797160878,
0.1312219451371571,-0.011866512730827141,
0.1312718204488778,0.007547448870390636,
0.13132169576059852,-0.0033724002123342364,
0.1313715710723192,-0.013852402232068404,
0.1314214463840399,0.012193540127559138,
0.1314713216957606,-0.013115585890514092,
0.1315211970074813,-0.015614364566517531,
0.13157107231920198,-0.003767109568559212,
0.1316209476309227,-0.013605658793848828,
0.1316708229426434,-0.006791816957793268,
0.13172069825436408,-0.025882065244007067,
0.1317705735660848,-0.0041509076521216316,
0.13182044887780547,-0.024990799239979614,
0.13187032418952618,-0.026541826635976686,
0.1319201995012469,0.008182639784171655,
0.13197007481296757,0.02600259311863108,
0.13201995012468828,0.001636524443305155,
0.13206982543640897,-0.0032272801516652857,
0.13211970074812968,-0.017631101923410476,
0.13216957605985039,-0.0009216061874469314,
0.13221945137157107,-0.0010909851179210792,
0.13226932668329178,-0.0269675232668357,
0.13231920199501246,-0.004808350640917556,
0.13236907730673317,0.00731086550591473,
0.13241895261845388,-0.00499769095176226,
0.13246882793017456,-0.006601097069075406,
0.13251870324189527,-0.009950546295139641,
0.13256857855361595,-0.022939309518232975,
0.13261845386533666,0.006453017455293784,
0.13266832917705737,0.008954033638017245,
0.13271820448877805,-0.0011762904890509117,
0.13276807980049876,0.007527060130479102,
0.13281795511221944,-0.01216687543252485,
0.13286783042394015,-0.0010539155933131285,
0.13291770573566083,-0.002907403772102481,
0.13296758104738154,-0.0002695484152462559,
0.13301745635910225,-0.038901414189071136,
0.13306733167082294,0.00540457558618328,
0.13311720698254365,-0.02904723402626732,
0.13316708229426433,-0.0010127993203041382,
0.13321695760598504,-0.021588827914150583,
0.13326683291770575,0.017054910200817626,
0.13331670822942643,-0.03765779080959819,
0.13336658354114714,0.007915381228618571,
0.13341645885286782,-0.006379893181599071,
0.13346633416458853,-0.014267159877614012,
0.13351620947630924,-0.018432280457373565,
0.13356608478802992,0.010589271246733284,
0.13361596009975063,0.008259651727629299,
0.1336658354114713,-0.006571819990588191,
0.13371571072319202,0.012633177185648572,
0.13376558603491273,0.01731743422299348,
0.1338154613466334,-0.01005529681985533,
0.13386533665835412,-0.019000223516553973,
0.1339152119700748,-0.0009886088817021143,
0.13396508728179551,-0.011701933476924078,
0.1340149625935162,0.01415783459346295,
0.1340648379052369,0.019913202883945796,
0.13411471321695762,0.012427313422757573,
0.1341645885286783,0.018791409554803476,
0.134214463840399,0.027383915094577858,
0.1342643391521197,-0.025368324102223772,
0.1343142144638404,0.025807812113033783,
0.1343640897755611,-0.013198718325014356,
0.1344139650872818,0.018683536658469065,
0.1344638403990025,0.014173091354974288,
0.13451371571072318,0.01948555305964917,
0.1345635910224439,0.022632581735801658,
0.1346134663341646,0.01865010471524923,
0.13466334164588528,0.01277063338119355,
0.134713216957606,0.01919380998376744,
0.13476309226932667,0.009843992590518658,
0.13481296758104738,-0.005110031766945208,
0.1348628428927681,-0.0159816363172937,
0.13491271820448877,0.010033419947920645,
0.13496259351620948,0.0084015265177848,
0.13501246882793017,0.01138544695301579,
0.13506234413965088,0.014308371745161159,
0.13511221945137158,0.014763624256175785,
0.13516209476309227,0.024947741961734434,
0.13521197007481298,-0.009582798117526893,
0.13526184538653366,-0.002709905665668871,
0.13531172069825437,0.0030566561213740007,
0.13536159600997505,0.006652067179759744,
0.13541147132169576,0.018956899228240693,
0.13546134663341647,0.021411053414354574,
0.13551122194513715,-0.00040281228903336387,
0.13556109725685786,0.004933456863428665,
0.13561097256857854,0.011704415370577422,
0.13566084788029925,0.0047184261995662745,
0.13571072319201996,-0.013797616319149178,
0.13576059850374064,0.031785417668981,
0.13581047381546135,0.009627121070420542,
0.13586034912718203,0.01730752974016405,
0.13591022443890274,-0.01879672681987873,
0.13596009975062345,0.01924586179115572,
0.13600997506234414,-0.003784863884874333,
0.13605985037406484,-0.00253146276583217,
0.13610972568578553,0.008363024239417377,
0.13615960099750624,0.013803738208882565,
0.13620947630922695,0.00788708644235768,
0.13625935162094763,0.047329746423393146,
0.13630922693266834,-0.014351519099465353,
0.13635910224438902,0.015004544975668102,
0.13640897755610973,0.013218128268988761,
0.1364588528678304,0.015908612165249098,
0.13650872817955112,0.060867572390473586,
0.13655860349127183,0.015844088340291225,
0.1366084788029925,0.013864137046819642,
0.13665835411471322,0.010722370014851629,
0.1367082294264339,0.04149097204843227,
0.1367581047381546,0.00021128204260605424,
0.13680798004987532,0.01946393421692928,
0.136857855361596,-0.008413981087821383,
0.1369077306733167,0.04487659020363335,
0.1369576059850374,0.009679733578632894,
0.1370074812967581,0.006832113660842989,
0.13705735660847881,0.011750123643127094,
0.1371072319201995,0.04759362869213288,
0.1371571072319202,0.0523779632016842,
0.1372069825436409,0.02127354148439703,
0.1372568578553616,0.034769377656153136,
0.1373067331670823,0.030431859762220778,
0.137356608478803,0.004702067308239629,
0.1374064837905237,0.03457128694126324,
0.13745635910224438,0.02439018996610673,
0.1375062344139651,0.04574355331070587,
0.1375561097256858,0.020883649446772387,
0.13760598503740648,0.014204036349102436,
0.1376558603491272,0.026653127972069045,
0.13770573566084787,0.030556080253603075,
0.13775561097256858,-0.0070622626706242225,
0.13780548628428926,0.024720234938441533,
0.13785536159600997,0.03308225222923677,
0.13790523690773068,0.02868863504688185,
0.13795511221945136,0.019239087663655452,
0.13800498753117207,0.013604356759304439,
0.13805486284289276,0.011765453507131249,
0.13810473815461347,0.045566414872197064,
0.13815461346633418,0.04007669395382959,
0.13820448877805486,0.034136882425948874,
0.13825436408977557,0.011693007380261774,
0.13830423940149625,-0.004784310814582717,
0.13835411471321696,0.030755362080576124,
0.13840399002493767,0.025424407920051774,
0.13845386533665835,-0.01729779802519267,
0.13850374064837906,0.03137572666363196,
0.13855361596009974,0.020891059562842082,
0.13860349127182045,0.014568948451968477,
0.13865336658354116,0.009967505620434077,
0.13870324189526184,0.010869175997885484,
0.13875311720698255,0.05553772021861898,
0.13880299251870323,0.028344148173598982,
0.13885286783042394,0.03833943291483357,
0.13890274314214462,0.02082443647895085,
0.13895261845386533,0.020797652673166245,
0.13900249376558604,0.00752619316426615,
0.13905236907730673,0.03232057319156887,
0.13910224438902744,0.023925099369166758,
0.13915211970074812,0.014606310573959872,
0.13920199501246883,0.014781215376436129,
0.13925187032418954,0.019150594068509656,
0.13930174563591022,-0.010239408962772485,
0.13935162094763093,0.00489320885854783,
0.1394014962593516,0.031609815285318144,
0.13945137157107232,0.03282805952540153,
0.13950124688279303,0.028443517941005428,
0.1395511221945137,0.022812931515140873,
0.13960099750623442,0.008410751459643453,
0.1396508728179551,0.009680561776275274,
0.1397007481296758,0.04669149506640595,
0.13975062344139652,0.01611590071158204,
0.1398004987531172,0.024960711642167694,
0.1398503740648379,0.03262040607408719,
0.1399002493765586,0.01640603333025903,
0.1399501246882793,0.014370746121572762,
0.14,0.00863135679690824,
0.1400498753117207,0.022876330909540925,
0.1400997506234414,0.03179895376076746,
0.1401496259351621,0.02446271075616763,
0.1401995012468828,0.04951412365164463,
0.14024937655860348,0.02321766459267944,
0.1402992518703242,0.02925239489286111,
0.1403491271820449,0.019848125519271186,
0.14039900249376558,0.022969761600190382,
0.1404488778054863,0.037165599126615344,
0.14049875311720697,0.06569834991748633,
0.14054862842892768,-0.0034087995563430035,
0.1405985037406484,0.020718192112311545,
0.14064837905236907,0.01210489421073416,
0.14069825436408978,0.017549228849081607,
0.14074812967581046,0.04480502695945031,
0.14079800498753117,0.0074650099670420245,
0.14084788029925188,0.011031660485635423,
0.14089775561097256,0.01451750243096393,
0.14094763092269327,0.04061631548117852,
0.14099750623441396,0.02786720245298362,
0.14104738154613466,0.011571527782477803,
0.14109725685785537,0.031818861962825594,
0.14114713216957606,0.0419349037205252,
0.14119700748129677,0.017067829278932852,
0.14124688279301745,0.05466146489178431,
0.14129675810473816,0.007412506646545875,
0.14134663341645887,0.022197535767932316,
