time,amplitude,label
0.0,0.022948013164000088,
4.987531172069826e-05,0.04878956734407104,
9.975062344139652e-05,0.010743692899130611,
0.00014962593516209475,0.009327209568198666,
0.00019950124688279303,0.004971018443686673,
0.00024937655860349125,0.026579846055825022,
0.0002992518703241895,0.03443303196178453,
0.00034912718204488776,0.015943238125266795,
0.00039900249376558606,0.005199777934787778,
0.0004488778054862843,0.0055802188100696395,
0.0004987531172069825,0.027847242924335484,
0.0005486284289276808,0.02937364616980441,
0.000598503740648379,0.02650416597030262,
0.0006483790523690773,0.00850172904144902,
0.0006982543640897755,0.022089791178522753,
0.0007481296758104738,0.02047609985483388,
0.0007980049875311721,0.02211999960244086,
0.0008478802992518703,0.032020349773480825,
0.0008977556109725686,0.022407462409888657,
0.0009476309226932668,0.029337182560162593,
0.000997506234413965,0.020262430338922995,
0.0010473815461346633,0.023676093241153825,
0.0010972568578553616,0.028894455084975047,
0.00114713216957606,-0.002351124839915581,
0.001197007481296758,0.014787457314391413,
0.0012468827930174563,0.012598463376367611,
0.0012967581047381546,0.010137610990024767,
0.001346633416458853,0.01565555290177251,
0.001396508728179551,0.042263882453186116,
0.0014463840399002493,0.006904527232431474,
0.0014962593516209476,0.03446354363864726,
0.001546134663341646,-0.005261171441228681,
0.0015960099750623442,0.014996229445256627,
0.0016458852867830423,0.022493545267312905,
0.0016957605985037406,0.02887343617472593,
0.001745635910224439,0.030771453418110987,
0.0017955112219451373,0.03202131365734449,
0.0018453865336658353,0.014903372836698441,
0.0018952618453865336,0.013207206900797358,
0.001945137157107232,0.03301544686070422,
0.00199501246882793,0.017274658707361473,
0.0020448877805486283,0.001002435069243586,
0.0020947630922693266,0.003127021965395445,
0.002144638403990025,0.0063182437808602075,
0.0021945137157107233,0.027546239691880622,
0.0022443890274314216,0.022199123724876438,
0.00229426433915212,0.030389043168778183,
0.0023441396508728177,0.01358712288554888,
0.002394014962593516,0.022333291943118116,
0.0024438902743142144,0.02929348167559161,
0.0024937655860349127,0.01521901416322808,
0.002543640897755611,0.026655597919181703,
0.0025935162094763093,0.009815022426096578,
0.0026433915211970076,0.01423324678712017,
0.002693266832917706,0.013883346622324898,
0.002743142144638404,0.0015974165184577949,
0.002793017456359102,0.026760449397129526,
0.0028428927680798004,0.0123309532331565,
0.0028927680798004987,0.019470822950477848,
0.002942643391521197,0.02640135323843665,
0.0029925187032418953,0.025790206351036318,
0.0030423940149625936,0.028970468833184215,
0.003092269326683292,0.01740525765018576,
0.00314214463840399,0.012421334417335561,
0.0031920199501246885,0.017458754929273648,
0.0032418952618453864,-0.0067762901360658295,
0.0032917705735660847,-0.003298252566319288,
0.003341645885286783,-0.0015618099692007899,
0.0033915211970074813,0.003185805825201336,
0.0034413965087281796,0.02400255385438647,
0.003491271820448878,0.004280829971046243,
0.003541147132169576,0.012043331984403471,
0.0035910224438902745,0.03705266547379657,
0.0036408977556109724,0.012064506496082223,
0.0036907730673316707,0.028311218153851014,
0.003740648379052369,0.003080071700955025,
0.0037905236907730673,0.013834500739187577,
0.0038403990024937656,0.002493377656633886,
0.003890274314214464,0.011481817119377246,
0.003940149625935162,0.028991544731097205,
0.00399002493765586,-0.009707224423400062,
0.004039900249376558,0.02253069185674735,
0.004089775561097257,0.019388269679819485,
0.004139650872817955,0.00671407599811292,
0.004189526184538653,-0.0062642125257556195,
0.004239401496259352,0.01630521807342169,
0.00428927680798005,0.007073846054669156,
0.004339152119700748,0.01829573391155309,
0.0043890274314214465,0.014919172430392248,
0.004438902743142145,0.03840037209003327,
0.004488778054862843,0.010562206117367141,
0.004538653366583541,-0.0014244614976894592,
0.00458852867830424,0.016389260380081164,
0.004638403990024938,0.016768922549181053,
0.0046882793017456355,0.03362241149459596,
0.004738154613466334,0.025523729737095102,
0.004788029925187032,0.018109486963879696,
0.00483790523690773,0.03446228132077832,
0.004887780548628429,-0.005565373390097824,
0.004937655860349127,0.002420212983193131,
0.004987531172069825,-0.0021345983213893766,
0.005037406483790524,0.00566165275312944,
0.005087281795511222,-0.009399465650238487,
0.00513715710723192,0.020517449546959575,
0.0051870324189526185,0.007393600601030402,
0.005236907730673317,-0.01160093516492611,
0.005286783042394015,-0.0050407801138872554,
0.0053366583541147134,0.014624956105007136,
0.005386533665835412,0.022221152009354053,
0.00543640897755611,0.03932495271768822,
0.005486284289276808,0.052804461439629274,
0.005536159600997507,0.015033069354142902,
0.005586034912718204,-0.006307802675930153,
0.005635910224438902,-0.023729075880764373,
0.005685785536159601,0.011981717968246939,
0.005735660847880299,-0.004515493163601037,
0.005785536159600997,0.001159062613557485,
0.005835411471321696,-0.0020829392783068322,
0.005885286783042394,0.004694105886817041,
0.005935162094763092,0.022501567148813007,
0.0059850374064837905,0.008571997858877457,
0.006034912718204489,0.0035397371013988085,
0.006084788029925187,-0.009913897835247756,
0.0061346633416458855,-0.01979895425274398,
0.006184538653366584,-0.002274140115793329,
0.006234413965087282,0.0039118107764549125,
0.00628428927680798,0.03093452522541867,
0.006334164588528679,0.006065754096072339,
0.006384039900249377,0.018547896503134355,
0.006433915211970074,-0.003988279003618991,
0.006483790523690773,-0.014579390850480732,
0.006533665835411471,-0.011589039438234148,
0.006583541147132169,-0.008298320638499876,
0.006633416458852868,0.0341989630861551,
0.006683291770573566,-0.01035747130625177,
0.006733167082294264,0.01423172041642074,
0.0067830423940149626,-0.01219875336554845,
0.006832917705735661,0.015009316751833469,
0.006882793017456359,0.006500425501565786,
0.0069326683291770575,-0.0019330188832515915,
0.006982543640897756,-0.0005044736838071501,
0.007032418952618454,-0.010024333613468165,
0.007082294264339152,0.006179262335992839,
0.007132169576059851,-0.0076456186507878315,
0.007182044887780549,-0.019513665121150235,
0.007231920199501247,-0.02060694424411701,
0.007281795511221945,0.0008431230392027017,
0.007331670822942643,0.021633421383156597,
0.007381546134663341,4.031472041728318e-05,
0.00743142144638404,-0.004445030480634769,
0.007481296758104738,0.0013168323360645954,
0.007531172069825436,0.016315229963463747,
0.007581047381546135,-0.0002873516660599645,
0.007630922693266833,-0.010044271910259764,
0.007680798004987531,0.012412786838295643,
0.0077306733167082295,0.0019497911605437642,
0.007780548628428928,0.018256016198598072,
0.007830423940149626,-0.002329257776661397,
0.007880299251870324,-0.023740868904118494,
0.007930174563591023,-0.026190815342613416,
0.00798004987531172,0.018802436119293955,
0.00802992518703242,0.019602058722675536,
0.008079800498753117,-0.009235475753470265,
0.008129675810473816,-0.012578502015666494,
0.008179551122194513,0.014804794991327159,
0.008229426433915213,-0.024006833184618336,
0.00827930174563591,-0.021104362452768515,
0.00832917705735661,0.001686175116322533,
0.008379052369077307,-0.01416096397264801,
0.008428927680798006,-0.008594696933347029,
0.008478802992518703,-0.011243247011989697,
0.0085286783042394,-0.003999404575934624,
0.0085785536159601,0.011780168723905398,
0.008628428927680797,-0.00823987212111968,
0.008678304239401496,-0.0002036341236375267,
0.008728179551122194,-0.040876785851785585,
0.008778054862842893,-0.0111138215741677,
0.00882793017456359,-0.02328762923373243,
0.00887780548628429,-0.029174725340616263,
0.008927680798004987,-0.024315330690859546,
0.008977556109725686,-0.016402511621666636,
0.009027431421446384,0.0021032259423873646,
0.009077306733167083,-0.03177283151177738,
0.00912718204488778,-0.011656013036112457,
0.00917705735660848,-0.019613428243782843,
0.009226932668329177,-0.017498182401871933,
0.009276807980049876,0.00222934215591258,
0.009326683291770574,-0.0049659157713522264,
0.009376558603491271,0.006801075631566754,
0.00942643391521197,-0.015796300886966375,
0.009476309226932668,-0.024133191011299307,
0.009526184538653367,-0.017263732857983237,
0.009576059850374064,-0.010476607213846061,
0.009625935162094763,-0.011670024854374036,
0.00967581047381546,-0.030785318987812553,
0.00972568578553616,-0.013359280139405601,
0.009775561097256857,-0.011486537838249076,
0.009825436408977557,0.022662653267338,
0.009875311720698254,0.012867606234461424,
0.009925187032418953,-0.028265383475660485,
0.00997506234413965,-0.019955173042274423,
0.01002493765586035,-0.03776971662074852,
0.010074812967581047,-0.024848286790622814,
0.010124688279301746,-0.011419089969497283,
0.010174563591022444,0.0017733089437891938,
0.010224438902743141,-0.02740788965527728,
0.01027431421446384,-0.026436732282104913,
0.010324189526184538,-0.04898250312973744,
0.010374064837905237,-0.01935747949193716,
0.010423940149625935,-0.03299368450411822,
0.010473815461346634,-0.025134656733164534,
0.010523690773067331,-0.030477159132732003,
0.01057356608478803,-0.018864919923632102,
0.010623441396508728,-0.04393916160489378,
0.010673316708229427,-0.0396966575780536,
0.010723192019950124,0.014134525412308554,
0.010773067331670824,-0.037224152851568486,
0.010822942643391521,-0.03446863357400991,
0.01087281795511222,0.009437440826914414,
0.010922693266832918,0.02536498213329615,
0.010972568578553617,-0.03587461506382438,
0.011022443890274314,-0.023910244087439872,
0.011072319201995013,-0.013343852565966915,
0.01112219451371571,0.007387341480733597,
0.011172069825436408,-0.033417158411801484,
0.011221945137157107,-0.022359872271414713,
0.011271820448877805,-0.007082249359976254,
0.011321695760598504,-0.012277620326013372,
0.011371571072319201,-0.02449342610972186,
0.0114214463840399,-0.020905564580602762,
0.011471321695760598,-0.03956394128841343,
0.011521197007481297,-0.02255053204692753,
0.011571072319201995,-0.02300628752609247,
0.011620947630922694,-0.015555594770400201,
0.011670822942643391,-0.027390830270481583,
0.01172069825436409,-0.012005727442665873,
0.011770573566084788,-0.003901050412010677,
0.011820448877805487,-0.01676842515833988,
0.011870324189526184,-0.013826688431016192,
0.011920199501246884,-0.018303964215460586,
0.011970074812967581,-0.01909337829761811,
0.012019950124688279,-0.02990645506444125,
0.012069825436408978,-0.014319203520957245,
0.012119700748129675,-0.020504544944285632,
0.012169576059850374,0.012378550182709683,
0.012219451371571072,0.004612515114711585,
0.012269326683291771,-0.013164056321735588,
0.012319201995012468,-0.030356679088147445,
0.012369077306733168,-0.035551188626611024,
0.012418952618453865,-0.0009472074484609266,
0.012468827930174564,-0.014817599674891463,
0.012518703241895262,-0.011496337123903484,
0.01256857855361596,-0.044802105810762424,
0.012618453865336658,-0.004651759400063321,
0.012668329177057357,-0.011672261210845447,
0.012718204488778055,-0.03506548268787571,
0.012768079800498754,-0.025397595753543237,
0.012817955112219451,-0.014279931652047342,
0.012867830423940149,-0.01735493960855461,
0.012917705735660848,-0.022426069121161758,
0.012967581047381545,-0.019492716233764876,
0.013017456359102245,-0.021612299283990555,
0.013067331670822942,-0.015431828378144694,
0.013117206982543641,0.004469078370518791,
0.013167082294264339,-0.05598164851160243,
0.013216957605985038,-0.02090846096035756,
0.013266832917705735,-0.014577450215810988,
0.013316708229426434,-0.012650181816305851,
0.013366583541147132,-0.02252932331959755,
0.013416458852867831,-0.04315753541008168,
0.013466334164588529,-0.011738506029687599,
0.013516209476309228,0.009404424296824487,
0.013566084788029925,-0.03935683818098172,
0.013615960099750624,-0.003230320254626759,
0.013665835411471322,-0.020950215968003474,
0.01371571072319202,-0.016772613462353436,
0.013765586034912718,-0.031472490794255306,
0.013815461346633416,-0.02051801651295857,
0.013865336658354115,0.004181395526081551,
0.013915211970074812,-0.00639352663901923,
0.013965087281795512,0.011041209809095941,
0.014014962593516209,0.0029115322341046156,
0.014064837905236908,-0.007965647231063888,
0.014114713216957606,0.01180860206378162,
0.014164588528678305,-0.007560202515013665,
0.014214463840399002,-0.0015162264485365715,
0.014264339152119701,-0.018171878145328602,
0.014314214463840399,-0.01250875818856646,
0.014364089775561098,-0.023748353399320375,
0.014413965087281795,0.001780240230495906,
0.014463840399002495,-0.03051112193116256,
0.014513715710723192,-0.0008709420966184801,
0.01456359102244389,-0.015232229230788506,
0.014613466334164589,0.005433283951369333,
0.014663341645885286,-0.0006320969213240105,
0.014713216957605985,0.015658043021569062,
0.014763092269326683,-0.0004434137096320373,
0.014812967581047382,-0.034735949410516456,
0.01486284289276808,-0.011906941810813055,
0.014912718204488778,-0.028227099007366155,
0.014962593516209476,-0.01816264575606167,
0.015012468827930175,0.01254134872441186,
0.015062344139650873,-0.0002999361626541061,
0.015112219451371572,-0.02008006512715809,
0.01516209476309227,-0.02453239897509727,
0.015211970074812968,-0.00856286650675522,
0.015261845386533666,-0.027028455068194752,
0.015311720698254365,-0.0185701739018242,
0.015361596009975062,-0.0035435736450211653,
0.01541147132169576,0.009387622121600374,
0.015461346633416459,0.0014732560116106526,
0.015511221945137156,-0.041741450076999406,
0.015561097256857856,-0.0025184509196686175,
0.015610972568578553,-0.005713265515678747,
0.015660847880299252,-0.00029327526337936775,
0.01571072319201995,0.018035541281015487,
0.015760598503740647,-0.03686033772784443,
0.015810473815461346,-0.014480731525694554,
0.015860349127182045,0.0035486690462531393,
0.015910224438902745,-0.028737989056995004,
0.01596009975062344,0.01742754082598951,
0.01600997506234414,0.001117484593104688,
0.01605985037406484,0.008596103945304183,
0.016109725685785538,-0.012360297560272161,
0.016159600997506234,0.008718056038732961,
0.016209476309226933,0.01284757284747903,
0.016259351620947632,0.000623649206075591,
0.016309226932668328,0.0009574770898053923,
0.016359102244389027,0.0018085270569173023,
0.016408977556109726,-0.01488403141616272,
0.016458852867830425,-0.003833235106503053,
0.01650872817955112,-0.0035938929476218287,
0.01655860349127182,0.004759729118917836,
0.01660847880299252,0.01432161076288381,
0.01665835411471322,-0.01623789498987876,
0.016708229426433914,-0.0019186933918770113,
0.016758104738154613,0.022494891013688366,
0.016807980049875312,-0.01056390679305654,
0.01685785536159601,-0.011426808543466793,
0.016907730673316707,0.004258648997712032,
0.016957605985037406,0.014206960778718983,
0.017007481296758106,0.002029636019075703,
0.0170573566084788,0.022109574851512888,
0.0171072319201995,0.01534377820457315,
0.0171571072319202,0.015435576772728159,
0.0172069825436409,0.01143605866754796,
0.017256857855361595,0.03835469444032402,
0.017306733167082294,0.0006775342429836267,
0.017356608478802993,-0.025983414737604238,
0.017406483790523692,0.028447017281016715,
0.017456359102244388,-0.0021692613564963,
0.017506234413965087,0.006626635129711947,
0.017556109725685786,0.024962981477422937,
0.017605985037406485,-0.018403860289726248,
0.01765586034912718,-0.012835420142774435,
0.01770573566084788,-0.0177717571256198,
0.01775561097256858,-0.00535771466076205,
0.01780548628428928,0.013454516006969952,
0.017855361596009974,0.015027067141545473,
0.017905236907730673,0.011611216346938399,
0.017955112219451373,-0.013423032298543807,
0.018004987531172068,-0.02658331820277144,
0.018054862842892767,0.009181666924013416,
0.018104738154613467,0.0015861325745933326,
0.018154613466334166,0.01584817788274087,
0.01820448877805486,0.019779450812060263,
0.01825436408977556,0.011614588944813925,
0.01830423940149626,0.021231780247545694,
0.01835411471321696,0.01355469655585268,
0.018403990024937655,0.01835209450538037,
0.018453865336658354,0.00011341000768507088,
0.018503740648379053,0.008269441420198812,
0.018553615960099752,0.014193008557526763,
0.018603491271820448,0.023824632254240526,
0.018653366583541147,0.0058834424157170155,
0.018703241895261846,0.019877374507089988,
0.018753117206982542,0.008339974821275398,
0.01880299251870324,0.010829435778723232,
0.01885286783042394,0.025297621928068503,
0.01890274314214464,-0.01678160830437561,
0.018952618453865335,-0.006076196517900954,
0.019002493765586034,-0.008608233310640869,
0.019052369077306733,-0.021129028145207708,
0.019102244389027433,0.003948859188033104,
0.01915211970074813,0.025608832692781955,
0.019201995012468828,0.010335388773062932,
0.019251870324189527,0.01781359541101176,
0.019301745635910226,0.03141981235575688,
0.01935162094763092,0.03522830219882177,
0.01940149625935162,0.014504000187813865,
0.01945137157107232,0.03606946016306262,
0.01950124688279302,0.017368663705052745,
0.019551122194513715,0.0036433185215105617,
0.019600997506234414,0.007502198205813087,
0.019650872817955113,-0.005579600624336413,
0.01970074812967581,0.003512964105456,
0.019750623441396508,0.011667477929114543,
0.019800498753117207,0.029290442515787614,
0.019850374064837906,0.043243288385425106,
0.019900249376558602,-0.00310982037115598,
0.0199501246882793,0.023702517564966497,
0.02,0.0023851463383162096,
0.0200498753117207,0.02529291428615195,
0.020099750623441395,0.016381220320841345,
0.020149625935162094,-0.008945137652441003,
0.020199501246882794,0.032609660753350395,
0.020249376558603493,0.00977273780557323,
0.02029925187032419,0.010997535030648046,
0.020349127182044888,0.0031137520974687145,
0.020399002493765587,0.009495461443755775,
0.020448877805486283,0.025873376375500006,
0.02049875311720698,0.016757265914026914,
0.02054862842892768,0.024662340745243448,
0.02059850374064838,0.025293254038731658,
0.020648379052369076,0.03980187092927255,
0.020698254364089775,0.014973147663298682,
0.020748129675810474,-0.001919488806373288,
0.020798004987531173,0.03635556975019799,
0.02084788029925187,0.01548415548111014,
0.020897755610972568,0.037279972900114054,
0.020947630922693267,0.026411689946555815,
0.020997506234413967,0.018789232546499286,
0.021047381546134662,0.026078488929359232,
0.02109725685785536,0.05019786539872878,
0.02114713216957606,0.05216846272141537,
0.02119700748129676,0.02213078192936034,
0.021246882793017455,0.023564448434737224,
0.021296758104738155,0.03737191440817185,
0.021346633416458854,0.008605301486119184,
0.02139650872817955,0.026343345643031927,
0.02144638403990025,0.021011575465917372,
0.021496259351620948,0.026155512644016526,
0.021546134663341647,0.008988861117804474,
0.021596009975062343,-0.0023164925222191497,
0.021645885286783042,-0.009534990371748469,
0.02169576059850374,0.004826848268562688,
0.02174563591022444,0.01473043107456121,
0.021795511221945136,0.01723073381208629,
0.021845386533665835,0.050700215681055025,
0.021895261845386534,0.038239880491953884,
0.021945137157107233,0.007221934864368489,
0.02199501246882793,0.02686734013673965,
0.02204488778054863,0.015539042931866962,
0.022094763092269327,0.017368355937751705,
0.022144638403990027,0.02439739290679291,
0.022194513715710722,0.03088387212883148,
0.02224438902743142,0.016481334003809075,
0.02229426433915212,0.03749700614882967,
0.022344139650872816,0.004374306196991133,
0.022394014962593516,0.021557746216085808,
0.022443890274314215,0.060382192050533925,
0.022493765586034914,0.024712865452432644,
0.02254364089775561,0.042809640664118465,
0.02259351620947631,0.022624164565759806,
0.022643391521197008,0.02989815789514509,
0.022693266832917707,0.0202651107112245,
0.022743142144638403,0.01848633768153512,
0.022793017456359102,0.009271063019735704,
0.0228428927680798,0.02733394208107494,
0.0228927680798005,0.008017783254210091,
0.022942643391521196,0.030681358370580045,
0.022992518703241895,0.03687896678357967,
0.023042394014962594,0.025995082835404824,
0.02309226932668329,0.016096224951372612,
0.02314214463840399,0.027087705319812954,
0.02319201995012469,0.015531841273838751,
0.023241895261845388,0.03407433873810474,
0.023291770573566083,-0.007555254805042405,
0.023341645885286783,0.014751972074504498,
0.02339152119700748,-0.010210276878778925,
0.02344139650872818,-0.0029125807756500907,
0.023491271820448877,0.03982833687492152,
0.023541147132169576,0.032650929039555104,
0.023591022443890275,0.008279417898116136,
0.023640897755610974,-0.0036217090261533545,
0.02369077306733167,-0.02571207483957226,
0.02374064837905237,0.01043927371874998,
0.023790523690773068,0.05472965504965517,
0.023840399002493767,0.024774334619772537,
0.023890274314214463,0.009681087330129009,
0.023940149625935162,0.024870480456864345,
0.02399002493765586,-0.0057044424564927955,
0.024039900249376557,0.013061833932526305,
0.024089775561097256,0.018821741151672844,
0.024139650872817955,0.015842155196698175,
0.024189526184538655,0.02879608297139661,
0.02423940149625935,0.021900285909431376,
0.02428927680798005,0.026548455209303396,
0.02433915211970075,0.005987330930386347,
0.024389027431421448,0.02956594195854964,
0.024438902743142144,0.04031505966834356,
0.024488778054862843,0.0011076106040465317,
0.024538653366583542,0.00211987504754416,
0.02458852867830424,0.03524419600111059,
0.024638403990024937,0.012106113685373843,
0.024688279301745636,0.035799216025485275,
0.024738154613466335,0.00786631871747143,
0.02478802992518703,0.036089394123833704,
0.02483790523690773,0.015992310650038838,
0.02488778054862843,0.01764678624907171,
0.02493765586034913,0.036994533789666495,
0.024987531172069824,0.007844757130579836,
0.025037406483790523,-0.0011007621568110432,
0.025087281795511222,0.006029628900004798,
0.02513715710723192,0.01928245602411934,
0.025187032418952617,-0.011252187656383956,
0.025236907730673316,0.021530476096953636,
0.025286783042394016,0.003618585566972341,
0.025336658354114715,0.02864668344038818,
0.02538653366583541,-0.024757410050641946,
0.02543640897755611,-0.0009172603698496418,
0.02548628428927681,-0.014693265035437575,
0.025536159600997508,-0.0020692855010701235,
0.025586034912718204,0.013757482123078302,
0.025635910224438903,0.00707043925954395,
0.025685785536159602,0.0056725986258214425,
0.025735660847880298,0.006798062124851081,
0.025785536159600997,0.01194745284427463,
0.025835411471321696,-0.0065223244269303725,
0.025885286783042395,0.018915913053756516,
0.02593516209476309,0.017959048249249297,
0.02598503740648379,0.013499029154447055,
0.02603491271820449,0.01577444776327478,
0.02608478802992519,0.011574360643593323,
0.026134663341645884,0.037354567329087617,
0.026184538653366583,0.005221239507474421,
0.026234413965087282,0.0016194699860007256,
0.02628428927680798,-0.005380172305337338,
0.026334164588528677,-0.009865143263693291,
0.026384039900249377,-0.013353116825860989,
0.026433915211970076,-0.008323652957578257,
0.02648379052369077,0.003641707290140623,
0.02653366583541147,0.00940928188127321,
0.02658354114713217,0.004854339742463213,
0.02663341645885287,-0.0077039779644061,
0.026683291770573565,0.01697322698927242,
0.026733167082294264,0.014252697627875063,
0.026783042394014963,0.00045755040021775535,
0.026832917705735662,-0.007250904395974576,
0.026882793017456358,0.010459691533865924,
0.026932668329177057,0.004743260588196713,
0.026982543640897756,-0.020107842019192076,
0.027032418952618455,0.00028487609821940384,
0.02708229426433915,0.004925810057773362,
0.02713216957605985,-0.012809199250533537,
0.02718204488778055,0.0032251566366216836,
0.02723192019950125,-0.02175313809656558,
0.027281795511221944,0.01980417097477976,
0.027331670822942643,0.018173372890399966,
0.027381546134663343,-0.0046402535572582886,
0.02743142144638404,0.004293420768712067,
0.027481296758104738,-0.037612332618537164,
0.027531172069825437,-0.019112959116682086,
0.027581047381546136,-0.006477725729681111,
0.02763092269326683,-0.018455316213675695,
0.02768079800498753,0.00804144126538049,
0.02773067331670823,0.02698492565308535,
0.02778054862842893,-0.02092251610813262,
0.027830423940149625,-0.01613270178853602,
0.027880299251870324,-0.0003350890661667199,
0.027930174563591023,0.020005328927504996,
0.027980049875311722,-0.022790088295209975,
0.028029925187032418,-0.001010380807601709,
0.028079800498753117,0.02228379483131863,
0.028129675810473816,-0.030100084634796707,
0.028179551122194512,-0.02482591755862805,
0.02822942643391521,-0.012248261977986355,
0.02827930174563591,-0.013985303165162461,
0.02832917705735661,0.005732267818279671,
0.028379052369077305,-0.0031100209298843763,
0.028428927680798004,-0.033635334341370796,
0.028478802992518704,0.00044651306512792643,
0.028528678304239403,-0.016219150505904036,
0.0285785536159601,0.011291599713960104,
0.028628428927680798,-0.017505513085584283,
0.028678304239401497,-0.017905004567054045,
0.028728179551122196,-0.0005002944686468436,
0.02877805486284289,0.0025677823854602256,
0.02882793017456359,-0.0024107590479763956,
0.02887780548628429,-0.03466956855933501,
0.02892768079800499,-0.0015656130022453241,
0.028977556109725685,-0.025398370263769707,
0.029027431421446384,-0.006599265073205301,
0.029077306733167083,-0.03172605692064199,
0.02912718204488778,-0.003913757959069292,
0.029177057356608478,-0.02294298017210917,
0.029226932668329177,-0.030315720733921154,
0.029276807980049877,-0.0005978433131611314,
0.029326683291770572,-0.00790610479448869,
0.02937655860349127,-0.0209626784640033,
0.02942643391521197,0.009795831390937754,
0.02947630922693267,-0.018796979002388414,
0.029526184538653365,-0.011917381547576598,
0.029576059850374065,-0.008573508643179814,
0.029625935162094764,-0.02210677075495103,
0.029675810473815463,-0.005945615264871014,
0.02972568578553616,-0.02121157909588626,
0.029775561097256858,-0.01957770992451926,
0.029825436408977557,0.006847004710766115,
0.029875311720698253,-0.029387036616050924,
0.029925187032418952,-0.050151626391126816,
0.02997506234413965,0.010026438766612083,
0.03002493765586035,0.023928633813441007,
0.030074812967581046,-0.020559924801639783,
0.030124688279301745,-0.043698945240960844,
0.030174563591022444,-0.019464970003673147,
0.030224438902743143,-0.019258196724144444,
0.03027431421446384,-0.017966619093362127,
0.03032418952618454,-0.031967219532272204,
0.030374064837905237,-0.006717310202567214,
0.030423940149625937,-0.007683099802365657,
0.030473815461346632,-0.038102397188193846,
0.03052369077306733,-0.005329549529141615,
0.03057356608478803,0.014846034585564695,
0.03062344139650873,-0.013487094784518686,
0.030673316708229426,-0.02124412588081407,
0.030723192019950125,-0.018427504566211034,
0.030773067331670824,-0.0071772432526134924,
0.03082294264339152,-0.04247021016050103,
0.03087281795511222,-0.014143693303283713,
0.030922693266832918,-0.022561281979942453,
0.030972568578553617,0.010922956634236852,
0.031022443890274313,-0.019492409280639368,
0.031072319201995012,0.008057814176169902,
0.03112219451371571,-0.033592553448548175,
0.03117206982543641,-0.008298740179039895,
0.031221945137157106,-0.012383031733671149,
0.03127182044887781,-0.03027135850299987,
0.031321695760598504,-0.01463151219676994,
0.0313715710723192,0.0008433493353901082,
0.0314214463840399,-0.022248449568793193,
0.0314713216957606,-0.042813303521177036,
0.031521197007481294,-0.017734733647687254,
0.031571072319202,-0.031040192716831217,
0.03162094763092269,-0.022666634082821213,
0.03167082294264339,-0.01877812120394178,
0.03172069825436409,-0.04315697698726009,
0.03177057356608479,-0.041820057044334454,
0.03182044887780549,-0.01036226263804794,
0.031870324189526185,-0.025437220932777102,
0.03192019950124688,-0.05606587133864434,
0.03197007481296758,-0.005815401289369929,
0.03201995012468828,-0.01349096175229875,
0.032069825436408975,-0.028268169215644835,
0.03211970074812968,-0.03729113444524018,
0.03216957605985037,-0.004975297233375635,
0.032219451371571076,-0.0122409962397258,
0.03226932668329177,0.01829382653227355,
0.03231920199501247,-0.01110145101526104,
0.03236907730673317,-0.01154293445015883,
0.032418952618453865,-0.019811741700787144,
0.03246882793017456,-0.005000677043902224,
0.032518703241895264,-0.007815693164636905,
0.03256857855361596,0.0016490700916656012,
0.032618453865336655,-0.024876675469054456,
0.03266832917705736,-0.023513179492990928,
0.032718204488778053,-0.024089077162135333,
0.032768079800498756,-0.00495621107624771,
0.03281795511221945,0.0057464075462609,
0.03286783042394015,-0.023518074423903988,
0.03291770573566085,-0.022908638809057094,
0.032967581047381546,-0.011722771541381627,
0.03301745635910224,-0.02001260493964952,
0.033067331670822944,-0.0019330112463823105,
0.03311720698254364,-0.049873516736008025,
0.03316708229426434,-0.028375909935589513,
0.03321695760598504,-0.027585520531510983,
0.033266832917705734,-0.05052405146005518,
0.03331670822942644,-0.030038249286812396,
0.03336658354114713,-0.029171533532252117,
0.03341645885286783,-0.01831687193390173,
0.03346633416458853,0.0015424503845428914,
0.033516209476309226,-0.018675344663520332,
0.03356608478802992,-0.030304735179702245,
0.033615960099750625,-0.015535677148385638,
0.03366583541147132,0.0012216418153752108,
0.03371571072319202,-0.028985761730045002,
0.03376558603491272,-0.027831273947548182,
0.033815461346633414,-0.005616583448480931,
0.03386533665835412,-0.017135965408595955,
0.03391521197007481,-0.003914741567994828,
0.03396508728179551,-0.013641829203669414,
0.03401496259351621,-0.0027183608421022503,
0.03406483790523691,-0.028571795010013924,
0.0341147132169576,-0.013025367909781317,
0.034164588528678305,-0.015799138878896255,
0.034214463840399,-0.030668108190867252,
0.034264339152119704,-0.03566918476391654,
0.0343142144638404,-0.0017144180889915213,
0.034364089775561095,-0.017044996476134687,
0.0344139650872818,-0.02689144422089064,
0.03446384039900249,-0.012772979374061463,
0.03451371571072319,0.0058203513502530675,
0.03456359102244389,-0.04507727188053713,
0.03461346633416459,-0.03307875019889456,
0.03466334164588529,-0.024232182361695997,
0.034713216957605986,0.011772273082115203,
0.03476309226932668,-0.005659996516374473,
0.034812967581047384,0.001860639226540237,
0.03486284289276808,-0.02649883844341455,
0.034912718204488775,-0.025933816334516187,
0.03496259351620948,-0.0021650361178870443,
0.035012468827930174,-0.007746763233325701,
0.03506234413965087,-0.00012566815354675062,
0.03511221945137157,-0.010904987373875729,
0.03516209476309227,-0.003648303107539201,
0.03521197007481297,-0.005176638879897276,
0.035261845386533666,0.004392624014201665,
0.03531172069825436,0.005108213739365458,
0.035361596009975065,-0.031015643150736183,
0.03541147132169576,-0.040144941047638445,
0.035461346633416456,0.008874153801223462,
0.03551122194513716,0.011949901051528506,
0.035561097256857854,-0.02088717186808651,
0.03561097256857856,-0.03318518176681874,
0.03566084788029925,-0.0035099956308433542,
0.03571072319201995,0.009261074188697392,
0.03576059850374065,0.02255825212379571,
0.03581047381546135,0.00363637440929871,
0.03586034912718204,-0.009384592169588465,
0.035910224438902745,-0.01690495522818677,
0.03596009975062344,-0.0030338552863647186,
0.036009975062344136,-0.007390771862990163,
0.03605985037406484,-0.01782261808959108,
0.036109725685785535,0.028441241496875085,
0.03615960099750624,0.024795169111064795,
0.03620947630922693,0.01536726515777882,
0.03625935162094763,-0.015176248673564938,
0.03630922693266833,0.011772774932777248,
0.03635910224438903,0.008853788945281335,
0.03640897755610972,0.00621033920592776,
0.036458852867830426,0.01863067433020473,
0.03650872817955112,0.009730505335724797,
0.036558603491271824,0.011615020764708243,
0.03660847880299252,0.010383820275915489,
0.036658354114713215,0.006257989212196651,
0.03670822942643392,-0.02529176015747401,
0.036758104738154614,0.0030333315449282278,
0.03680798004987531,-0.006247012312305056,
0.03685785536159601,-0.01678472938438878,
0.03690773067331671,0.027957241493793472,
0.0369576059850374,0.028982041925165163,
0.037007481296758106,0.023752475873633855,
0.0370573566084788,0.007509281711113547,
0.037107231920199504,0.024257152510156102,
0.0371571072319202,0.004494973461359425,
0.037206982543640896,0.007672163023962146,
0.0372568578553616,-0.011456287172443683,
0.037306733167082294,0.011215707306044993,
0.03735660847880299,0.006481079432273033,
0.03740648379052369,-0.013650716345128279,
0.03745635910224439,0.005434129653042576,
0.037506234413965084,0.005318333889146716,
0.037556109725685786,0.033788980233304754,
0.03760598503740648,0.02054906691635735,
0.037655860349127185,0.007616796437757548,
0.03770573566084788,0.011485040967507368,
0.037755610972568576,0.008723327343961546,
0.03780548628428928,0.0053220617077033554,
0.037855361596009975,-0.00756636133171555,
0.03790523690773067,0.006707115176185458,
0.03795511221945137,-0.001917235666450948,
0.03800498753117207,-0.009180724986726889,
0.03805486284289277,0.01754045762537118,
0.03810473815461347,0.01603750274245719,
0.03815461346633416,-0.016337469112257884,
0.038204488778054865,0.008915621581258821,
0.03825436408977556,0.025982225437741563,
0.03830423940149626,0.027223869682717897,
0.03835411471321696,0.027009800653518434,
0.038403990024937655,0.01249053651143326,
0.03845386533665835,-0.0004864640751192778,
0.03850374064837905,-0.003786170495191834,
0.03855361596009975,0.017916132346951823,
0.03860349127182045,0.01871158967368859,
0.03865336658354115,0.03260520306229342,
0.03870324189526184,0.03006522915596358,
0.038753117206982546,0.011849787909047081,
0.03880299251870324,-0.004564866523282425,
0.03885286783042394,0.009573883014198656,
0.03890274314214464,0.017878403142611157,
0.038952618453865336,0.011845269955450358,
0.03900249376558604,0.006461758523654628,
0.039052369077306734,0.01917410061832309,
0.03910224438902743,0.008069066644591841,
0.03915211970074813,0.006451932137200913,
0.03920199501246883,0.02078603368708709,
0.039251870324189524,0.01032243907789113,
0.039301745635910226,0.020248691518619834,
0.03935162094763092,0.020916638504035252,
0.03940149625935162,-4.480570692999564e-05,
0.03945137157107232,0.010052607203262062,
0.039501246882793016,0.03905896229668687,
0.03955112219451372,0.00027863567167768846,
0.039600997506234414,-0.013826084660930254,
0.03965087281795511,-0.009793709561907588,
0.03970074812967581,0.01877713385715336,
0.03975062344139651,0.01900699222890895,
0.039800498753117204,0.016978001249757957,
0.03985037406483791,0.03715007724242158,
0.0399002493765586,-0.020964133225259314,
0.039950124688279305,0.02525458657723558,
0.04,0.042920343367052735,
0.0400498753117207,0.002761203381456648,
0.0400997506234414,0.014155871267939952,
0.040149625935162095,0.008730511795170702,
0.04019950124688279,0.006775447948379499,
0.04024937655860349,0.015459243110163553,
0.04029925187032419,0.041923734464103996,
0.040349127182044885,0.04822624690318654,
0.04039900249376559,0.015776022610695817,
0.04044887780548628,0.049536315243136134,
0.040498753117206986,0.021634962311493856,
0.04054862842892768,0.04754315208842741,
0.04059850374064838,0.019970314296849933,
0.04064837905236908,0.02346317312053887,
0.040698254364089775,0.02710240845774189,
0.04074812967581047,0.06942152687369417,
0.040798004987531174,0.03462185214288719,
0.04084788029925187,0.011352836900318013,
0.040897755610972565,0.03660137282773149,
0.04094763092269327,0.016738855476508482,
0.04099750623441396,0.014915344768496246,
0.041047381546134666,0.03598116464471705,
0.04109725685785536,0.02290424624297339,
0.04114713216957606,0.026697670621454915,
0.04119700748129676,0.022805112023809502,
0.041246882793017456,0.027715596889512608,
0.04129675810473815,0.029108052611852744,
0.041346633416458854,-0.006259043273436956,
0.04139650872817955,0.03285111544449248,
0.04144638403990025,0.008174453858134714,
0.04149625935162095,0.0013176210045948884,
0.041546134663341644,0.022118434697163274,
0.04159600997506235,0.024291936643991624,
0.04164588528678304,0.01266236197195401,
0.04169576059850374,0.035558272643098146,
0.04174563591022444,0.0029831091967103124,
0.041795511221945136,0.017029619239499683,
0.04184538653366583,0.01437379558223198,
0.041895261845386535,0.02245632173891022,
0.04194513715710723,0.027341408205595424,
0.04199501246882793,0.008038452894451077,
0.04204488778054863,0.03401458187692625,
0.042094763092269324,0.02408396570716376,
0.04214463840399003,-0.005256577537800022,
0.04219451371571072,-0.006277466726214844,
0.04224438902743142,0.022890512769590594,
0.04229426433915212,0.01972980567509827,
0.04234413965087282,0.021457151538902788,
0.04239401496259352,0.022547988442106974,
0.042443890274314215,0.02630554009636864,
0.04249376558603491,0.037086461142306223,
0.042543640897755614,0.006149888548897222,
0.04259351620947631,0.005176818300088874,
0.042643391521197005,0.006291665186828853,
0.04269326683291771,0.02695562150078728,
0.0427431421446384,0.04122166620773512,
0.0427930174563591,0.01599820277566123,
0.0428428927680798,-0.015141089350751414,
0.0428927680798005,-0.0032640740092340463,
0.0429426433915212,0.009706998031555029,
0.042992518703241896,0.013738688648469513,
0.04304239401496259,0.015876233745120875,
0.043092269326683294,0.022473615396304446,
0.04314214463840399,0.017106960421214547,
0.043192019950124685,0.03740695616173963,
0.04324189526184539,0.011405788297344257,
0.043291770573566084,0.008485974209071254,
0.043341645885286786,0.02847411392039277,
0.04339152119700748,-0.0018778386645282828,
0.04344139650872818,0.0268635876705205,
0.04349127182044888,0.02241357265994861,
0.043541147132169576,0.018516379487627663,
0.04359102244389027,0.04440061656782535,
0.043640897755610975,0.0110875757217153,
0.04369077306733167,0.051165165882766796,
0.043740648379052366,0.016715061193047956,
0.04379052369077307,0.0007730007686971921,
0.043840399002493764,0.020804672810323083,
0.04389027431421447,0.003435793120648952,
0.04394014962593516,0.00812273004539266,
0.04399002493765586,0.025170213717267985,
0.04403990024937656,0.02736018799843092,
0.04408977556109726,0.009501826752087834,
0.04413965087281795,0.03344949623965189,
0.044189526184538655,0.03580135248348176,
0.04423940149625935,0.03977986969533717,
0.04428927680798005,0.02596949272614488,
0.04433915211970075,0.03826906336398789,
0.044389027431421445,-0.010608557244384993,
0.04443890274314215,0.012617106378071698,
0.04448877805486284,0.004159464504862709,
0.04453865336658354,0.01872837853515221,
0.04458852867830424,0.008140364174118188,
0.04463840399002494,0.013988568119800432,
0.04468827930174563,0.04447917135498004,
0.044738154613466335,0.013463201187867898,
0.04478802992518703,0.021975229693533986,
0.044837905236907734,0.012040608609291039,
0.04488778054862843,0.01641366906977266,
0.044937655860349125,0.015118620200040806,
0.04498753117206983,0.021500772475116225,
0.045037406483790524,0.032000270159643816,
0.04508728179551122,0.038973580466651135,
0.04513715710723192,0.018646317099781037,
0.04518703241895262,0.022581961434731283,
0.04523690773067331,-0.0037900047648188797,
0.045286783042394016,0.011886545095388498,
0.04533665835411471,0.027038366974331658,
0.045386533665835414,0.025650546128826654,
0.04543640897755611,0.015559884823056435,
0.045486284289276806,0.025404169732427123,
0.04553615960099751,0.019190150753249025,
0.045586034912718204,0.029551571609107912,
0.0456359102244389,0.015603700615945057,
0.0456857855361596,0.005642252525001276,
0.0457356608478803,0.01572790961300243,
0.045785536159601,-0.03355784038772813,
0.045835411471321696,0.015853438701416096,
0.04588528678304239,-0.044908597059487576,
0.045935162094763095,-0.01632847512740825,
0.04598503740648379,0.016004396792372207,
0.046034912718204486,0.01609378425480904,
0.04608478802992519,-0.008803952624981385,
0.046134663341645885,-0.002348684035851775,
0.04618453865336658,0.028590136051945006,
0.04623441396508728,0.0004696257688641351,
0.04628428927680798,0.041070895886170924,
0.04633416458852868,0.0070943391028037,
0.04638403990024938,0.0129388330389247,
0.04643391521197007,0.030765743394695247,
0.046483790523690775,0.008171630699637774,
0.04653366583541147,-0.00913600356255116,
0.04658354114713217,0.0039455885216627675,
0.04663341645885287,0.004749171812681934,
0.046683291770573565,-0.015496394383254834,
0.04673316708229427,0.0008282885430507562,
0.04678304239401496,-0.006776354142899895,
0.04683291770573566,0.01791244655973747,
0.04688279301745636,0.004256683421248633,
0.04693266832917706,-0.0008140567284314225,
0.04698254364089775,0.0015255507781031744,
0.047032418952618456,0.0061556131987224455,
0.04708229426433915,0.011751678962590408,
0.04713216957605985,-0.012805277700024952,
0.04718204488778055,-0.013742135482673674,
0.047231920199501246,0.01814355074198249,
0.04728179551122195,-0.004919520227067052,
0.047331670822942644,-0.02029436485356869,
0.04738154613466334,0.007308830545083692,
0.04743142144638404,0.00729627625154799,
0.04748129675810474,-0.02292011853087108,
0.047531172069825434,0.0031785849650634076,
0.047581047381546136,0.010466797877836841,
0.04763092269326683,0.004746559261836756,
0.047680798004987535,0.008309289607268648,
0.04773067331670823,-0.022534495521450718,
0.047780548628428926,0.0031963601861193514,
0.04783042394014963,-0.006606004034914344,
0.047880299251870324,-0.009604633994047188,
0.04793017456359102,0.01040094369888921,
0.04798004987531172,0.0192386567772359,
0.04802992518703242,0.023673630754391654,
0.048079800498753114,0.01619042255936797,
0.04812967581047382,-0.005465727892130718,
0.04817955112219451,0.0011848950473638932,
0.048229426433915215,0.007112142053786038,
0.04827930174563591,-0.0028548560878489016,
0.048329177057356607,-0.0029913472607595885,
0.04837905236907731,0.00712531142984728,
0.048428927680798005,-0.006396222211209355,
0.0484788029925187,-0.016720036364345898,
0.0485286783042394,-0.01226926280303136,
0.0485785536159601,0.003187437213063975,
0.048628428927680795,-0.00654292088996631,
0.0486783042394015,-0.0017487562058739956,
0.04872817955112219,0.002937779131204349,
0.048778054862842896,-0.012994888010198543,
0.04882793017456359,0.0037153113709686193,
0.04887780548628429,-0.0021991416957559858,
0.04892768079800499,-0.026654508239811744,
0.048977556109725685,0.013254629644976734,
0.04902743142144638,-0.016135781050030187,
0.049077306733167084,-0.03369268410985624,
0.04912718204488778,-0.02478046982749838,
0.04917705735660848,-0.024655908481519224,
0.04922693266832918,-0.008789846129644183,
0.04927680798004987,-0.013909158352023361,
0.049326683291770576,-0.01507951803491113,
0.04937655860349127,-0.0009537733670550545,
0.04942643391521197,-0.0053700078514806685,
0.04947630922693267,-0.005942772076272086,
0.049526184538653366,-0.0047478777996957065,
0.04957605985037406,-0.0018615088994923135,
0.049625935162094764,-0.0429274110028223,
0.04967581047381546,-0.01697557316823745,
0.04972568578553616,-0.04440929517270985,
0.04977556109725686,-0.011358597118103091,
0.049825436408977554,-0.0121585010235744,
0.04987531172069826,0.0034083561011345152,
0.04992518703241895,0.005358201619575544,
0.04997506234413965,-0.009592393943837698,
0.05002493765586035,-0.02031311582396382,
0.050074812967581046,-0.005699894010638742,
0.05012468827930175,-0.0210615747753157,
0.050174563591022445,-0.013325046434334149,
0.05022443890274314,0.0013307352444811866,
0.05027431421446384,-0.021980799446000506,
0.05032418952618454,-0.0016776978509615709,
0.050374064837905234,-0.003746196116796916,
0.05042394014962594,-0.02836908778068741,
0.05047381546134663,0.00042558814239901377,
0.05052369077306733,-0.0038355270251281687,
0.05057356608478803,-0.012911884358635986,
0.05062344139650873,-0.025997895004846176,
0.05067331670822943,-0.027568892942819608,
0.050723192019950125,-0.02285896008237393,
0.05077306733167082,-0.006763753764111681,
0.050822942643391524,-0.029341100436169526,
0.05087281795511222,-0.008543467870095403,
0.050922693266832915,-0.033827264340108444,
0.05097256857855362,-0.018352066926388435,
0.05102244389027431,-0.013731732498713838,
0.051072319201995016,0.021219810684157403,
0.05112219451371571,-0.03619283028635878,
0.05117206982543641,0.00647592736061609,
0.05122194513715711,-0.013423073933590548,
0.051271820448877806,-0.009564756478141851,
0.0513216957605985,-0.014013931702634045,
0.051371571072319204,-0.009170238468355164,
0.0514214463840399,-0.018193569144477596,
0.051471321695760595,0.0058801593000381465,
0.0515211970074813,-0.022815099129016022,
0.051571072319201994,0.000982920482412688,
0.051620947630922696,-0.025693789714890017,
0.05167082294264339,-0.016954856380301357,
0.05172069825436409,-0.03214841718706923,
0.05177057356608479,-0.009256622448357597,
0.051820448877805486,0.005586816727277649,
0.05187032418952618,-0.017253601813163478,
0.051920199501246884,-0.01904482150072819,
0.05197007481296758,-0.03280415728984515,
0.052019950124688276,-0.019512750099817334,
0.05206982543640898,-0.039948824189112345,
0.052119700748129674,-0.029728725754697642,
0.05216957605985038,-0.012607510910644364,
0.05221945137157107,0.003807045200870836,
0.05226932668329177,0.026196046747124967,
0.05231920199501247,-0.02469997602502572,
0.05236907730673317,0.005674089724983528,
0.05241895261845386,-0.012148477914809597,
0.052468827930174565,-0.018017983454136625,
0.05251870324189526,-0.009200019451129589,
0.05256857855361596,-0.014695034181195782,
0.05261845386533666,-0.013897883574099249,
0.052668329177057355,-0.021604063992507607,
0.05271820448877806,-0.036371185042487306,
0.05276807980049875,-0.03846963688786954,
0.05281795511221945,-0.0054275691874182234,
0.05286783042394015,-0.0192830131920213,
0.05291770573566085,-0.023975422649982665,
0.05296758104738154,-0.014803413223752674,
0.053017456359102245,-0.002899277846368351,
0.05306733167082294,-0.012005447587490309,
0.053117206982543644,-0.02443478361778459,
0.05316708229426434,0.003921946396125024,
0.053216957605985035,0.009341381787253591,
0.05326683291770574,-0.006797498221693232,
0.053316708229426434,0.0005241317164335988,
0.05336658354114713,0.004688048256739359,
0.05341645885286783,0.0031540161473040257,
0.05346633416458853,-0.004437733411338603,
0.05351620947630923,-0.004521423875508366,
0.053566084788029926,-0.00554482708299656,
0.05361596009975062,-0.02963864209081716,
0.053665835411471324,-0.0025023447439318173,
0.05371571072319202,-0.033180830307234246,
0.053765586034912716,-0.02458889544233265,
0.05381546134663342,0.007061393564798941,
0.053865336658354114,0.0002931024517713876,
0.05391521197007481,0.010186674386082187,
0.05396508728179551,-0.016009542840460876,
0.05401496259351621,-0.02902435968213303,
0.05406483790523691,-0.015149504509400733,
0.054114713216957606,-0.00981096371097681,
0.0541645885286783,-0.009951304720944864,
0.054214463840399005,0.00607810425520014,
0.0542643391521197,-0.01613344232531297,
0.054314214463840396,-0.005217518766253446,
0.0543640897755611,-0.025107512043661462,
0.054413965087281795,-0.0032998867321730333,
0.0544638403990025,-0.009781084834729108,
0.05451371571072319,-0.020844561225489496,
0.05456359102244389,-0.012901086161029772,
0.05461346633416459,-0.01188925947701526,
0.05466334164588529,-0.012938678016039444,
0.05471321695760598,0.017927231445555768,
0.054763092269326685,-0.009872980504885413,
0.05481296758104738,-0.01180506219675495,
0.05486284289276808,-0.03935570215128303,
0.05491271820448878,-0.021051413595932857,
0.054962593516209475,-0.011325880339807567,
0.05501246882793018,-0.017406217450973035,
0.05506234413965087,0.013871302333181585,
0.05511221945137157,-0.009061562305158895,
0.05516209476309227,0.013008619524579641,
0.05521197007481297,-0.005120452913401827,
0.05526184538653366,-0.005213078619558729,
0.055311720698254366,-0.006826478635704638,
0.05536159600997506,-0.005158252990437376,
0.05541147132169576,0.0208483666853601,
0.05546134663341646,-0.03944384583392049,
0.055511221945137156,-0.03438683142260311,
0.05556109725685786,-0.012223071102647923,
0.055610972568578554,-0.0035674266670661296,
0.05566084788029925,0.006858342018659964,
0.05571072319201995,0.0038970901643714294,
0.05576059850374065,-0.008667085211316903,
0.055810473815461344,0.012679823201827263,
0.055860349127182046,0.013146334069447556,
0.05591022443890274,0.000755104061877464,
0.055960099750623445,0.012736459164076883,
0.05600997506234414,0.002690085612673117,
0.056059850374064836,-0.00951664922507307,
0.05610972568578554,0.009679342700404537,
0.056159600997506234,0.00117901098801431,
0.05620947630922693,-0.0001512086502880767,
0.05625935162094763,0.022232957281682123,
0.05630922693266833,-0.03631346280647409,
0.056359102244389024,-0.02050374806150538,
0.05640897755610973,-0.016731792243183326,
0.05645885286783042,-0.004061117471205154,
0.056508728179551125,-0.002117099840968387,
0.05655860349127182,-0.02059300540207466,
0.056608478802992516,-0.012445084796566645,
0.05665835411471322,-0.010264459867815264,
0.056708229426433915,0.039825802929084386,
0.05675810473815461,0.03030716688824285,
0.05680798004987531,-0.0025783643912890603,
0.05685785536159601,-0.0015388670688339578,
0.05690773067331671,-0.013006082959254293,
0.05695760598503741,-0.024072872116753127,
0.0570074812967581,0.003112923805000306,
0.057057356608478806,-0.009784752109549075,
0.0571072319201995,0.004226952337404498,
0.0571571072319202,-0.018186989944493807,
0.0572069825436409,-0.005297503556248866,
0.057256857855361595,0.008677086657746833,
0.05730673316708229,0.012255865931574237,
0.057356608478802994,0.013339241482549967,
0.05740648379052369,-0.012416410403467812,
0.05745635910224439,0.020524218576536003,
0.05750623441396509,-0.0039870644783797475,
0.05755610972568578,0.017820252392558224,
0.057605985037406486,0.008478095082087406,
0.05765586034912718,-0.011698902102462482,
0.05770573566084788,0.004512048560438027,
0.05775561097256858,0.015042367875090043,
0.057805486284289276,0.0190620095082875,
0.05785536159600998,0.008056972725498279,
0.057905236907730674,0.03345130848061184,
0.05795511221945137,0.025888618739419736,
0.05800498753117207,0.007225902539113769,
0.05805486284289277,0.0226256509606346,
0.058104738154613464,0.040677115662863625,
0.05815461346633417,0.041372080268478315,
0.05820448877805486,-0.0061624522265669585,
0.05825436408977556,-0.0013496500456868614,
0.05830423940149626,0.03511092448977941,
0.058354114713216956,-0.0027503515590273885,
0.05840399002493766,-0.006429675307639569,
0.058453865336658355,0.00639789424501177,
0.05850374064837905,0.020274289982360798,
0.05855361596009975,0.012712672652305,
0.05860349127182045,0.00476548636534275,
0.058653366583541144,0.004683587999734536,
0.05870324189526185,0.00438200398292455,
0.05875311720698254,0.0021420858730402947,
0.05880299251870324,0.049824214349037325,
0.05885286783042394,0.020324634538496464,
0.05890274314214464,0.029422794495689755,
0.05895261845386534,0.009041817018216824,
0.059002493765586035,0.013842267322011251,
0.05905236907730673,0.006178952926204729,
0.059102244389027433,-0.022645771100318873,
0.05915211970074813,-0.003295807710455869,
0.059201995012468825,-0.009543644099797365,
0.05925187032418953,-0.015893047097149293,
0.05930174563591022,0.00015810971342133245,
0.059351620947630926,0.03819426883430928,
0.05940149625935162,0.017881429101323152,
0.05945137157107232,0.03813100961534967,
0.05950124688279302,0.025158362769316565,
0.059551122194513716,0.030949513451588286,
0.05960099750623441,0.005911566619264312,
0.059650872817955114,0.02749450828359273,
0.05970074812967581,0.030772461149089533,
0.059750623441396505,0.011394773386613771,
0.05980049875311721,0.02863650607103907,
0.059850374064837904,0.028931269323470864,
0.059900249376558606,0.012386303783111974,
0.0599501246882793,0.003975248484642591,
0.06,0.00323802853534701,
0.0600498753117207,0.022476667810095875,
0.060099750623441396,0.02625927344242136,
0.06014962593516209,0.00963714618860841,
0.060199501246882794,0.022090548464127224,
0.06024937655860349,0.030412345031828318,
0.06029925187032419,0.031285418819338974,
0.06034912718204489,0.045444738036247885,
0.060399002493765584,0.04147089949255203,
0.06044887780548629,0.007442103110583763,
0.06049875311720698,0.047856157402770105,
0.06054862842892768,0.014774174742496347,
0.06059850374064838,0.03854390835806848,
0.06064837905236908,0.024018113743624996,
0.06069825436408977,0.01693904579440253,
0.060748129675810475,-0.0038757496434058264,
0.06079800498753117,0.02078006889062018,
0.06084788029925187,7.201078400280794e-05,
0.06089775561097257,0.03807683420231305,
0.060947630922693265,0.046419160694755116,
0.06099750623441397,0.011808846378006005,
0.06104738154613466,0.028382605476849905,
0.06109725685785536,0.013057976063029874,
0.06114713216957606,0.014592633779221929,
0.06119700748129676,0.03571361342879382,
0.06124688279301746,0.023589621571985075,
0.061296758104738155,0.05032911660943781,
0.06134663341645885,0.017062791674454573,
0.061396508728179554,0.03934337483474812,
0.06144638403990025,0.025866737063399724,
0.061496259351620945,0.03638955516549122,
0.06154613466334165,0.01778800173106941,
0.061596009975062344,0.023789588508345248,
0.06164588528678304,0.02283320695650325,
0.06169576059850374,0.012052659975681548,
0.06174563591022444,0.03454766783286682,
0.06179551122194514,0.03438820486494309,
0.061845386533665836,0.03355090851503926,
0.06189526184538653,0.04771028224977934,
0.061945137157107234,0.04639926874996787,
0.06199501246882793,0.019033315721862447,
0.062044887780548626,0.030246751544386233,
0.06209476309226933,0.015285531004793199,
0.062144638403990024,0.024973543260589485,
0.06219451371571072,0.015605746482156672,
0.06224438902743142,0.048876926208713825,
0.06229426433915212,0.030000343160861954,
0.06234413965087282,0.021238557827198516,
0.062394014962593516,0.042372531403304714,
0.06244389027431421,-0.008136575091922432,
0.062493765586034915,-0.005839322374472954,
0.06254364089775562,0.03625452743425171,
0.06259351620947631,0.025163890434763792,
0.06264339152119701,0.02794867504129967,
0.0626932668329177,0.0042263733753116865,
0.0627431421446384,0.02369937923343923,
0.0627930174563591,0.05402135079649195,
0.0628428927680798,0.03624780380959967,
0.0628927680798005,0.026341804204621348,
0.0629426433915212,0.017117113202756967,
0.06299251870324189,0.017686388033709987,
0.06304239401496259,-0.008435560476448757,
0.0630922693266833,0.027259835416513754,
0.063142144638404,0.03596571839212015,
0.06319201995012469,-0.0004671257056545891,
0.06324189526184539,0.013125082499993418,
0.06329177057356608,0.0055590479101885575,
0.06334164588528678,0.008310972490134502,
0.06339152119700749,0.023459262120306818,
0.06344139650872818,-0.008747589149816888,
0.06349127182044888,0.03158954830111564,
0.06354114713216957,0.03353604543126629,
0.06359102244389027,0.01831012439679003,
0.06364089775561098,-0.015289766294237603,
0.06369077306733167,0.006814573573642253,
0.06374064837905237,0.040090207252901355,
0.06379052369077307,-0.020241535799926325,
0.06384039900249376,0.016043144524850943,
0.06389027431421446,0.0033795616921174186,
0.06394014962593517,0.03296771014814776,
0.06399002493765586,0.010588078401489596,
0.06403990024937656,0.026585826037886808,
0.06408977556109725,0.028816293179921224,
0.06413965087281795,0.047681836861440834,
0.06418952618453866,0.016894622711362536,
0.06423940149625935,0.02537601018309121,
0.06428927680798005,-0.002747553750509873,
0.06433915211970075,0.037173808461272044,
0.06438902743142144,0.007695744282082388,
0.06443890274314215,0.010474335459615725,
0.06448877805486285,0.018330755212658353,
0.06453865336658354,-0.005003360317181776,
0.06458852867830424,0.021643552586413397,
0.06463840399002493,0.03249281496581033,
0.06468827930174563,0.022140426046489567,
0.06473815461346634,-0.006324609380430793,
0.06478802992518704,0.015411046861521666,
0.06483790523690773,0.0281549088230859,
0.06488778054862843,-0.011392049652632418,
0.06493765586034912,0.0004066772256112357,
0.06498753117206983,0.02942384832580415,
0.06503740648379053,0.02007185674488757,
0.06508728179551122,0.021941997653168756,
0.06513715710723192,0.04339417670407819,
0.06518703241895261,0.022266773827038712,
0.06523690773067331,0.02484099230811899,
0.06528678304239402,0.05536557367870751,
0.06533665835411472,0.011226636415428641,
0.06538653366583541,0.002192440117643704,
0.06543640897755611,0.020302335044578415,
0.0654862842892768,0.020192761226616434,
0.06553615960099751,0.005427539879903756,
0.06558603491271821,-0.002439371736723643,
0.0656359102244389,0.04741057058169225,
0.0656857855361596,0.01737995545725758,
0.0657356608478803,0.0012055713217102911,
0.06578553615960099,0.02563957619560202,
0.0658354114713217,0.00997250690792135,
0.0658852867830424,0.00752389025077084,
0.06593516209476309,0.01945707077704438,
0.06598503740648379,-0.00865087945596731,
0.06603491271820448,0.01571972410515883,
0.06608478802992519,0.038826258091778545,
0.06613466334164589,0.016824953458814476,
0.06618453865336658,0.003888266621088728,
0.06623441396508728,0.0016229104994710123,
0.06628428927680798,0.0027713885584701083,
0.06633416458852869,0.004813078670080672,
0.06638403990024938,0.0026505593032559484,
0.06643391521197008,0.021756650897582795,
0.06648379052369077,-0.01829257578507807,
0.06653366583541147,0.0203284786391333,
0.06658354114713216,0.0013955090706477668,
0.06663341645885287,0.012436841193990043,
0.06668329177057357,-0.010430811811152315,
0.06673316708229426,0.026094496933811342,
0.06678304239401496,0.024540297850110013,
0.06683291770573566,0.019940169117959962,
0.06688279301745637,-0.017484600462588627,
0.06693266832917706,0.017363896263428755,
0.06698254364089776,0.010690291550193926,
0.06703241895261845,-0.01977111548983177,
0.06708229426433915,0.003634160288268249,
0.06713216957605984,0.009157562912911296,
0.06718204488778055,0.011721932717949083,
0.06723192019950125,0.005731392362443799,
0.06728179551122195,0.007133098186041374,
0.06733167082294264,0.02456151621331832,
0.06738154613466334,0.020541212050695958,
0.06743142144638405,-0.041161046957672906,
0.06748129675810474,-0.003221935129512419,
0.06753117206982544,-0.0012343886511629312,
0.06758104738154613,-0.02534942492004149,
0.06763092269326683,0.002042495176495266,
0.06768079800498752,0.019059905377840525,
0.06773067331670823,-0.016270020892294335,
0.06778054862842893,0.004775712590749027,
0.06783042394014963,-0.014305134568757396,
0.06788029925187032,-0.010942552163751722,
0.06793017456359102,0.021002408432590988,
0.06798004987531173,-0.009589949277529389,
0.06802992518703242,0.005190130708901869,
0.06807980049875312,-0.030101119297696037,
0.06812967581047381,0.025613880714520407,
0.06817955112219451,0.006432696249429792,
0.0682294264339152,-0.005628897231526599,
0.06827930174563591,0.005459458218956786,
0.06832917705735661,-0.024601331165503264,
0.0683790523690773,0.014005730364741838,
0.068428927680798,-0.00886801494116532,
0.0684788029925187,-0.007343051420258311,
0.06852867830423941,-0.011928293016905192,
0.0685785536159601,-0.013532297085440181,
0.0686284289276808,0.005330915697515388,
0.0686783042394015,-0.0015146419671575595,
0.06872817955112219,0.004161458105272752,
0.0687780548628429,-0.006005556590330446,
0.0688279301745636,0.0015682002207531506,
0.06887780548628429,-0.012665913462292532,
0.06892768079800499,0.026812248422114434,
0.06897755610972568,-0.03040033145251287,
0.06902743142144638,0.011788001242935697,
0.06907730673316709,0.013150893335064485,
0.06912718204488778,-0.020388676496942947,
0.06917705735660848,0.025597377089911888,
0.06922693266832917,0.006858396551016773,
0.06927680798004987,0.006264156750041326,
0.06932668329177058,-0.008108249111447448,
0.06937655860349128,-0.012009254445410523,
0.06942643391521197,-0.012110845737352124,
0.06947630922693267,-0.0033271221063226122,
0.06952618453865336,0.011620882684667554,
0.06957605985037406,-0.006885438312098578,
0.06962593516209477,-0.023481403776236427,
0.06967581047381546,0.0023557520927221364,
0.06972568578553616,0.0036094466127636286,
0.06977556109725686,-0.0005812894033951112,
0.06982543640897755,0.0005917749021295896,
0.06987531172069826,-0.014840268187350347,
0.06992518703241896,-0.024892885964451546,
0.06997506234413965,-0.024158671298707725,
0.07002493765586035,-0.03584141455981442,
0.07007481296758104,-0.007924863707277184,
0.07012468827930174,-0.012896340170438723,
0.07017456359102245,-0.018405786475407374,
0.07022443890274314,-0.0562974221713147,
0.07027431421446384,-0.030825837662451887,
0.07032418952618454,0.004547869892655033,
0.07037406483790523,-0.0223784851780761,
0.07042394014962594,-0.007140229993215502,
0.07047381546134664,-0.03354501598247007,
0.07052369077306733,0.008764633146831655,
0.07057356608478803,-0.015103130597019503,
0.07062344139650872,-0.008714396371509708,
0.07067331670822943,0.021703918859109703,
0.07072319201995013,0.009450588541244653,
0.07077306733167082,-0.018003162768643,
0.07082294264339152,-0.022407049644368113,
0.07087281795511222,-0.0184913669419084,
0.07092269326683291,-0.0060545140863038785,
0.07097256857855362,-0.015371472830124976,
0.07102244389027432,-0.019807199912208334,
0.07107231920199501,0.008048472072561798,
0.07112219451371571,-0.015748365316322514,
0.0711720698254364,0.020387407469729134,
0.07122194513715711,-0.012811725792443657,
0.07127182044887781,0.012545270230192803,
0.0713216957605985,-0.008931545840303236,
0.0713715710723192,0.00010106472400556003,
0.0714214463840399,-0.0252596778544508,
0.07147132169576059,-0.027239217645695583,
0.0715211970074813,-0.007574694921141993,
0.071571072319202,0.0003254318470834721,
0.0716209476309227,-0.0139267204934441,
0.07167082294264339,-0.03384928025766744,
0.07172069825436408,-0.034975172392796565,
0.0717705735660848,-0.03599135874395265,
0.07182044887780549,-0.041106755253384586,
0.07187032418952619,-0.012953346145139556,
0.07192019950124688,0.0022817388828972676,
0.07197007481296758,-0.014788540085046821,
0.07201995012468827,-0.04848199862198021,
0.07206982543640898,-0.01742075070495487,
0.07211970074812968,-0.016979990964555134,
0.07216957605985037,0.01692821302220987,
0.07221945137157107,-0.036337704668909086,
0.07226932668329177,-0.02030478001438213,
0.07231920199501247,0.011184074047683183,
0.07236907730673317,-0.007608270536704746,
0.07241895261845387,-0.005857618684209868,
0.07246882793017456,-0.012533068510856827,
0.07251870324189526,-0.009242366120823933,
0.07256857855361595,-0.002462238129499918,
0.07261845386533666,-0.026198730575813192,
0.07266832917705736,-0.0008108209007145952,
0.07271820448877805,-0.03449723514634284,
0.07276807980049875,-0.00889240573167983,
0.07281795511221945,-0.011047811201249666,
0.07286783042394016,-0.02287960813055243,
0.07291770573566085,-0.013877085018221073,
0.07296758104738155,-0.022771833427274055,
0.07301745635910224,-0.029401531848447748,
0.07306733167082294,-0.018517894968471046,
0.07311720698254365,-0.02965657302931954,
0.07316708229426434,-0.008133286740212468,
0.07321695760598504,-0.030100500778418575,
0.07326683291770573,-0.0020390271742254888,
0.07331670822942643,-0.030305858312340752,
0.07336658354114713,-0.020938643654221503,
0.07341645885286784,-0.021669409845620102,
0.07346633416458853,0.007725077829643649,
0.07351620947630923,-0.007045199357887925,
0.07356608478802992,-0.015018678620151157,
0.07361596009975062,-0.004200738206874427,
0.07366583541147133,-0.04312404712182881,
0.07371571072319202,-0.01199361137798791,
0.07376558603491272,0.018789805267364585,
0.07381546134663342,-0.009009905644975063,
0.07386533665835411,-0.009794540257467892,
0.0739152119700748,-0.0024054291018435116,
0.07396508728179552,0.0029965796831580363,
0.07401496259351621,-0.04020571639510046,
0.07406483790523691,-0.03528094978957777,
0.0741147132169576,-0.006690186896485793,
0.0741645885286783,-0.02036242408475605,
0.07421446384039901,0.01025011870661427,
0.0742643391521197,-0.013945176222589055,
0.0743142144638404,-0.038019188439788375,
0.0743640897755611,-0.027801522265570908,
0.07441396508728179,-0.049803012071260956,
0.07446384039900249,-0.01184283919716209,
0.0745137157107232,-0.010926383300253705,
0.07456359102244389,-0.014233863818091979,
0.07461346633416459,0.008553267647083676,
0.07466334164588528,0.010588134583344523,
0.07471321695760598,-0.009702042669799769,
0.07476309226932669,-0.03892004186922258,
0.07481296758104738,0.0026092395074545464,
0.07486284289276808,0.0019330847024035475,
0.07491271820448878,-0.001500827997468263,
0.07496259351620947,0.008839001724362656,
0.07501246882793017,-0.02309428161947833,
0.07506234413965088,0.024773569025882708,
0.07511221945137157,-0.019482379519149405,
0.07516209476309227,0.006416814783389071,
0.07521197007481296,-0.029859740124637792,
0.07526184538653366,-0.018228986147290523,
0.07531172069825437,0.018747460707201843,
0.07536159600997507,-0.007632248597963049,
0.07541147132169576,0.009161708800656932,
0.07546134663341646,0.00040105654120693333,
0.07551122194513715,-0.004441624407163166,
0.07556109725685786,0.017878621958612662,
0.07561097256857856,-0.00583886902513895,
0.07566084788029925,-0.028707955219367847,
0.07571072319201995,-0.013751495945541953,
0.07576059850374064,0.006860785131856241,
0.07581047381546134,0.004823092584517542,
0.07586034912718205,-0.024316200092280697,
0.07591022443890275,-0.011374648119234254,
0.07596009975062344,-0.008932989155408709,
0.07600997506234414,-0.005385419331129772,
0.07605985037406483,-0.020236907332643144,
0.07610972568578554,-0.008717293799584257,
0.07615960099750624,-0.009913178048885588,
0.07620947630922693,0.012897839986142542,
0.07625935162094763,0.013771603152433642,
0.07630922693266833,-0.00024142562676454041,
0.07635910224438902,-0.0036229880032565254,
0.07640897755610973,0.004669205584687993,
0.07645885286783043,-0.009364775323307832,
0.07650872817955112,-0.01400441719948373,
0.07655860349127182,-0.01059041522377446,
0.07660847880299251,-0.005693905921023885,
0.07665835411471322,-0.013307953594753813,
0.07670822942643392,0.006891305254398646,
0.07675810473815461,0.015722725314496352,
0.07680798004987531,-0.0187126629003142,
0.076857855361596,0.005787729880439348,
0.0769077306733167,0.0024288391715364026,
0.07695760598503741,0.0111675956289486,
0.0770074812967581,0.006167908492933059,
0.0770573566084788,-0.01512511601063752,
0.0771072319201995,-0.011940301498651086,
0.0771571072319202,0.007753261206230025,
0.0772069825436409,0.023059618992089703,
0.0772568578553616,-0.025269356376954172,
0.0773067331670823,0.013444376692089496,
0.07735660847880299,0.026417230267529124,
0.07740648379052369,0.006591256345913392,
0.0774563591022444,0.017452672225122583,
0.07750623441396509,-0.0010342410657108274,
0.07755610972568579,0.008032556865068957,
0.07760598503740648,-0.014180379372042425,
0.07765586034912718,-0.024722609094129964,
0.07770573566084787,0.02489211325998934,
0.07775561097256858,-0.00371741810848945,
0.07780548628428928,0.004530187126931129,
0.07785536159600998,-0.00912928468672227,
0.07790523690773067,-0.009179380588362353,
0.07795511221945137,0.00966391340741726,
0.07800498753117208,0.0016275599919881312,
0.07805486284289277,0.018538874238893225,
0.07810473815461347,0.019953757018388953,
0.07815461346633416,0.01827300514530066,
0.07820448877805486,0.017331988875222748,
0.07825436408977555,0.03771028253978415,
0.07830423940149626,-0.0016813691973734252,
0.07835411471321696,0.013795217652197482,
0.07840399002493766,0.03189414722019265,
0.07845386533665835,0.034154243331973734,
0.07850374064837905,-0.005860243660994644,
0.07855361596009976,0.01105859510487524,
0.07860349127182045,0.0363910423137712,
0.07865336658354115,0.02391322842080172,
0.07870324189526184,0.019491254038187418,
0.07875311720698254,0.013564690204726825,
0.07880299251870324,0.011337919280833561,
0.07885286783042394,0.02168044805363716,
0.07890274314214464,0.013830972088221295,
0.07895261845386534,0.017234456641289586,
0.07900249376558603,0.019305736608854134,
0.07905236907730673,0.00820630986384049,
0.07910224438902744,0.026606896270115532,
0.07915211970074813,0.0625830844876458,
0.07920199501246883,-0.007544098603316771,
0.07925187032418952,0.02420894387593977,
0.07930174563591022,0.008180670980660184,
0.07935162094763092,0.028475981816296396,
0.07940149625935163,0.02074132474138777,
0.07945137157107232,0.031695347317195574,
0.07950124688279302,0.03812117677769372,
0.07955112219451371,0.02359238332166123,
0.07960099750623441,0.037900722826129406,
0.07965087281795512,-0.014034326036450169,
0.07970074812967581,0.04519341194177302,
0.07975062344139651,0.02716527630573127,
0.0798004987531172,0.03790589351415781,
0.0798503740648379,0.003635140834153533,
0.07990024937655861,0.009662850320443804,
0.0799501246882793,0.024500636194660703,
0.08,0.02223915334365016,
0.0800498753117207,0.026919863014212883,
0.0800997506234414,0.03911658366700711,
0.08014962593516209,-0.0034585589251137604,
0.0801995012468828,0.037793747882212236,
0.0802493765586035,0.023473192891391114,
0.08029925187032419,0.020450486211606198,
0.08034912718204489,0.0015944450113855799,
0.08039900249376558,0.03135653557840596,
0.08044887780548629,-0.012255543383148836,
0.08049875311720699,0.03382285543266859,
0.08054862842892768,0.0018517969939189707,
0.08059850374064838,0.025167228273280023,
0.08064837905236907,0.022705306390080428,
0.08069825436408977,0.04215886444897139,
0.08074812967581048,0.0220543626442724,
0.08079800498753117,0.014435926197690652,
0.08084788029925187,0.01735816807656803,
0.08089775561097257,0.04415501751687094,
0.08094763092269326,0.03320613680138133,
0.08099750623441397,0.019472454012524287,
0.08104738154613467,0.021800721636214278,
0.08109725685785536,0.0019255471964868646,
0.08114713216957606,0.03134135345845614,
0.08119700748129675,-0.0008067259911267895,
0.08124688279301745,0.03693894026653535,
0.08129675810473816,0.027657998659877024,
0.08134663341645886,0.06159481564010372,
0.08139650872817955,0.009345537319516907,
0.08144638403990025,0.024359826254221752,
0.08149625935162094,0.05292140324381293,
0.08154613466334165,0.043860394852663756,
0.08159600997506235,0.0155839548886229,
0.08164588528678304,0.02941934708251385,
0.08169576059850374,0.026117633462536118,
0.08174563591022443,0.03033989013680526,
0.08179551122194513,0.01564835143385296,
0.08184538653366584,0.024801851110702582,
0.08189526184538654,0.0021790617258167014,
0.08194513715710723,0.02817997926438716,
0.08199501246882793,0.03290180775365461,
0.08204488778054862,0.022733667975523328,
0.08209476309226933,0.001907751183578478,
0.08214463840399003,0.040945145448498546,
0.08219451371571072,0.03156379855065454,
0.08224438902743142,0.015179560629744663,
0.08229426433915212,0.0218297604752924,
0.08234413965087282,0.0034928307145390483,
0.08239401496259352,0.010580958638444734,
0.08244389027431422,0.01784932429825504,
0.08249376558603491,0.04429234786705809,
0.08254364089775561,0.016218196559535457,
0.0825935162094763,0.0353538490891674,
0.08264339152119701,0.017610998636834914,
0.08269326683291771,0.029335270123173565,
0.0827431421446384,0.02342067477907613,
0.0827930174563591,0.038558261673432195,
0.0828428927680798,0.017356323074281445,
0.0828927680798005,0.0017019465024676744,
0.0829426433915212,0.004467331185827143,
0.0829925187032419,0.01712044376828421,
0.08304239401496259,0.006260114217578192,
0.08309226932668329,0.031041995791408837,
0.08314214463840398,0.0177905162696612,
0.0831920199501247,0.06027980994086115,
0.08324189526184539,-0.0015258550561817394,
0.08329177057356608,0.027469023545135602,
0.08334164588528678,0.00736543400179851,
0.08339152119700748,0.0167494870124746,
0.08344139650872819,0.02613318512027376,
0.08349127182044888,-0.011011648620479951,
0.08354114713216958,0.027274021829475872,
0.08359102244389027,0.05211366625217102,
0.08364089775561097,0.01661265837283766,
0.08369077306733166,0.027151322687518926,
0.08374064837905237,0.038463835875723426,
0.08379052369077307,0.020462388500603532,
0.08384039900249377,0.014034885809113906,
0.08389027431421446,-0.011563199431239669,
0.08394014962593516,0.03200726998368987,
0.08399002493765587,0.020510495405829894,
0.08403990024937656,0.006829472110686029,
0.08408977556109726,0.02372653197454241,
0.08413965087281795,0.01287641860152892,
0.08418952618453865,0.013505514834832958,
0.08423940149625936,0.03032284714919997,
0.08428927680798005,0.0009456576559089373,
0.08433915211970075,0.036520429899688095,
0.08438902743142145,-0.0003688396527530592,
0.08443890274314214,0.010438182767431012,
0.08448877805486284,0.049001701185984986,
0.08453865336658355,0.03684324258170771,
0.08458852867830424,0.02116905847543612,
0.08463840399002494,0.005365844203116206,
0.08468827930174563,0.01130029077220959,
0.08473815461346633,0.0201009205814966,
0.08478802992518704,0.019323951630609668,
0.08483790523690773,0.01715430827844629,
0.08488778054862843,0.017808171132233878,
0.08493765586034913,0.014805397842944238,
0.08498753117206982,-0.003861149678565639,
0.08503740648379052,0.009765581213583908,
0.08508728179551123,0.030974581854558966,
0.08513715710723192,-0.00353048275382261,
0.08518703241895262,0.01388790657910513,
0.08523690773067331,0.004169100292646763,
0.08528678304239401,0.017867364240638613,
0.08533665835411472,0.010096904043470844,
0.08538653366583542,0.037814263449488086,
0.08543640897755611,0.02297679320373909,
0.0854862842892768,-0.00457651497698712,
0.0855361596009975,0.024889307547872247,
0.0855860349127182,0.0029194022047274067,
0.08563591022443891,0.005600535036034523,
0.0856857855361596,0.018677144910505764,
0.0857356608478803,0.006306176792164479,
0.085785536159601,0.026785974776349267,
0.08583541147132169,0.001484528940267833,
0.0858852867830424,0.0035253891366342927,
0.0859351620947631,0.0026698695602197873,
0.08598503740648379,0.0037352083792539306,
0.08603491271820449,0.02841060417545628,
0.08608478802992518,0.021056274921370598,
0.08613466334164588,0.03697382210983511,
0.08618453865336659,0.04503846522932391,
0.08623441396508728,-0.0047389320740909,
0.08628428927680798,0.011475088460371024,
0.08633416458852868,-0.007528192837413296,
0.08638403990024937,-0.0018541588837169172,
0.08643391521197008,5.299401875320277e-05,
0.08648379052369078,-0.006659530317835725,
0.08653366583541147,-0.006887619552474307,
0.08658354114713217,0.006418732541713104,
0.08663341645885286,-0.009975980995014202,
0.08668329177057357,0.020598061688450665,
0.08673316708229427,-0.0061091420965525035,
0.08678304239401496,0.049491417593545105,
0.08683291770573566,0.00026763360954929014,
0.08688279301745636,0.007809054479928119,
0.08693266832917705,-0.013010989371330814,
0.08698254364089776,0.03170086931397106,
0.08703241895261846,0.022592470630588092,
0.08708229426433915,0.009944345789062257,
0.08713216957605985,-0.015020526502475257,
0.08718204488778054,0.008032752383706184,
0.08723192019950125,-0.012257068782570227,
0.08728179551122195,0.02619186036396521,
0.08733167082294264,0.01608715020172404,
0.08738154613466334,0.005074152276441017,
0.08743142144638404,-0.0332090149130534,
0.08748129675810473,-0.011719774423931052,
0.08753117206982544,0.01304359516202397,
0.08758104738154614,0.02061708982268292,
0.08763092269326683,0.018759056588123137,
0.08768079800498753,-0.022059916805635082,
0.08773067331670822,0.006043500350450624,
0.08778054862842893,0.016454124801541545,
0.08783042394014963,-0.02395113856512781,
0.08788029925187033,0.0005092170595976438,
0.08793017456359102,0.00444077575107221,
0.08798004987531172,-0.00447143564767959,
0.08802992518703241,-0.02803389012511709,
0.08807980049875312,-0.0054267456576271725,
0.08812967581047382,-0.0057389114050495965,
0.08817955112219451,-0.0033366445664697497,
0.08822942643391521,-0.00985195984768158,
0.0882793017456359,-0.00832743143882613,
0.08832917705735661,-0.0025581645234654584,
0.08837905236907731,0.0043960368950287,
0.088428927680798,-0.00708321704371404,
0.0884788029925187,-0.008935335799555095,
0.0885286783042394,-0.0016767622986490235,
0.0885785536159601,-0.03214489992644844,
0.0886284289276808,0.003557727510819326,
0.0886783042394015,-0.0038703680363156084,
0.0887281795511222,-0.003528058930824228,
0.08877805486284289,0.010028659585410124,
0.08882793017456359,-0.033930769656213985,
0.0888778054862843,-0.03449945110419333,
0.08892768079800499,-0.0010354532780541088,
0.08897755610972569,-0.005496930811027479,
0.08902743142144638,-0.0030822282730204667,
0.08907730673316708,-0.012808469409252718,
0.08912718204488779,0.0038501447915188043,
0.08917705735660848,0.007638968589933725,
0.08922693266832918,0.0006768686445412049,
0.08927680798004987,-0.010724284398181993,
0.08932668329177057,-0.038652873012283366,
0.08937655860349127,0.004278709642595401,
0.08942643391521198,0.01084722411789708,
0.08947630922693267,0.0019742814340797327,
0.08952618453865337,-0.021100582710051788,
0.08957605985037406,0.001992708288986735,
0.08962593516209476,0.004589118963745833,
0.08967581047381547,0.01486249144376858,
0.08972568578553616,-0.021858583093586313,
0.08977556109725686,-0.012307141975303219,
0.08982543640897755,0.002109209951180087,
0.08987531172069825,-0.008424378540011417,
0.08992518703241895,-0.026227167134412893,
0.08997506234413966,-0.003425751492573079,
0.09002493765586035,-0.001138788550499337,
0.09007481296758105,-0.008668917969360236,
0.09012468827930174,-0.00686012437045376,
0.09017456359102244,-0.014195870624290445,
0.09022443890274315,0.011701711689454436,
0.09027431421446384,-0.02413581227465743,
0.09032418952618454,-0.01958392659673213,
0.09037406483790524,-0.01075370913922904,
0.09042394014962593,0.002125787191128185,
0.09047381546134663,-0.033654771565055,
0.09052369077306734,-0.03097986124348701,
0.09057356608478803,-0.04201812566149554,
0.09062344139650873,-0.011084077743239731,
0.09067331670822942,-0.02846689054766396,
0.09072319201995012,-0.017573811368662973,
0.09077306733167083,-0.0019935738452801863,
0.09082294264339152,-0.021641477434067954,
0.09087281795511222,-0.008648572698844198,
0.09092269326683292,-0.016702689233646324,
0.09097256857855361,-0.002221050440045693,
0.09102244389027432,-0.005261292636450542,
0.09107231920199502,-0.02284794961276354,
0.09112219451371571,-0.015074712308460327,
0.09117206982543641,0.003039981373278454,
0.0912219451371571,-0.0067819734736842925,
0.0912718204488778,-0.03369872045345711,
0.09132169576059851,-0.0029668718058175943,
0.0913715710723192,-0.02912233040529001,
0.0914214463840399,0.008287335108964544,
0.0914713216957606,0.00241878275403949,
0.09152119700748129,-0.008631894335378474,
0.091571072319202,-0.010654288070407431,
0.0916209476309227,-0.01617598751335278,
0.09167082294264339,-0.002885478340508136,
0.09172069825436409,-0.018642948564259892,
0.09177057356608478,-0.00956076553237805,
0.09182044887780548,-2.3430712433849393e-05,
0.09187032418952619,-0.0215327691239448,
0.09192019950124689,-0.02234687727325077,
0.09197007481296758,-0.031012873532329597,
0.09201995012468828,-0.029052978316882246,
0.09206982543640897,-0.04049540517059387,
0.09211970074812968,-0.0021007277279932717,
0.09216957605985038,0.014111774489616305,
0.09221945137157107,0.008389100891024289,
0.09226932668329177,-0.03734610247933497,
0.09231920199501246,-0.0020411371634810847,
0.09236907730673316,0.008463386600648735,
0.09241895261845387,-0.01966974941746755,
0.09246882793017457,-0.011240430467192022,
0.09251870324189526,-0.042820243777943634,
0.09256857855361596,-0.008635689346848247,
0.09261845386533665,-0.028520204497557718,
0.09266832917705736,-0.009497569073241351,
0.09271820448877806,-0.0358306504905964,
0.09276807980049875,-0.004185490741984906,
0.09281795511221945,0.003128303662401981,
0.09286783042394015,-0.023893392598475102,
0.09291770573566084,-0.02910114953435758,
0.09296758104738155,-0.044284603773357786,
0.09301745635910225,-0.015832764040583765,
0.09306733167082294,-0.02044815404170658,
0.09311720698254364,-0.03487262797962732,
0.09316708229426433,-0.004690582778200197,
0.09321695760598504,-0.018109411654147863,
0.09326683291770574,-0.027365381610751794,
0.09331670822942643,-0.019412940255097672,
0.09336658354114713,0.005114644108091704,
0.09341645885286783,-0.001767030812836851,
0.09346633416458854,-0.012613262477318372,
0.09351620947630923,-0.001223743934278097,
0.09356608478802993,-0.027767143827814835,
0.09361596009975062,-0.009706793456119921,
0.09366583541147132,-0.007817164355930177,
0.09371571072319201,-0.01690501483259935,
0.09376558603491272,-0.003151914315651684,
0.09381546134663342,-0.02121250931271146,
0.09386533665835411,-0.0016768537402803898,
0.09391521197007481,-0.0008604221084669902,
0.0939650872817955,-0.0527058683981796,
0.09401496259351622,0.009099875980365685,
0.09406483790523691,-0.054271556976064755,
0.09411471321695761,-0.017596329954868782,
0.0941645885286783,0.007229884159976184,
0.094214463840399,-0.012700644205075502,
0.0942643391521197,-0.02972145562612553,
0.0943142144638404,-0.023918411272940067,
0.0943640897755611,0.008111122297313911,
0.0944139650872818,-0.03589161257426136,
0.09446384039900249,0.010092715069478522,
0.09451371571072319,-0.007438370664918201,
0.0945635910224439,-0.02426409341011678,
0.09461346633416459,-0.014887906812298807,
0.09466334164588529,-0.021159313390763806,
0.09471321695760598,0.0073358538499914095,
0.09476309226932668,0.005575449899191585,
0.09481296758104737,-0.030948754158161444,
0.09486284289276808,-0.010962576026173985,
0.09491271820448878,-0.017600884594370012,
0.09496259351620948,0.015008034302866671,
0.09501246882793017,-0.024384790265761885,
0.09506234413965087,0.020194208856383497,
0.09511221945137158,-0.004101872900623528,
0.09516209476309227,-0.02076205645817994,
0.09521197007481297,-0.013220171371594223,
0.09526184538653366,-0.014810855031102362,
0.09531172069825436,-0.021628924296720396,
0.09536159600997507,-0.0008079503344332892,
0.09541147132169576,-0.020367488231935377,
0.09546134663341646,-0.034370414846816195,
0.09551122194513716,-0.00707406930013835,
0.09556109725685785,-0.028133668789149115,
0.09561097256857855,-0.01208311537427878,
0.09566084788029926,-0.01414516541642791,
0.09571072319201995,-0.013282896924825531,
0.09576059850374065,0.03009557163714739,
0.09581047381546134,0.0012248225855705569,
0.09586034912718204,0.004358409048957313,
0.09591022443890275,-0.025667337369792664,
0.09596009975062345,-0.00852849138095221,
0.09600997506234414,0.00481426569505391,
0.09605985037406484,-0.013478058420748703,
0.09610972568578553,0.015817271349610234,
0.09615960099750623,-0.015536436598961357,
0.09620947630922694,-0.0014826409169545552,
0.09625935162094763,-0.0056680040221332075,
0.09630922693266833,0.005898505270676134,
0.09635910224438902,-0.0058618009753390226,
0.09640897755610972,-5.145315117781497e-06,
0.09645885286783043,0.0008297951047074622,
0.09650872817955113,-0.006329880142134387,
0.09655860349127182,0.012277160102980682,
0.09660847880299252,0.008891943293077227,
0.09665835411471321,0.0043027473087056695,
0.09670822942643391,-0.0005086831078455296,
0.09675810473815462,0.01821290761827487,
0.09680798004987531,0.003044031821137307,
0.09685785536159601,0.0022980506623076985,
0.0969077306733167,0.008785914204009492,
0.0969576059850374,0.03298143012012482,
0.09700748129675811,-0.012255711714804692,
0.0970573566084788,0.019714344823406296,
0.0971072319201995,-0.019914434360061687,
0.0971571072319202,0.012058576842104719,
0.0972069825436409,0.032741696315026485,
0.09725685785536159,0.016761007556310072,
0.0973067331670823,0.012305356456246154,
0.097356608478803,0.001653637208578541,
0.09740648379052369,0.010839808304924826,
0.09745635910224439,0.006906125105298417,
0.09750623441396508,-0.0007904446897048483,
0.09755610972568579,0.006962301620348581,
0.09760598503740649,0.014596403513820095,
0.09765586034912718,0.00042162389648535414,
0.09770573566084788,0.00014371500093423618,
0.09775561097256857,-0.007858853022754313,
0.09780548628428928,0.018711249578078917,
0.09785536159600998,0.02133444406446611,
0.09790523690773068,0.01693229426879487,
0.09795511221945137,0.0282362355586949,
0.09800498753117207,0.01537640831759464,
0.09805486284289276,0.02023662577210838,
0.09810473815461347,0.01921037113305226,
0.09815461346633417,0.013574265732952676,
0.09820448877805486,0.007277731709002493,
0.09825436408977556,0.048743107355049026,
0.09830423940149625,0.009040307812431893,
0.09835411471321696,0.006118086656796718,
0.09840399002493766,0.02290093543579687,
0.09845386533665836,0.020450927073116534,
0.09850374064837905,-0.0041187210161933024,
0.09855361596009975,0.03407101812081424,
0.09860349127182044,0.016093201258859983,
0.09865336658354115,0.0011149458555137874,
0.09870324189526185,0.03588091713666479,
0.09875311720698254,0.027701917436845434,
0.09880299251870324,-0.00038639706796299647,
0.09885286783042393,0.04550168073096274,
0.09890274314214464,0.02898529687016395,
0.09895261845386534,0.019206922952990497,
0.09900249376558604,0.043466743167452165,
0.09905236907730673,0.022253530937131533,
0.09910224438902743,0.01969036723308441,
0.09915211970074812,0.010451547015003088,
0.09920199501246883,0.02932506785312699,
0.09925187032418953,0.027984387069784948,
0.09930174563591022,0.021290287211874242,
0.09935162094763092,0.009451686892689312,
0.09940149625935162,0.023478425731628796,
0.09945137157107233,0.02070703541512836,
0.09950124688279302,0.001972931048246321,
0.09955112219451372,0.00011532517553071095,
0.09960099750623441,0.03088365925023806,
0.09965087281795511,-0.016411786122438293,
0.0997007481296758,0.025904157762053584,
0.09975062344139651,0.015854446684148624,
0.09980049875311721,0.04284826692965928,
0.0998503740648379,0.016017554630182916,
0.0999002493765586,0.03350293861811447,
0.0999501246882793,0.017844107109695733,
0.1,0.025687173004603,
0.1000498753117207,0.03521258723615185,
0.1000997506234414,0.017396701633030552,
0.10014962593516209,0.03945422623016488,
0.10019950124688279,0.00976712682839806,
0.1002493765586035,0.0292539660660886,
0.1002992518703242,0.03883289514999591,
0.10034912718204489,0.03504779706459616,
0.10039900249376559,0.05404351583211037,
0.10044887780548628,0.01399049770559292,
0.10049875311720698,0.004895695518271119,
0.10054862842892769,0.01080432285134124,
0.10059850374064838,0.035757938950207215,
0.10064837905236908,0.033447599734077946,
0.10069825436408977,0.027635534793254524,
0.10074812967581047,0.009375702977663183,
0.10079800498753118,0.03783685841227746,
0.10084788029925187,0.008072457098387956,
0.10089775561097257,0.043931815804626226,
0.10094763092269327,0.06950903051746739,
0.10099750623441396,0.03223941865079435,
0.10104738154613466,0.03557976348441373,
0.10109725685785537,0.019526006319585645,
0.10114713216957606,-0.00015328430211508648,
0.10119700748129676,0.018035370004978634,
0.10124688279301745,0.010754191233140944,
0.10129675810473815,0.005509208428262788,
0.10134663341645886,0.05311151579664061,
0.10139650872817955,0.03142606212107993,
0.10144638403990025,0.033080600746323796,
0.10149625935162095,0.022797257348147297,
0.10154613466334164,0.024881964773476796,
0.10159600997506234,0.0419808523103297,
0.10164588528678305,0.02706021093035565,
0.10169576059850374,0.03553345986687715,
0.10174563591022444,0.024655870951610002,
0.10179551122194513,0.022481623506104612,
0.10184538653366583,0.006523279147584965,
0.10189526184538654,-0.002031078526328802,
0.10194513715710724,0.023714984585264262,
0.10199501246882793,0.028484209194676084,
0.10204488778054863,0.008338245311428974,
0.10209476309226932,0.027101603785011714,
0.10214463840399003,0.02840864367693982,
0.10219451371571073,-0.004759033888724409,
0.10224438902743142,0.013828055906392214,
0.10229426433915212,0.03363283975601618,
0.10234413965087281,0.03329384232499297,
0.10239401496259351,0.010142051879450609,
0.10244389027431422,0.029778255750859815,
0.10249376558603492,0.042687159979307124,
0.10254364089775561,0.03895183312692273,
0.10259351620947631,0.02580632410328112,
0.102643391521197,0.02015103906606614,
0.10269326683291771,0.017660806895342985,
0.10274314214463841,0.034043796855512086,
0.1027930174563591,0.029873840407363312,
0.1028428927680798,0.036304396701692804,
0.1028927680798005,0.028752796223218968,
0.10294264339152119,0.038962819983564614,
0.1029925187032419,0.02800226352891318,
0.1030423940149626,0.0382510891487742,
0.10309226932668329,0.039435876999570074,
0.10314214463840399,0.01419383442269761,
0.10319201995012468,-0.000976778646498866,
0.10324189526184539,0.049176902296629216,
0.10329177057356609,0.02974902761702432,
0.10334164588528678,5.2036906988066345e-05,
0.10339152119700748,0.014927785825053481,
0.10344139650872818,0.037074553737784254,
0.10349127182044887,0.02115829102154304,
0.10354114713216958,0.017525205414480632,
0.10359102244389028,0.046067753976954506,
0.10364089775561097,0.009189372521280034,
0.10369077306733167,0.012766326439133393,
0.10374064837905236,0.02774520466281514,
0.10379052369077307,0.030262887115174743,
0.10384039900249377,0.03167878134754511,
0.10389027431421446,0.03772573953733941,
0.10394014962593516,0.026855385782958246,
0.10399002493765586,0.031033052938442614,
0.10403990024937655,0.01961583830389952,
0.10408977556109726,0.02425227817744086,
0.10413965087281796,0.024728833946217058,
0.10418952618453865,0.026142551100802082,
0.10423940149625935,0.03430072414030355,
0.10428927680798004,0.03083270121785652,
0.10433915211970075,0.022958052745809216,
0.10438902743142145,0.009943635031322421,
0.10443890274314215,0.022877819679689226,
0.10448877805486284,0.021221263308995632,
0.10453865336658354,0.02431464154005535,
0.10458852867830425,0.05428684974612086,
0.10463840399002494,0.01310115216063474,
0.10468827930174564,0.027057631901699936,
0.10473815461346633,0.036512617939364375,
0.10478802992518703,0.021715002737757286,
0.10483790523690772,0.05506889469081596,
0.10488778054862843,0.014083889934454322,
0.10493765586034913,0.02436615806366914,
0.10498753117206983,0.0072702151832904245,
0.10503740648379052,0.013724116066686564,
0.10508728179551122,0.022472949182620914,
0.10513715710723193,0.03117278684693621,
0.10518703241895262,0.02300133067327196,
0.10523690773067332,0.036835775569689096,
0.10528678304239401,0.016256246427857196,
0.10533665835411471,0.012427466767477195,
0.1053865336658354,0.05769670269504431,
0.10543640897755611,0.02277515288578503,
0.10548628428927681,0.005791826202433868,
0.1055361596009975,0.005890422438446544,
0.1055860349127182,0.0018824474321372693,
0.1056359102244389,0.029787461635835056,
0.10568578553615961,0.009987615483511408,
0.1057356608478803,0.017076215054589325,
0.105785536159601,0.013923871797060165,
0.1058354114713217,0.02555790490160506,
0.10588528678304239,0.001591739476049606,
0.10593516209476309,-0.0021348633737260717,
0.1059850374064838,0.017067511665343916,
0.10603491271820449,0.022420357050731053,
0.10608478802992519,0.01809552662351789,
0.10613466334164588,0.0006660427317657352,
0.10618453865336658,0.0226692351164032,
0.10623441396508729,0.0010470442451734445,
0.10628428927680798,0.0040788310447879336,
0.10633416458852868,-0.002561407386170054,
0.10638403990024937,0.030810363227901177,
0.10643391521197007,0.02048858713369603,
0.10648379052369077,0.01975570014209547,
0.10653366583541148,0.02908184192468131,
0.10658354114713217,0.05225569235040222,
0.10663341645885287,-0.01588066654291128,
0.10668329177057356,-0.0016265873622631141,
0.10673316708229426,-0.00010258694695875967,
0.10678304239401497,-0.00393155865435706,
0.10683291770573566,-0.007642521425527193,
0.10688279301745636,0.0037167950669786346,
0.10693266832917706,-0.0103471519080268,
0.10698254364089775,0.012617878116684926,
0.10703241895261846,0.008058159124347979,
0.10708229426433916,0.014188735793552341,
0.10713216957605985,0.01428011079446667,
0.10718204488778055,0.015400498493405093,
0.10723192019950124,0.00044588349988761763,
0.10728179551122194,0.03755627725321226,
0.10733167082294265,0.00894826491718154,
0.10738154613466334,-0.022812161513145416,
0.10743142144638404,-0.010216498955760833,
0.10748129675810474,-0.021593588279515304,
0.10753117206982543,0.0044696630170117015,
0.10758104738154614,0.0020791955564177095,
0.10763092269326684,-0.003422462516805028,
0.10768079800498753,0.03346655750240165,
0.10773067331670823,0.011237320487177363,
0.10778054862842892,0.013595207630017283,
0.10783042394014962,-0.011559897733344737,
0.10788029925187033,-0.012877104912533008,
0.10793017456359102,0.0023674799170897006,
0.10798004987531172,0.004117371847848217,
0.10802992518703242,-0.026613930212019826,
0.10807980049875311,-0.0017636998128155168,
0.10812967581047382,0.0008639047628792281,
0.10817955112219452,-0.002860668592366921,
0.10822942643391521,-0.012118643350699437,
0.10827930174563591,-0.008293201672961447,
0.1083291770573566,-0.0031334091136385987,
0.1083790523690773,0.0006032411219031746,
0.10842892768079801,0.0080370549406205,
0.1084788029925187,0.014904211846312253,
0.1085286783042394,-0.005995344249530524,
0.1085785536159601,-0.00869158568724487,
0.10862842892768079,0.0044489278015073415,
0.1086783042394015,0.0067826180532284015,
0.1087281795511222,-0.00915462866476492,
0.1087780548628429,0.008955360554164009,
0.10882793017456359,0.011537030591202853,
0.10887780548628428,0.015965114846003506,
0.108927680798005,0.023014037285304975,
0.10897755610972569,-0.016904711709690576,
0.10902743142144639,-0.0039447272278208614,
0.10907730673316708,-0.004225742093600628,
0.10912718204488778,-0.00610463443868315,
0.10917705735660847,-0.014607954778196703,
0.10922693266832918,-0.02738471909590056,
0.10927680798004988,-0.003940115481066842,
0.10932668329177057,-0.017081343120455166,
0.10937655860349127,-0.00448843368879104,
0.10942643391521197,-0.017907887828862212,
0.10947630922693267,-0.022707525180420372,
0.10952618453865337,-0.0029100525731172947,
0.10957605985037407,-0.004368992838413304,
0.10962593516209476,0.001851768331314313,
0.10967581047381546,0.025749543168787213,
0.10972568578553615,-0.0030762788007919423,
0.10977556109725686,-0.0001528107375876461,
0.10982543640897756,-0.023782031296103016,
0.10987531172069825,-0.027107908290555566,
0.10992518703241895,0.01575639499013344,
0.10997506234413965,-0.022016012624784045,
0.11002493765586036,-0.023996720850646705,
0.11007481296758105,-0.009093718529634106,
0.11012468827930175,-0.010025684365135422,
0.11017456359102244,-0.022371806184327266,
0.11022443890274314,-0.013566023731098283,
0.11027431421446383,0.009296226513136836,
0.11032418952618454,-0.02138302566202182,
0.11037406483790524,-0.03034261213661537,
0.11042394014962593,0.004561321392329868,
0.11047381546134663,-0.0023288067122383006,
0.11052369077306733,-0.01915230237838612,
0.11057356608478804,-0.03370384306609697,
0.11062344139650873,-0.021263022967491704,
0.11067331670822943,-0.011032063074423604,
0.11072319201995012,0.007160301651412161,
0.11077306733167082,-0.02598222305457148,
0.11082294264339151,-0.011805408355375555,
0.11087281795511222,-0.000509933437544045,
0.11092269326683292,-0.04645095781385384,
0.11097256857855362,0.004684673446168264,
0.11102244389027431,-0.028644352961045158,
0.111072319201995,-0.006008419337509591,
0.11112219451371572,-0.007364123183538946,
0.11117206982543641,0.005133164995068979,
0.11122194513715711,-0.002938248975651113,
0.1112718204488778,-0.046923162014982436,
0.1113216957605985,-0.023092373385939984,
0.11137157107231921,-0.009299663000113121,
0.1114214463840399,-0.01434465503345196,
0.1114713216957606,-0.004298161641052079,
0.1115211970074813,0.0003406721613560589,
0.11157107231920199,-0.0024056813438313937,
0.11162094763092269,-0.014774331461459596,
0.1116708229426434,-0.03927812342347526,
0.11172069825436409,-0.018433252408352266,
0.11177057356608479,-0.005368576044217698,
0.11182044887780548,-0.0279789667070156,
0.11187032418952618,-0.0021563887750598726,
0.11192019950124689,0.0020020474694246587,
0.11197007481296758,-0.009714279566673636,
0.11201995012468828,-0.057562505095859945,
0.11206982543640898,-0.03076074801545005,
0.11211970074812967,0.01672470362661472,
0.11216957605985037,-0.01974001185133088,
0.11221945137157108,-0.04127301006110567,
0.11226932668329177,0.007053820069635378,
0.11231920199501247,-0.011233706133771879,
0.11236907730673316,0.005185788737956904,
0.11241895261845386,-0.007183356717482855,
0.11246882793017457,-0.004403919227406903,
0.11251870324189527,-0.005776900861142849,
0.11256857855361596,-0.0006946259790893434,
0.11261845386533666,0.023074402137399665,
0.11266832917705735,0.0035527274059918654,
0.11271820448877805,-0.034637996986583555,
0.11276807980049876,-0.004148769223836165,
0.11281795511221945,0.006362469912867484,
0.11286783042394015,0.007374434976722985,
0.11291770573566084,-0.016966795329625854,
0.11296758104738154,0.007009471437131657,
0.11301745635910225,0.0035591105101089714,
0.11306733167082295,0.02834302471216292,
0.11311720698254364,-0.021377882027308753,
0.11316708229426434,-0.017617419345413984,
0.11321695760598503,-0.01447221563002862,
0.11326683291770574,-0.01710327587210806,
0.11331670822942644,-0.022965294233975697,
0.11336658354114713,-0.050915712817642136,
0.11341645885286783,-0.01585226078442352,
0.11346633416458853,-0.0036432118345564356,
0.11351620947630922,-0.016429385547930712,
0.11356608478802993,0.020156487124880378,
0.11361596009975063,-0.008512501427355506,
0.11366583541147132,0.010817615345367446,
0.11371571072319202,-0.004457009714509206,
0.11376558603491271,0.004191444048799375,
0.11381546134663342,-0.003838287985947062,
0.11386533665835412,0.012686673749333376,
0.11391521197007481,-0.006820172385213043,
0.11396508728179551,-2.7646118691556677e-05,
0.1140149625935162,-0.0017807297294444762,
0.1140648379052369,-0.011402392152273295,
0.11411471321695761,-0.0008019292079994552,
0.1141645885286783,0.026844360269908375,
0.114214463840399,-0.010518422188782463,
0.1142643391521197,4.215509768830828e-05,
0.1143142144638404,0.012833148821786902,
0.1143640897755611,0.01129012752149703,
0.1144139650872818,-0.005414533859590405,
0.1144638403990025,-0.041114245225908376,
0.11451371571072319,0.002617412123530032,
0.11456359102244389,-0.03819159606312547,
0.11461346633416458,0.017386531239605253,
0.11466334164588529,-0.0018802144826193415,
0.11471321695760599,0.01081618406632117,
0.11476309226932668,-0.017464064194500306,
0.11481296758104738,-0.02697040694278476,
0.11486284289276807,0.0004811359886726209,
0.11491271820448878,-0.0036786646284741337,
0.11496259351620948,-0.0102892688442402,
0.11501246882793018,-0.001384953381732952,
0.11506234413965087,0.039120713683666444,
0.11511221945137157,0.01039380652260703,
0.11516209476309226,0.013887785935211639,
0.11521197007481297,0.011076314048319519,
0.11526184538653367,0.020883651088349314,
0.11531172069825436,-0.003882459959254959,
0.11536159600997506,-0.031573537407237916,
0.11541147132169575,-0.003299339503896113,
0.11546134663341646,0.011989293408362288,
0.11551122194513716,-0.014447776691642227,
0.11556109725685786,-0.002258191642444126,
0.11561097256857855,-0.009699153068311064,
0.11566084788029925,0.0234998840794077,
0.11571072319201996,0.012505238721883617,
0.11576059850374065,0.011332245691199613,
0.11581047381546135,0.011180651963044925,
0.11586034912718204,0.0015970602208441966,
0.11591022443890274,0.005419908302185668,
0.11596009975062344,-0.015018914214681763,
0.11600997506234415,-0.029734032697918,
0.11605985037406484,0.005618934820176856,
0.11610972568578554,0.008533996974561857,
0.11615960099750623,0.02212076697809648,
0.11620947630922693,0.027860646439881603,
0.11625935162094764,0.028150477732507735,
0.11630922693266833,-0.010058956850098033,
0.11635910224438903,-6.075197611236146e-05,
0.11640897755610972,0.01274091873802759,
0.11645885286783042,0.04382793360652911,
0.11650872817955112,0.028365012970562098,
0.11655860349127183,0.023269269925657372,
0.11660847880299252,0.000976830468414418,
0.11665835411471322,-0.006138534150764665,
0.11670822942643391,0.019259285658753927,
0.11675810473815461,-0.008767724617315252,
0.11680798004987532,0.004482419058116414,
0.11685785536159601,0.006654231234826447,
0.11690773067331671,0.03258660721531816,
0.1169576059850374,0.0036895040735276012,
0.1170074812967581,-0.027261807824200093,
0.1170573566084788,0.017210438084846756,
0.1171072319201995,-0.0005249462153138085,
0.1171571072319202,0.010916164925321478,
0.1172069825436409,0.00929207503263219,
0.1172568578553616,0.006802582937634918,
0.11730673316708229,0.02307822371869757,
0.117356608478803,-0.01145548770576692,
0.1174064837905237,0.004095964654246214,
0.11745635910224439,0.02242468525308553,
0.11750623441396509,0.0032649534950323546,
0.11755610972568578,-0.011344672627743914,
0.11760598503740648,0.02312597986195611,
0.11765586034912719,0.030253234426543228,
0.11770573566084788,0.013039920665774462,
0.11775561097256858,-0.01539100755601337,
0.11780548628428927,0.02491676966476212,
0.11785536159600997,-0.010266902424220741,
0.11790523690773068,0.01956616879161155,
0.11795511221945137,0.0019234841887493161,
0.11800498753117207,-0.0018624607875811963,
0.11805486284289277,0.00920451752533688,
0.11810473815461346,0.013380023791309066,
0.11815461346633417,0.006760890963925827,
0.11820448877805487,0.025547228292887622,
0.11825436408977556,0.010316368710166324,
0.11830423940149626,0.03199899812130508,
0.11835411471321695,0.021800383598312732,
0.11840399002493765,0.007403935016172031,
0.11845386533665836,0.005160488845242735,
0.11850374064837906,-0.006282844813799916,
0.11855361596009975,0.023068260646175492,
0.11860349127182045,0.013663696544982989,
0.11865336658354114,-0.01632765959680552,
0.11870324189526185,0.011489764532931702,
0.11875311720698255,0.006277576776864642,
0.11880299251870324,0.04369317118322315,
0.11885286783042394,-0.0052214954383215835,
0.11890274314214463,-0.0010407089278324233,
0.11895261845386533,0.03748559715493775,
0.11900249376558604,0.041441067350502715,
0.11905236907730674,0.010165450075604713,
0.11910224438902743,0.012106427052651862,
0.11915211970074813,0.031075651784064882,
0.11920199501246882,-0.012833142577980943,
0.11925187032418953,-0.005606548575780409,
0.11930174563591023,0.01833506923879986,
0.11935162094763092,0.04602579682378095,
0.11940149625935162,0.01646945370784115,
0.11945137157107232,0.02474396715581102,
0.11950124688279301,0.04045775394991724,
0.11955112219451372,0.05527162141769344,
0.11960099750623442,0.01522944237188066,
0.11965087281795511,0.023839769563191553,
0.11970074812967581,0.051629580895431855,
0.1197506234413965,0.001668427028994432,
0.11980049875311721,0.04011397836689022,
0.11985037406483791,0.009620510126863897,
0.1199002493765586,0.026623397105302204,
0.1199501246882793,0.02163413604826199,
0.12,0.01108635454633867,
0.1200498753117207,0.010889059022524235,
0.1200997506234414,0.029956772304212464,
0.1201496259351621,0.040914483132054175,
0.12019950124688279,0.024202012955470288,
0.12024937655860349,0.027362202585350246,
0.12029925187032418,0.035036312824479096,
0.1203491271820449,0.012048326346737996,
0.12039900249376559,0.03786757428068043,
0.12044887780548628,0.03920754860073271,
0.12049875311720698,0.06611261414247672,
0.12054862842892768,0.02155304267319274,
0.12059850374064839,0.02045530014683615,
0.12064837905236908,0.03898844116754106,
0.12069825436408978,0.039863415447104915,
0.12074812967581047,0.01966889005644276,
0.12079800498753117,0.021761518116119993,
0.12084788029925186,0.03603507119601414,
0.12089775561097257,0.01560885890638129,
0.12094763092269327,0.021964465374366512,
0.12099750623441397,0.02956153454972699,
0.12104738154613466,0.043247183858581374,
0.12109725685785536,0.01932485628371,
0.12114713216957607,0.0008390517807593117,
0.12119700748129676,-0.0001979278546965467,
0.12124688279301746,0.009731268054251691,
0.12129675810473815,0.00899157599125204,
0.12134663341645885,0.026431740448676924,
0.12139650872817954,0.010974677666470811,
0.12144638403990025,0.018318688704974932,
0.12149625935162095,0.01729600104894242,
0.12154613466334165,0.022342080014359805,
0.12159600997506234,0.04882479437287342,
0.12164588528678304,0.038949089268830624,
0.12169576059850375,0.02928957012250416,
0.12174563591022444,0.02215508967466663,
0.12179551122194514,0.02258994583603735,
0.12184538653366583,0.0340176778403605,
0.12189526184538653,0.037872152997069704,
0.12194513715710723,0.01549858031246555,
0.12199501246882793,0.029658370253780767,
0.12204488778054863,-0.0013697272740507763,
0.12209476309226933,0.032268774192936986,
0.12214463840399002,0.040508904794291624,
0.12219451371571072,0.02485433798173388,
0.12224438902743143,0.056277082160388424,
0.12229426433915212,0.015779526282036885,
0.12234413965087282,0.03222375946806082,
0.12239401496259351,0.02838396647774492,
0.12244389027431421,0.0273712022188028,
0.12249376558603492,0.027110321487692886,
0.12254364089775562,0.030376386759810588,
0.12259351620947631,0.04142903477377172,
0.122643391521197,0.04931074015606636,
0.1226932668329177,0.028541203458473628,
0.1227431421446384,0.0407301942667502,
0.12279301745635911,0.017894699782132397,
0.1228428927680798,0.03982656164754596,
0.1228927680798005,0.01681867948304125,
0.1229426433915212,0.0445150931382445,
0.12299251870324189,0.061216792105514645,
0.1230423940149626,0.026123273525769045,
0.1230922693266833,-0.005040873464052631,
0.12314214463840399,0.019514353333806828,
0.12319201995012469,0.046097192516707436,
0.12324189526184538,0.035794314683966294,
0.12329177057356608,0.031106474021989027,
0.12334164588528679,0.042372944014597486,
0.12339152119700748,0.0343754431452033,
0.12344139650872818,0.0452358503614205,
0.12349127182044888,0.04061830174690798,
0.12354114713216957,0.049505106502215415,
0.12359102244389028,0.03190991022295091,
0.12364089775561098,0.039950983503724245,
0.12369077306733167,0.02160510333260504,
0.12374064837905237,0.017025847833277732,
0.12379052369077306,0.05148090004333658,
0.12384039900249376,0.028949998100051735,
0.12389027431421447,0.03760363928658853,
0.12394014962593516,0.027206038412803057,
0.12399002493765586,0.016367760595491804,
0.12403990024937656,0.025141891855293915,
0.12408977556109725,0.04632485492332493,
0.12413965087281796,0.032917533129489446,
0.12418952618453866,-0.0012829378336079826,
0.12423940149625935,0.020957010392679224,
0.12428927680798005,0.05071294279692179,
0.12433915211970074,0.020560834382112696,
0.12438902743142144,-0.0034536962861494817,
0.12443890274314215,0.05173141303836289,
0.12448877805486284,0.03335031632873265,
0.12453865336658354,0.02183959319758899,
0.12458852867830424,0.017090541959504393,
0.12463840399002493,0.03866583025912912,
0.12468827930174564,0.014066322683688553,
0.12473815461346634,0.039182279956446714,
0.12478802992518703,0.02985061954286575,
0.12483790523690773,0.02514413257599102,
0.12488778054862842,0.02340985672760354,
0.12493765586034913,0.01835292404897849,
0.12498753117206983,0.036409497551311176,
0.12503740648379053,0.007489408511444293,
0.12508728179551123,-0.004117402982012658,
0.12513715710723192,0.02916733063109581,
0.12518703241895263,0.029155955427918295,
0.1252369077306733,0.026625111916927426,
0.12528678304239402,0.02526906287317659,
0.1253366583541147,0.014074269711720152,
0.1253865336658354,0.030421516739906118,
0.12543640897755612,0.017650535734641586,
0.1254862842892768,0.010749634862212257,
0.1255361596009975,0.013098267448174343,
0.1255860349127182,0.04780446925608013,
0.1256359102244389,-0.008813522956877588,
0.1256857855361596,0.024422262755641203,
0.1257356608478803,-0.008548742854857464,
0.125785536159601,0.01472510679099633,
0.12583541147132168,0.00955318075682466,
0.1258852867830424,-0.01551048004281317,
0.1259351620947631,0.021306297586418846,
0.12598503740648379,0.009474463196638493,
0.1260349127182045,-0.016610176038886544,
0.12608478802992518,0.02717298384235498,
0.1261346633416459,0.03580483111312657,
0.1261845386533666,0.036330686602917474,
0.12623441396508728,0.019061132940177868,
0.126284289276808,0.014064580156390484,
0.12633416458852867,0.03299201132859117,
0.12638403990024938,0.038000477465052265,
0.1264339152119701,0.029462499391578294,
0.12648379052369077,-0.0019705905660558336,
0.12653366583541148,0.014865486483560782,
0.12658354114713216,0.018130307973291678,
0.12663341645885287,-0.015914948244618726,
0.12668329177057355,0.017961021596897143,
0.12673316708229426,0.044706436122329184,
0.12678304239401497,0.0199012666376558,
0.12683291770573565,0.032093881018691324,
0.12688279301745636,0.012426738514546464,
0.12693266832917705,0.008275024509629235,
0.12698254364089775,0.01478267800317096,
0.12703241895261846,-0.003483381881258898,
0.12708229426433915,-0.006012019476577627,
0.12713216957605986,0.027130023848521964,
0.12718204488778054,0.02841177125433554,
0.12723192019950125,-0.007348367826990759,
0.12728179551122196,0.021730286558826417,
0.12733167082294264,0.005598545721906062,
0.12738154613466335,0.011693354475861374,
0.12743142144638403,0.013193501787766869,
0.12748129675810474,0.020900267413502822,
0.12753117206982545,0.006921439300652193,
0.12758104738154613,0.026529695383933828,
0.12763092269326684,0.009716075916496246,
0.12768079800498752,0.01413635909006999,
0.12773067331670823,-0.008025463505180054,
0.1277805486284289,0.03655448415297121,
0.12783042394014962,0.01092441399715913,
0.12788029925187033,0.014275834167128052,
0.12793017456359101,-0.02083661665479621,
0.12798004987531172,-0.009347523770157688,
0.1280299251870324,0.021269709163665846,
0.12807980049875312,0.006714951568729307,
0.12812967581047383,-0.026583224537017794,
0.1281795511221945,0.01741153448282513,
0.12822942643391522,-0.006603943901691809,
0.1282793017456359,0.02244013483533755,
0.1283291770573566,-0.00032753374853539195,
0.12837905236907732,0.0037823323348656515,
0.128428927680798,0.01811995978128377,
0.1284788029925187,-0.01330059728047875,
0.1285286783042394,-0.015002433406589665,
0.1285785536159601,-0.003326353359692146,
0.1286284289276808,0.011762018955862378,
0.1286783042394015,-0.02087291166082342,
0.1287281795511222,-0.02619186979763792,
0.12877805486284288,0.010925512204180438,
0.1288279301745636,-0.01073121579651226,
0.1288778054862843,-0.007823395408268171,
0.12892768079800498,-0.03004278692689296,
0.1289775561097257,-0.012623045447081675,
0.12902743142144638,-0.00279662745197658,
0.12907730673316709,0.011030811141070606,
0.12912718204488777,-0.014731964143291382,
0.12917705735660848,0.021461618508689786,
0.1292269326683292,-0.013899673305553575,
0.12927680798004987,-0.014106759688362728,
0.12932668329177058,0.018974247947494437,
0.12937655860349126,-0.0011365723419270732,
0.12942643391521197,-0.012807776002569196,
0.12947630922693268,-0.0070698489741068465,
0.12952618453865336,0.015341342008100318,
0.12957605985037407,0.016829961202006888,
0.12962593516209475,-0.01761965596801872,
0.12967581047381546,-0.006205249220716486,
0.12972568578553617,-0.0044136298105708835,
0.12977556109725685,-0.020753031085494603,
0.12982543640897756,-0.006984311077594379,
0.12987531172069824,-0.006254909454029751,
0.12992518703241895,0.010586608027756772,
0.12997506234413966,0.011417040274535295,
0.13002493765586035,-0.011806251770858723,
0.13007481296758105,-0.010247114691650624,
0.13012468827930174,0.0027609717255241244,
0.13017456359102245,-0.016142681793889134,
0.13022443890274316,0.001307498508896129,
0.13027431421446384,-0.00899371673635944,
0.13032418952618455,-0.022364842240260252,
0.13037406483790523,-0.022320849492369066,
0.13042394014962594,0.013597491694846846,
0.13047381546134662,-0.01059042031229734,
0.13052369077306733,0.016229918683607944,
0.13057356608478804,-0.016206783326483645,
0.13062344139650872,-0.004256528143848268,
0.13067331670822943,0.027147688822356807,
0.1307231920199501,-0.02471657834233537,
0.13077306733167082,-0.037431740392856745,
0.13082294264339153,0.01023018037349577,
0.13087281795511221,-0.021570333393231656,
0.13092269326683292,-0.009573668676228166,
0.1309725685785536,-0.01814204977152269,
0.13102244389027431,-0.005416342257658883,
0.13107231920199502,-0.02377761650637803,
0.1311221945137157,-0.01229472548334783,
0.13117206982543642,-0.0029196868070900488,
0.1312219451371571,-0.024858065915849836,
0.1312718204488778,-0.020296415133515856,
0.13132169576059852,-0.015062809362466536,
0.1313715710723192,-0.03133638577676876,
0.1314214463840399,-0.016289817962652414,
0.1314713216957606,-0.008211853136909603,
0.1315211970074813,-0.01602457112757829,
0.13157107231920198,-0.014134647809306691,
0.1316209476309227,-0.010390307619766389,
0.1316708229426434,-0.01995082764712698,
0.13172069825436408,0.00023326512457145544,
0.1317705735660848,0.011393901670917484,
0.13182044887780547,-0.01711966799638038,
0.13187032418952618,-0.002879272722268602,
0.1319201995012469,-0.013749878074492876,
0.13197007481296757,-0.004666775087736353,
0.13201995012468828,0.013349052502881254,
0.13206982543640897,-0.002491395118262219,
0.13211970074812968,-0.0367012498603755,
0.13216957605985039,-0.0032639408614233735,
0.13221945137157107,0.0084501316945477,
0.13226932668329178,-0.013330828422576201,
0.13231920199501246,0.00496845457761051,
0.13236907730673317,-0.02027211162353675,
0.13241895261845388,-0.03215291656404881,
0.13246882793017456,-0.0076968957421080135,
0.13251870324189527,-0.03610134758360389,
0.13256857855361595,-0.013285705501370638,
0.13261845386533666,0.009683357231191483,
0.13266832917705737,-0.03819106581759911,
0.13271820448877805,-0.028657646249050164,
0.13276807980049876,-0.024861495228289017,
0.13281795511221944,-0.010241891621567209,
0.13286783042394015,-0.014684213555582405,
0.13291770573566083,0.011886907946812478,
0.13296758104738154,0.005318079942505249,
0.13301745635910225,-0.001460413616571364,
0.13306733167082294,-0.0065927970358978134,
0.13311720698254365,-0.0027619568346836758,
0.13316708229426433,-0.021468726145155215,
0.13321695760598504,0.004445112661031441,
0.13326683291770575,-0.024963252812213847,
0.13331670822942643,0.004382993896632437,
0.13336658354114714,0.009783846612818354,
0.13341645885286782,-0.004701543008700555,
0.13346633416458853,-0.010359554663915426,
0.13351620947630924,-0.001559217991081007,
0.13356608478802992,-0.05032984764387151,
0.13361596009975063,-0.002712139532004887,
0.1336658354114713,-0.008781037381040456,
0.13371571072319202,-0.007670677285184281,
0.13376558603491273,0.003860349644208696,
0.1338154613466334,-0.007681450346835416,
0.13386533665835412,-0.023481236599122032,
0.1339152119700748,-0.008313373524400503,
0.13396508728179551,-0.004989228121283229,
0.1340149625935162,-0.004084851533568696,
0.1340648379052369,-0.003182489087757463,
0.13411471321695762,0.010180669508693074,
0.1341645885286783,-0.02149518676129457,
0.134214463840399,-0.0023602291400770404,
0.1342643391521197,0.014565826363526942,
0.1343142144638404,-0.030586041624349383,
0.1343640897755611,-0.0016523381313665363,
0.1344139650872818,-0.01290435723970284,
0.1344638403990025,-0.009457502980659362,
0.13451371571072318,-0.017238708196678762,
0.1345635910224439,-0.005976241384764266,
0.1346134663341646,0.02442277554023846,
0.13466334164588528,-0.02192234241896366,
0.134713216957606,-0.020256673731824208,
0.13476309226932667,-0.021995046162177144,
0.13481296758104738,0.023694815930180392,
0.1348628428927681,-0.008898971933198462,
0.13491271820448877,-0.002092928575218487,
0.13496259351620948,-0.007491663286244136,
0.13501246882793017,-0.015355011576394257,
0.13506234413965088,-0.004451913306472001,
0.13511221945137158,0.0362157153719084,
0.13516209476309227,0.020492475506933068,
0.13521197007481298,-0.012910734888496854,
0.13526184538653366,0.009871369025212434,
0.13531172069825437,-0.012038221074623325,
0.13536159600997505,-0.025931660174247476,
0.13541147132169576,0.016288055263199222,
0.13546134663341647,0.018680556258628616,
0.13551122194513715,0.01725588558193155,
0.13556109725685786,-0.005194841774655953,
0.13561097256857854,-0.0003584368299075287,
0.13566084788029925,0.01368170145173294,
0.13571072319201996,0.008601563624853745,
0.13576059850374064,-0.002879719398276883,
0.13581047381546135,-0.02096377204306621,
0.13586034912718203,0.005329566603615073,
0.13591022443890274,0.02010731501210272,
0.13596009975062345,-0.013739396818945815,
0.13600997506234414,0.014109527382765757,
0.13605985037406484,0.009806349604361641,
0.13610972568578553,0.016391840016435753,
0.13615960099750624,0.01852687049713613,
0.13620947630922695,-0.004660963281386987,
0.13625935162094763,-0.01818851780984369,
0.13630922693266834,-0.0016260565275173222,
0.13635910224438902,0.020025439179812112,
0.13640897755610973,-0.0011288818369035569,
0.1364588528678304,-0.0030960474668334497,
0.13650872817955112,-0.019691524741876226,
0.13655860349127183,0.034233197794640936,
0.1366084788029925,0.020644492899333882,
0.13665835411471322,0.020123004994640217,
0.1367082294264339,0.023406619638360607,
0.1367581047381546,0.01785785765477237,
0.13680798004987532,0.005859035824358651,
0.136857855361596,0.00738440966811376,
0.1369077306733167,0.003744397587598691,
0.1369576059850374,0.0499959785171176,
0.1370074812967581,0.019130487198868534,
0.13705735660847881,0.004151598103696932,
0.1371072319201995,0.01840763591392173,
0.1371571072319202,-0.0034215651357293927,
0.1372069825436409,0.0346249817376937,
0.1372568578553616,0.0024568081786711105,
0.1373067331670823,0.020204064536480673,
0.137356608478803,0.028991784272281697,
0.1374064837905237,0.019087306836696932,
0.13745635910224438,0.015045733354184517,
0.1375062344139651,0.014102789581163523,
0.1375561097256858,0.013405310990740773,
0.13760598503740648,0.005911638048606449,
0.1376558603491272,0.008128995416517296,
0.13770573566084787,0.03737310248911173,
0.13775561097256858,0.013857991232523199,
0.13780548628428926,0.004004609910209086,
0.13785536159600997,0.008351248502780706,
0.13790523690773068,0.03290400266699168,
0.13795511221945136,0.026833770021067054,
0.13800498753117207,0.025404261269257777,
0.13805486284289276,0.013434511014927335,
0.13810473815461347,0.026194051514604612,
0.13815461346633418,0.00823469126406526,
0.13820448877805486,0.014286528149445758,
0.13825436408977557,0.03301850226632694,
0.13830423940149625,0.031874291853905654,
0.13835411471321696,0.0043180960908414875,
0.13840399002493767,0.006498320017542776,
0.13845386533665835,0.02124400910765583,
0.13850374064837906,0.045785441008416555,
0.13855361596009974,-0.008562392781603062,
0.13860349127182045,0.024621291532428237,
0.13865336658354116,7.837700058847819e-05,
0.13870324189526184,0.011474242323611628,
0.13875311720698255,0.01579034648579443,
0.13880299251870323,0.015214033616289167,
0.13885286783042394,0.013776862025543398,
0.13890274314214462,0.02215124225441519,
0.13895261845386533,0.014270768176787019,
0.13900249376558604,0.0006162742579911701,
0.13905236907730673,0.0345017192480228,
0.13910224438902744,0.03434424365420735,
0.13915211970074812,0.03594314807385611,
0.13920199501246883,0.0004257153426164319,
0.13925187032418954,0.028258473200638276,
0.13930174563591022,0.03414906310549789,
0.13935162094763093,0.008772683105911193,
0.1394014962593516,0.02460624532462918,
0.13945137157107232,0.0229491229296448,
0.13950124688279303,0.052546347814526675,
0.1395511221945137,0.05399892978035238,
0.13960099750623442,0.0003799280949600449,
0.1396508728179551,0.06296429573715417,
0.1397007481296758,0.012033402683333227,
0.13975062344139652,0.040674517177492694,
0.1398004987531172,0.040720699294695226,
0.1398503740648379,0.01142282263732292,
0.1399002493765586,0.03394822707558915,
0.1399501246882793,0.025123279793174177,
0.14,0.03523430843996368,
0.1400498753117207,0.030558467889520987,
0.1400997506234414,0.04521841012723693,
0.1401496259351621,0.028575112940017338,
0.1401995012468828,0.025092637109122858,
0.14024937655860348,0.04421412639850869,
0.1402992518703242,0.03663726453944331,
0.1403491271820449,0.03906239761842123,
0.14039900249376558,0.01826594084458065,
0.1404488778054863,0.01270098019720355,
0.14049875311720697,0.020004872772218817,
0.14054862842892768,0.01934473547968505,
0.1405985037406484,0.04058193239555211,
0.14064837905236907,0.0435560954899135,
0.14069825436408978,0.026712245646747082,
0.14074812967581046,0.05062129513758652,
0.14079800498753117,0.04979827708356861,
0.14084788029925188,0.03303133567174148,
0.14089775561097256,0.017156454630290446,
0.14094763092269327,0.0532152989922812,
0.14099750623441396,0.02876452218712883,
0.14104738154613466,0.031662686290341815,
0.14109725685785537,0.02476183023128685,
0.14114713216957606,0.01658999922417384,
0.14119700748129677,0.00798344341626778,
0.14124688279301745,0.03957745491370991,
0.14129675810473816,0.01840000724097369,
0.14134663341645887,0.07610576681484363,
0.14139650872817955,0.013978638036986422,
