time,amplitude,label
0.0,0.030316579298373045,
4.987531172069826e-05,0.0248551076614651,
9.975062344139652e-05,0.0436802640033994,
0.00014962593516209475,0.029761858085647824,
0.00019950124688279303,0.02794166297568694,
0.00024937655860349125,0.032636652981512804,
0.0002992518703241895,-0.0062474319644838,
0.00034912718204488776,0.0391998281566362,
0.00039900249376558606,-0.0006755836466671491,
0.0004488778054862843,0.018083513469112827,
0.0004987531172069825,0.021038274616697314,
0.0005486284289276808,0.03566445567320106,
0.000598503740648379,0.027065911527059547,
0.0006483790523690773,0.014817744092340577,
0.0006982543640897755,0.020621378873421265,
0.0007481296758104738,0.009402906763168422,
0.0007980049875311721,0.0027158201308042206,
0.0008478802992518703,0.00027292485881742594,
0.0008977556109725686,0.021530818277209318,
0.0009476309226932668,0.019954948366568654,
0.000997506234413965,0.005658916226469032,
0.0010473815461346633,-0.01054974515651991,
0.0010972568578553616,0.01439894576412068,
0.00114713216957606,-0.016422178228864364,
0.001197007481296758,0.010749377575064155,
0.0012468827930174563,0.02346397813346288,
0.0012967581047381546,0.0015615863709597866,
0.001346633416458853,0.012108306180007201,
0.001396508728179551,0.005175910109076927,
0.0014463840399002493,0.02748312518090485,
0.0014962593516209476,0.014556415073427743,
0.001546134663341646,0.008786492928622835,
0.0015960099750623442,0.0012570087368412326,
0.0016458852867830423,0.0055747323916802375,
0.0016957605985037406,-0.002186189746596929,
0.001745635910224439,0.013379163301286974,
0.0017955112219451373,-0.005349988682777312,
0.0018453865336658353,-0.0009092567722091566,
0.0018952618453865336,0.007999167160959492,
0.001945137157107232,0.016950406246085792,
0.00199501246882793,0.019619932749866995,
0.0020448877805486283,0.006591849600204681,
0.0020947630922693266,0.002658460846638608,
0.002144638403990025,-0.017477396924808805,
0.0021945137157107233,0.0033894660618534944,
0.0022443890274314216,0.015569267959330708,
0.00229426433915212,-0.002035006146725313,
0.0023441396508728177,0.004862311674017858,
0.002394014962593516,-0.0032030477755116003,
0.0024438902743142144,-0.0028214723570489106,
0.0024937655860349127,-0.0046414024212768894,
0.002543640897755611,0.023649441109812666,
0.0025935162094763093,-0.00017383104741631496,
0.0026433915211970076,0.000626028962346975,
0.002693266832917706,0.005445548186447326,
0.002743142144638404,0.0041621210992300005,
0.002793017456359102,-0.003029353613675982,
0.0028428927680798004,-0.012776536529431849,
0.0028927680798004987,0.006895998315667337,
0.002942643391521197,0.022631848968230832,
0.0029925187032418953,-0.022728718658247694,
0.0030423940149625936,-0.018953597894863818,
0.003092269326683292,0.00010496544597788792,
0.00314214463840399,-0.012603648437961924,
0.0031920199501246885,-0.013021955029558267,
0.0032418952618453864,0.006003676952981209,
0.0032917705735660847,0.007918752693566239,
0.003341645885286783,-0.016646114423692245,
0.0033915211970074813,-0.01593636374301098,
0.0034413965087281796,0.01409096320341182,
0.003491271820448878,-0.022093295831963292,
0.003541147132169576,-0.028390508541714387,
0.0035910224438902745,-0.001962725817195451,
0.0036408977556109724,-0.01660791240169204,
0.0036907730673316707,-0.01095554496551759,
0.003740648379052369,0.009440070966064282,
0.0037905236907730673,-0.021154440414120016,
0.0038403990024937656,-0.021490440433731564,
0.003890274314214464,-0.006666679748134563,
0.003940149625935162,-0.02749515235610865,
0.00399002493765586,0.026621887702912118,
0.004039900249376558,0.009607862497834473,
0.004089775561097257,-0.011192420553222617,
0.004139650872817955,0.01508315881447349,
0.004189526184538653,0.01571484635614552,
0.004239401496259352,-0.04012820110897076,
0.00428927680798005,-0.003631225271843376,
0.004339152119700748,0.01531184343835562,
0.0043890274314214465,-0.000947459494020567,
0.004438902743142145,-0.00847318571979104,
0.004488778054862843,-0.0065993491258762105,
0.004538653366583541,0.009979186003246932,
0.00458852867830424,-0.020293471589753188,
0.004638403990024938,-0.010231333193147556,
0.0046882793017456355,0.005248163162933677,
0.004738154613466334,-0.010575900026972333,
0.004788029925187032,-0.0017659537571411057,
0.00483790523690773,-0.06402119790409166,
0.004887780548628429,0.0043883120876375,
0.004937655860349127,0.004601002741688115,
0.004987531172069825,-0.01828489846786943,
0.005037406483790524,-0.014254501325316075,
0.005087281795511222,-0.004818380249945867,
0.00513715710723192,-0.0027157454833904825,
0.0051870324189526185,-0.004033108171431626,
0.005236907730673317,-0.0049040740938172695,
0.005286783042394015,-0.010049847050297423,
0.0053366583541147134,0.011284265726401474,
0.005386533665835412,-0.026978257039525298,
0.00543640897755611,-0.003135726823622644,
0.005486284289276808,-0.03193500181907897,
0.005536159600997507,-0.04903551600423432,
0.005586034912718204,-0.02196397467793434,
0.005635910224438902,0.011454270351071749,
0.005685785536159601,-0.019959789307330743,
0.005735660847880299,-0.0018158792041345403,
0.005785536159600997,-0.03255287410446997,
0.005835411471321696,-0.00128306241848972,
0.005885286783042394,-0.025980472721391708,
0.005935162094763092,-0.02896294240335532,
0.0059850374064837905,-0.02128026349024165,
0.006034912718204489,-0.005693497281567482,
0.006084788029925187,-0.007700391471024597,
0.0061346633416458855,-0.01852264219550104,
0.006184538653366584,-0.012302775182625361,
0.006234413965087282,-0.020328271585621453,
0.00628428927680798,-0.01397004082281576,
0.006334164588528679,-0.013603981221268711,
0.006384039900249377,0.00495551090424973,
0.006433915211970074,-0.00984219493540956,
0.006483790523690773,-0.0027199752318916148,
0.006533665835411471,0.005950286387438289,
0.006583541147132169,-0.009383776447258744,
0.006633416458852868,-0.009336435064983908,
0.006683291770573566,-0.00565093637121066,
0.006733167082294264,-0.012501403130397656,
0.0067830423940149626,-0.025766835808657167,
0.006832917705735661,-0.019441259702592636,
0.006882793017456359,-0.03888342132886945,
0.0069326683291770575,0.00824007404658314,
0.006982543640897756,-0.016778924729629593,
0.007032418952618454,-0.0015188244609259383,
0.007082294264339152,-0.03602925406090392,
0.007132169576059851,-0.013350681293815971,
0.007182044887780549,-0.038658430467644715,
0.007231920199501247,-0.031699140560112415,
0.007281795511221945,-0.0186286454400779,
0.007331670822942643,-0.014474457098569805,
0.007381546134663341,-0.04526107551896864,
0.00743142144638404,-0.023599906000901727,
0.007481296758104738,-0.016969134566068172,
0.007531172069825436,-0.036173443725249846,
0.007581047381546135,-0.016896293321968438,
0.007630922693266833,-0.016906226652190028,
0.007680798004987531,-0.01149753442076662,
0.0077306733167082295,-0.021594449750859706,
0.007780548628428928,0.00463134736339681,
0.007830423940149626,-0.022414093161620914,
0.007880299251870324,-0.023693493876333613,
0.007930174563591023,-0.026475900461382904,
0.00798004987531172,-0.031190101922197726,
0.00802992518703242,-0.025010439846411263,
0.008079800498753117,-0.03202621198793543,
0.008129675810473816,-0.025559548563143672,
0.008179551122194513,-0.017427506881537342,
0.008229426433915213,0.0012192692369829283,
0.00827930174563591,-0.03986330688850745,
0.00832917705735661,-0.021760670626782535,
0.008379052369077307,-0.019847875343623183,
0.008428927680798006,-0.028533669155239392,
0.008478802992518703,-0.015049379626705894,
0.0085286783042394,-0.031699069780572596,
0.0085785536159601,-0.025386209803569638,
0.008628428927680797,-0.041055966738661784,
0.008678304239401496,-0.027161158108969366,
0.008728179551122194,-0.021830165127536362,
0.008778054862842893,-0.013064581937411278,
0.00882793017456359,-0.02280230658826823,
0.00887780548628429,0.01079721930598243,
0.008927680798004987,0.01712308286922392,
0.008977556109725686,-0.005253479675350826,
0.009027431421446384,-0.034283994978753535,
0.009077306733167083,-0.01756407703446829,
0.00912718204488778,0.0015949829119263383,
0.00917705735660848,-0.005117926200963314,
0.009226932668329177,-0.024610765586895796,
0.009276807980049876,0.006273872472684409,
0.009326683291770574,-0.02469846657432409,
0.009376558603491271,-1.566108049106882e-05,
0.00942643391521197,-0.0331516152708366,
0.009476309226932668,-0.023644553589982506,
0.009526184538653367,0.0022125391627112745,
0.009576059850374064,-0.019589260505270465,
0.009625935162094763,-0.030117073994476197,
0.00967581047381546,-0.010523996084839287,
0.00972568578553616,-0.019861041475960774,
0.009775561097256857,-0.0030610272428031153,
0.009825436408977557,-0.031170015847177827,
0.009875311720698254,-0.03826155408689606,
0.009925187032418953,-0.01855763542409882,
0.00997506234413965,-0.005700655125310936,
0.01002493765586035,-0.022344205419453502,
0.010074812967581047,-0.02656412071604363,
0.010124688279301746,-0.03188159408969407,
0.010174563591022444,-0.019764906757343305,
0.010224438902743141,-0.012145408922421877,
0.01027431421446384,-0.014541163092055415,
0.010324189526184538,-0.010420089828644319,
0.010374064837905237,0.004171669787051736,
0.010423940149625935,-0.0019537420665234582,
0.010473815461346634,-0.027506738514742536,
0.010523690773067331,-0.0074702621529450595,
0.01057356608478803,-0.012280196417807004,
0.010623441396508728,0.01999338027243463,
0.010673316708229427,0.012445996423062444,
0.010723192019950124,-0.03324277029879601,
0.010773067331670824,-0.010152001088907158,
0.010822942643391521,-0.004564185673715945,
0.01087281795511222,0.008211295515627373,
0.010922693266832918,-0.012481734239888076,
0.010972568578553617,-0.0018100696294718246,
0.011022443890274314,-0.00478930077374145,
0.011072319201995013,-0.02386171147137351,
0.01112219451371571,0.02211199929451991,
0.011172069825436408,0.006563070314912293,
0.011221945137157107,0.0070215824379553145,
0.011271820448877805,-0.005463949579905494,
0.011321695760598504,0.00919319184996999,
0.011371571072319201,-0.00953239628802822,
0.0114214463840399,-0.0015697192410635465,
0.011471321695760598,0.003938762707049075,
0.011521197007481297,-0.0017165321079281367,
0.011571072319201995,-0.0033595287666127933,
0.011620947630922694,-0.0010919351820198684,
0.011670822942643391,-0.01822981846867311,
0.01172069825436409,-0.007020213013770169,
0.011770573566084788,-0.023946236219186838,
0.011820448877805487,-0.005575890238716368,
0.011870324189526184,-0.01750214101175011,
0.011920199501246884,-0.007229959781718763,
0.011970074812967581,0.014478109674799403,
0.012019950124688279,0.0051888101968013065,
0.012069825436408978,0.0004345599412578171,
0.012119700748129675,-0.0008037360164072391,
0.012169576059850374,-0.0027256159004246014,
0.012219451371571072,-0.0038828570112606517,
0.012269326683291771,-0.007230201314714588,
0.012319201995012468,0.038248655709261975,
0.012369077306733168,-0.0005032979567559295,
0.012418952618453865,0.00957950573980215,
0.012468827930174564,0.002413669584142713,
0.012518703241895262,-0.013306644759444208,
0.01256857855361596,0.02317548288876678,
0.012618453865336658,-0.021602431637677846,
0.012668329177057357,0.0047342397601907804,
0.012718204488778055,0.005525433354103424,
0.012768079800498754,-0.015152505410776692,
0.012817955112219451,0.008783669959364297,
0.012867830423940149,0.012973706507036555,
0.012917705735660848,0.006115299493802788,
0.012967581047381545,-0.002712453014344209,
0.013017456359102245,-0.002647753087899155,
0.013067331670822942,0.010949088310172824,
0.013117206982543641,0.024823490283475115,
0.013167082294264339,0.0383284520173289,
0.013216957605985038,0.03909226100894295,
0.013266832917705735,0.0064919860588708665,
0.013316708229426434,0.02471730768306881,
0.013366583541147132,0.010073630729930259,
0.013416458852867831,0.018815745611153706,
0.013466334164588529,0.007110872515508499,
0.013516209476309228,-0.011733170919876655,
0.013566084788029925,0.007125383745457606,
0.013615960099750624,0.0032624233654621167,
0.013665835411471322,0.004707041518274488,
0.01371571072319202,0.022874582415128634,
0.013765586034912718,0.02724585507395351,
0.013815461346633416,0.02257217336951681,
0.013865336658354115,0.01115045047203285,
0.013915211970074812,0.0019472124058983343,
0.013965087281795512,0.020676823755319082,
0.014014962593516209,-0.0027399882868229183,
0.014064837905236908,-0.015708634297988314,
0.014114713216957606,0.007397792534036983,
0.014164588528678305,0.02766715826246737,
0.014214463840399002,-0.0018963451128292431,
0.014264339152119701,0.004467969750163942,
0.014314214463840399,0.008305280922201948,
0.014364089775561098,0.030639606209424262,
0.014413965087281795,-0.009164678109808387,
0.014463840399002495,0.030735022102433875,
0.014513715710723192,-0.006482117825412527,
0.01456359102244389,-0.006790082300203977,
0.014613466334164589,0.01375126254644259,
0.014663341645885286,0.0197519968414602,
0.014713216957605985,0.0025477713747960005,
0.014763092269326683,-0.001636265376422046,
0.014812967581047382,0.011178888297981526,
0.01486284289276808,0.012721359552699598,
0.014912718204488778,0.02380974594048977,
0.014962593516209476,0.016564016254172732,
0.015012468827930175,0.0038268296977980697,
0.015062344139650873,0.026598212602545256,
0.015112219451371572,0.04628118607545422,
0.01516209476309227,0.007040120218520791,
0.015211970074812968,0.019940485930124586,
0.015261845386533666,0.03178208334927452,
0.015311720698254365,-0.017879963009248392,
0.015361596009975062,-7.820415849427859e-05,
0.01541147132169576,0.04072500189897105,
0.015461346633416459,0.0344529126105468,
0.015511221945137156,0.00588006326007651,
0.015561097256857856,0.028881589588889756,
0.015610972568578553,0.000861218366239546,
0.015660847880299252,0.03383876245568712,
0.01571072319201995,-0.004770630758551071,
0.015760598503740647,0.0005324775171881742,
0.015810473815461346,0.005244847630332623,
0.015860349127182045,0.01840107907179459,
0.015910224438902745,0.026040069966593277,
0.01596009975062344,0.0037608097713667486,
0.01600997506234414,0.02137504801504955,
0.01605985037406484,0.008901162835642528,
0.016109725685785538,0.0477792108246012,
0.016159600997506234,0.03235921140850433,
0.016209476309226933,0.00752735045278651,
0.016259351620947632,0.01511904778759093,
0.016309226932668328,0.010821603288579546,
0.016359102244389027,-0.007902278122645778,
0.016408977556109726,0.02255142867241322,
0.016458852867830425,0.002256428176164685,
0.01650872817955112,0.006177742728732427,
0.01655860349127182,0.00782928178146848,
0.01660847880299252,0.039988989681621914,
0.01665835411471322,0.04390939994568241,
0.016708229426433914,0.010470559915195564,
0.016758104738154613,-0.0006115255813413066,
0.016807980049875312,0.03535903452229115,
0.01685785536159601,0.00017859353160882413,
0.016907730673316707,-0.00041539286760307326,
0.016957605985037406,0.030419873818515884,
0.017007481296758106,0.04280503983697583,
0.0170573566084788,0.018563819664497827,
0.0171072319201995,0.00917939293580605,
0.0171571072319202,0.004811746384523162,
0.0172069825436409,-0.014109012165814918,
0.017256857855361595,0.038550111928846345,
0.017306733167082294,0.0032217697033722764,
0.017356608478802993,0.01967382568956181,
0.017406483790523692,0.010469447521648752,
0.017456359102244388,0.011876671401518213,
0.017506234413965087,-0.0012128142532916095,
0.017556109725685786,0.012594779596627718,
0.017605985037406485,0.043519122862372014,
0.01765586034912718,0.024475179014649653,
0.01770573566084788,0.03365992010745457,
0.01775561097256858,0.028937945215454598,
0.01780548628428928,0.04380408037834538,
0.017855361596009974,0.02699098727489764,
0.017905236907730673,0.024132040675257763,
0.017955112219451373,0.012820484006743387,
0.018004987531172068,-0.005397947568106985,
0.018054862842892767,0.03103504751598993,
0.018104738154613467,0.017506412691182846,
0.018154613466334166,0.03451808558920938,
0.01820448877805486,0.03458678738937309,
0.01825436408977556,0.012157102543374309,
0.01830423940149626,0.018457798462268887,
0.01835411471321696,0.058040150055041435,
0.018403990024937655,0.011681033756276119,
0.018453865336658354,0.034275062050323386,
0.018503740648379053,0.014781794371102847,
0.018553615960099752,0.0005397616207140701,
0.018603491271820448,0.009833464924650261,
0.018653366583541147,0.019634293892716228,
0.018703241895261846,0.02451730346861882,
0.018753117206982542,0.02484938804645772,
0.01880299251870324,0.043463626249126204,
0.01885286783042394,0.005860338577266203,
0.01890274314214464,0.0059637325341481,
0.018952618453865335,0.015971168134267015,
0.019002493765586034,0.004248048257698159,
0.019052369077306733,0.03119629922647713,
0.019102244389027433,-0.005402022006706152,
0.01915211970074813,0.006367302009081305,
0.019201995012468828,0.03549327751236714,
0.019251870324189527,-0.00025036856250187575,
0.019301745635910226,-0.0061126644557070835,
0.01935162094763092,0.013760678794775208,
0.01940149625935162,0.022467620657583124,
0.01945137157107232,0.018742242120324378,
0.01950124688279302,0.004167483148790516,
0.019551122194513715,0.029553758273093707,
0.019600997506234414,0.029341685937948996,
0.019650872817955113,-0.01366651734307369,
0.01970074812967581,0.013938976033357097,
0.019750623441396508,0.012503232563873382,
0.019800498753117207,0.024634204167447903,
0.019850374064837906,0.012050480831202939,
0.019900249376558602,0.020789252159313,
0.0199501246882793,0.02024687097633502,
0.02,0.03981648514016238,
0.0200498753117207,0.013882473267367683,
0.020099750623441395,0.01228468698559896,
0.020149625935162094,0.010182364632853103,
0.020199501246882794,0.017223126628252,
0.020249376558603493,0.005963768139238707,
0.02029925187032419,0.03236226967024819,
0.020349127182044888,0.008766481682191985,
0.020399002493765587,0.01839095203513795,
0.020448877805486283,0.02219286117267965,
0.02049875311720698,0.052431393943229834,
0.02054862842892768,0.014829597823657354,
0.02059850374064838,0.01754982270815892,
0.020648379052369076,0.00849818644603021,
0.020698254364089775,-0.00710587905460737,
0.020748129675810474,0.04075554209559891,
0.020798004987531173,0.01792406451968853,
0.02084788029925187,0.001528451127445065,
0.020897755610972568,0.020133802711263173,
0.020947630922693267,0.023615028568340593,
0.020997506234413967,0.017285890039735383,
0.021047381546134662,0.004435905524692429,
0.02109725685785536,0.005300627521552959,
0.02114713216957606,0.029816446744606692,
0.02119700748129676,0.054953317549805085,
0.021246882793017455,0.0015180979282781518,
0.021296758104738155,0.0073591411929811255,
0.021346633416458854,0.005132547279509518,
0.02139650872817955,0.028847431149756825,
0.02144638403990025,0.015599258306653811,
0.021496259351620948,0.02201003125425647,
0.021546134663341647,0.009400409957867268,
0.021596009975062343,0.011714638329320334,
0.021645885286783042,-0.003190872468029236,
0.02169576059850374,0.022540978228632144,
0.02174563591022444,0.03592449699238949,
0.021795511221945136,0.00665496579539571,
0.021845386533665835,0.022409435913397863,
0.021895261845386534,0.008765820028662505,
0.021945137157107233,0.043495487639473654,
0.02199501246882793,-0.025959202809040707,
0.02204488778054863,0.007319155582024882,
0.022094763092269327,0.00478652929772421,
0.022144638403990027,-0.017559310652344153,
0.022194513715710722,-0.0030759654090129146,
0.02224438902743142,-0.016639396184603854,
0.02229426433915212,0.003669903704934102,
0.022344139650872816,0.020672618734597022,
0.022394014962593516,0.009859397285129082,
0.022443890274314215,0.02812223043209719,
0.022493765586034914,0.009682753416234055,
0.02254364089775561,0.012821336660337693,
0.02259351620947631,0.024497249916641563,
0.022643391521197008,0.02146673433159664,
0.022693266832917707,0.013663780720390584,
0.022743142144638403,0.018799532150307,
0.022793017456359102,-0.00876556211669915,
0.0228428927680798,0.009429682301062479,
0.0228927680798005,0.004546614618003018,
0.022942643391521196,0.011799799885189456,
0.022992518703241895,0.006180392118378555,
0.023042394014962594,-0.016880639238918867,
0.02309226932668329,0.013177969043271084,
0.02314214463840399,-0.021838561758940854,
0.02319201995012469,-0.014048386669001375,
0.023241895261845388,0.006834888949530772,
0.023291770573566083,-0.01807154164615786,
0.023341645885286783,0.006506319478403186,
0.02339152119700748,-0.010527729820444665,
0.02344139650872818,0.007895917164238021,
0.023491271820448877,0.0034890835835004828,
0.023541147132169576,-0.027707482079921696,
0.023591022443890275,-0.01904777404807137,
0.023640897755610974,0.005826913349602272,
0.02369077306733167,-0.0004280237451850465,
0.02374064837905237,-0.02790431612911813,
0.023790523690773068,-0.016759242388862127,
0.023840399002493767,-0.016352830470352582,
0.023890274314214463,0.022863839695654805,
0.023940149625935162,0.023140666183872532,
0.02399002493765586,-0.013632498870382738,
0.024039900249376557,0.009007046419112891,
0.024089775561097256,0.0013289404760131263,
0.024139650872817955,-0.0003371171139020801,
0.024189526184538655,-0.004042228210616018,
0.02423940149625935,0.018394546900266887,
0.02428927680798005,-0.032372721261620774,
0.02433915211970075,-0.01665188239306241,
0.024389027431421448,-0.015904758855376254,
0.024438902743142144,-0.013594730755829964,
0.024488778054862843,0.00017924082461236168,
0.024538653366583542,0.028624098847068666,
0.02458852867830424,-0.012814152950733574,
0.024638403990024937,-0.032183492980303444,
0.024688279301745636,0.0016358932493878483,
0.024738154613466335,-0.047642557304915345,
0.02478802992518703,-0.0041493165167935785,
0.02483790523690773,-0.0134688724573483,
0.02488778054862843,0.004731327539970232,
0.02493765586034913,-0.03583322351174014,
0.024987531172069824,-0.015109901427881867,
0.025037406483790523,-0.022914045931915338,
0.025087281795511222,0.015465346894319344,
0.02513715710723192,-0.0058581892204896705,
0.025187032418952617,-0.019968612178924372,
0.025236907730673316,-0.0018040001210233355,
0.025286783042394016,-0.017722538422964743,
0.025336658354114715,-0.001200677810878556,
0.02538653366583541,-0.012257537307867421,
0.02543640897755611,-0.02994116355102823,
0.02548628428927681,-0.020484494659569117,
0.025536159600997508,-0.038030678693665006,
0.025586034912718204,-0.016433148353547086,
0.025635910224438903,-0.012145788976850884,
0.025685785536159602,-0.007238120622047701,
0.025735660847880298,0.013540742124416508,
0.025785536159600997,0.011299923570891423,
0.025835411471321696,-0.03311038658844683,
0.025885286783042395,-0.033543932926809704,
0.02593516209476309,-0.03626376511296357,
0.02598503740648379,-0.03138904598900504,
0.02603491271820449,-0.04075221689468954,
0.02608478802992519,0.02033975407153778,
0.026134663341645884,-0.004456269138938157,
0.026184538653366583,-0.010136264920458354,
0.026234413965087282,-0.00732474800078072,
0.02628428927680798,-0.006275405002878652,
0.026334164588528677,-0.015826550311943712,
0.026384039900249377,-0.03751017196752647,
0.026433915211970076,-0.0276581076773343,
0.02648379052369077,0.004417266619947395,
0.02653366583541147,-0.023760783094764232,
0.02658354114713217,-0.005119621760487518,
0.02663341645885287,-0.007086021080245525,
0.026683291770573565,-0.0009556840942064708,
0.026733167082294264,-0.008073759850348264,
0.026783042394014963,-0.021420582432313925,
0.026832917705735662,-0.03288078213265362,
0.026882793017456358,-0.0021541623521661186,
0.026932668329177057,-0.024179350072111527,
0.026982543640897756,0.0029399912489249842,
0.027032418952618455,-0.0004503423562232968,
0.02708229426433915,-0.010982778093585038,
0.02713216957605985,-0.029628281732928682,
0.02718204488778055,0.0027814492275810287,
0.02723192019950125,-0.01646214757467322,
0.027281795511221944,-0.039065499806427734,
0.027331670822942643,-0.018098609671079992,
0.027381546134663343,-0.025722515663397845,
0.02743142144638404,-0.035702869891198516,
0.027481296758104738,-0.01446507381006213,
0.027531172069825437,-0.020121737825091492,
0.027581047381546136,-0.012654576965584825,
0.02763092269326683,-0.0250255192315975,
0.02768079800498753,-0.031164256033342677,
0.02773067331670823,0.00805818119289816,
0.02778054862842893,-0.023634969959359958,
0.027830423940149625,-0.041487766271513654,
0.027880299251870324,-0.014929602071190113,
0.027930174563591023,0.007986407653245379,
0.027980049875311722,-0.03408888568732221,
0.028029925187032418,0.0022406260133188832,
0.028079800498753117,-0.03864691596802747,
0.028129675810473816,-0.025517168140204476,
0.028179551122194512,-0.021830727039283918,
0.02822942643391521,-0.029442584865525603,
0.02827930174563591,0.005776378456714814,
0.02832917705735661,-0.028871836956161773,
0.028379052369077305,-0.0309872739145096,
0.028428927680798004,-0.0005340795676643112,
0.028478802992518704,0.004232357298572544,
0.028528678304239403,-0.02383275972579939,
0.0285785536159601,-0.016200462006439157,
0.028628428927680798,-0.03551762687561037,
0.028678304239401497,-0.027094385102020273,
0.028728179551122196,-0.022462289538789863,
0.02877805486284289,0.014756238622707682,
0.02882793017456359,-0.02256603299172805,
0.02887780548628429,-0.008823501136030622,
0.02892768079800499,0.01240639216563082,
0.028977556109725685,-0.02205444139643995,
0.029027431421446384,-0.03166778428164693,
0.029077306733167083,-0.007729373817410583,
0.02912718204488778,-0.007747448592778651,
0.029177057356608478,-0.00323901906384547,
0.029226932668329177,-0.03452565599694363,
0.029276807980049877,-0.0008217643878803034,
0.029326683291770572,-0.03037345084539339,
0.02937655860349127,-0.02736976649946364,
0.02942643391521197,-0.012214770059906706,
0.02947630922693267,-0.02592120553984435,
0.029526184538653365,-0.007809096030207161,
0.029576059850374065,-0.018661654302236052,
0.029625935162094764,-0.005866526494119105,
0.029675810473815463,-0.019559774795021474,
0.02972568578553616,-0.01932444942003153,
0.029775561097256858,-0.012426915198313368,
0.029825436408977557,-0.016534234136703584,
0.029875311720698253,-0.029477229608891504,
0.029925187032418952,-0.011966175101568227,
0.02997506234413965,-0.023298644247048507,
0.03002493765586035,-0.019043440390411077,
0.030074812967581046,-0.034077300280984976,
0.030124688279301745,-0.029958944420203373,
0.030174563591022444,-0.018964603869463463,
0.030224438902743143,-0.029083937791764637,
0.03027431421446384,-0.03902721618710818,
0.03032418952618454,-0.011938387588619027,
0.030374064837905237,0.010696800262823809,
0.030423940149625937,-0.03793720945748505,
0.030473815461346632,-0.030391051370105095,
0.03052369077306733,-0.014555632890817629,
0.03057356608478803,-0.024553890037818275,
0.03062344139650873,-0.01572685116299584,
0.030673316708229426,0.0011116938477191349,
0.030723192019950125,0.006471521078677038,
0.030773067331670824,-0.026456959012865613,
0.03082294264339152,-0.027940125797481098,
0.03087281795511222,-0.03770384867144319,
0.030922693266832918,-0.011084837554123619,
0.030972568578553617,-0.02415972455970323,
0.031022443890274313,-0.012368471572875687,
0.031072319201995012,0.004332994963252219,
0.03112219451371571,0.00813421130942214,
0.03117206982543641,-0.026014323662160825,
0.031221945137157106,-0.01034188240199216,
0.03127182044887781,-0.013803946484283361,
0.031321695760598504,-0.015051168388780992,
0.0313715710723192,-0.010183005231329156,
0.0314214463840399,-0.012754377052506056,
0.0314713216957606,-0.02924412166369593,
0.031521197007481294,-0.006829309212346224,
0.031571072319202,-0.00666302226075127,
0.03162094763092269,0.007467335104410609,
0.03167082294264339,-0.02281581728786697,
0.03172069825436409,0.02662875380522422,
0.03177057356608479,-0.014739526335204147,
0.03182044887780549,-0.018522309001830106,
0.031870324189526185,-0.006602496721794743,
0.03192019950124688,-0.0017722153887769238,
0.03197007481296758,0.004553509558428039,
0.03201995012468828,-0.017827690791315846,
0.032069825436408975,-0.006915504149645934,
0.03211970074812968,-0.012143330964012189,
0.03216957605985037,0.006665938478581091,
0.032219451371571076,0.0057718082670224526,
0.03226932668329177,0.0019994132403818843,
0.03231920199501247,0.010820231154710279,
0.03236907730673317,-0.007584587404253273,
0.032418952618453865,-0.00018052477744318122,
0.03246882793017456,0.006266542462957481,
0.032518703241895264,0.016886840617773752,
0.03256857855361596,-0.0013931301622786554,
0.032618453865336655,0.028021226396854934,
0.03266832917705736,-0.0043207431090486895,
0.032718204488778053,-0.009915203868208666,
0.032768079800498756,-0.011491710287239252,
0.03281795511221945,-0.01771542008176401,
0.03286783042394015,-0.011621389764214372,
0.03291770573566085,0.006485278057332964,
0.032967581047381546,0.0030542317723992224,
0.03301745635910224,-0.0014426465156582666,
0.033067331670822944,-0.010946874303898062,
0.03311720698254364,-0.006997312402887534,
0.03316708229426434,0.026112508137976165,
0.03321695760598504,0.01961071417724615,
0.033266832917705734,-0.009959190448988901,
0.03331670822942644,-0.010560217084233946,
0.03336658354114713,0.03158408761179579,
0.03341645885286783,0.02889797638322065,
0.03346633416458853,-0.0023464978979838916,
0.033516209476309226,0.009391476397501172,
0.03356608478802992,-0.004240957679804092,
0.033615960099750625,0.022107475497003544,
0.03366583541147132,0.021173621726102227,
0.03371571072319202,0.006940003612450363,
0.03376558603491272,0.02170098220737337,
0.033815461346633414,0.01496407119601974,
0.03386533665835412,0.008701074855030716,
0.03391521197007481,0.013697319832857716,
0.03396508728179551,-0.012327188813467413,
0.03401496259351621,-0.00039653235108981673,
0.03406483790523691,0.03045526076849179,
0.0341147132169576,0.025990446276074074,
0.034164588528678305,0.01511850161383742,
0.034214463840399,-0.004116716601710549,
0.034264339152119704,0.0063110420052957215,
0.0343142144638404,0.028758663350138814,
0.034364089775561095,0.01956683431168428,
0.0344139650872818,-0.0006568668634948094,
0.03446384039900249,-0.0003805118361405232,
0.03451371571072319,0.014832766461219794,
0.03456359102244389,-0.02289535729560238,
0.03461346633416459,0.004325212339761228,
0.03466334164588529,0.010193718105743729,
0.034713216957605986,0.008062131710924523,
0.03476309226932668,0.03240014933582527,
0.034812967581047384,0.002176652542402879,
0.03486284289276808,-0.001116919220856289,
0.034912718204488775,0.0481168068891626,
0.03496259351620948,0.016602321183821014,
0.035012468827930174,-0.01872793766086244,
0.03506234413965087,0.011825776869482241,
0.03511221945137157,0.011208280340964268,
0.03516209476309227,0.008334026215364564,
0.03521197007481297,0.0004031711317103691,
0.035261845386533666,0.026819085007292603,
0.03531172069825436,0.04253174636186234,
0.035361596009975065,0.03439545628677136,
0.03541147132169576,0.017905660637298877,
0.035461346633416456,0.008984641702085183,
0.03551122194513716,0.005880159058986799,
0.035561097256857854,0.03174178563491373,
0.03561097256857856,0.0323349005680887,
0.03566084788029925,0.019003951027899785,
0.03571072319201995,0.037781665375609785,
0.03576059850374065,0.02199946731153202,
0.03581047381546135,0.049371115019200544,
0.03586034912718204,0.0022879917860318677,
0.035910224438902745,0.015329861486029602,
0.03596009975062344,0.03134221035488284,
0.036009975062344136,0.021454906616159487,
0.03605985037406484,0.023620725154674994,
0.036109725685785535,-0.009521707904407314,
0.03615960099750624,-0.013332633268811744,
0.03620947630922693,0.030796954062350584,
0.03625935162094763,0.0477306367166205,
0.03630922693266833,0.030179915552626245,
0.03635910224438903,0.03468307937741595,
0.03640897755610972,0.02173742215383772,
0.036458852867830426,0.02999404990869228,
0.03650872817955112,0.01598363726548548,
0.036558603491271824,0.029597483036637777,
0.03660847880299252,0.02668925218833591,
0.036658354114713215,0.02835103821738546,
0.03670822942643392,0.020837900372382166,
0.036758104738154614,0.007635375106547151,
0.03680798004987531,0.022674826003943008,
0.03685785536159601,0.04427602103508084,
0.03690773067331671,0.008053002776371923,
0.0369576059850374,0.015660420975759107,
0.037007481296758106,0.020928157437812418,
0.0370573566084788,0.03543041833594557,
0.037107231920199504,0.005266346194143373,
0.0371571072319202,0.03458205810761094,
0.037206982543640896,0.03280378663177556,
0.0372568578553616,0.030956916253647555,
0.037306733167082294,0.021861594912304202,
0.03735660847880299,-0.014122140716943867,
0.03740648379052369,0.012156033411665641,
0.03745635910224439,0.03290666149556805,
0.037506234413965084,0.035818539080438375,
0.037556109725685786,0.016017383107100498,
0.03760598503740648,0.013582234906933874,
0.037655860349127185,0.014147590856227828,
0.03770573566084788,0.03753604819605353,
0.037755610972568576,0.02983486288081556,
0.03780548628428928,0.04342563721339577,
0.037855361596009975,0.0193932385360594,
0.03790523690773067,0.021426246028293346,
0.03795511221945137,0.04701492639558778,
0.03800498753117207,0.024702667588170867,
0.03805486284289277,0.024022049119087747,
0.03810473815461347,0.043739679418807395,
0.03815461346633416,0.031025738554140272,
0.038204488778054865,0.027301706877626376,
0.03825436408977556,0.005699401201853395,
0.03830423940149626,0.030196568581410645,
0.03835411471321696,0.05743683471439015,
0.038403990024937655,0.04052933956872864,
0.03845386533665835,0.03758835501673318,
0.03850374064837905,0.037352639053702355,
0.03855361596009975,0.017040855707410835,
0.03860349127182045,0.015390256100399423,
0.03865336658354115,-0.009953319817810228,
0.03870324189526184,0.037258304680243895,
0.038753117206982546,-0.008544255878874453,
0.03880299251870324,0.0013022092180408132,
0.03885286783042394,0.04272495849820467,
0.03890274314214464,0.016408240994392084,
0.038952618453865336,0.019653338546311457,
0.03900249376558604,0.04558616986469784,
0.039052369077306734,-0.013992223644383572,
0.03910224438902743,0.003997181920632538,
0.03915211970074813,0.01106244078789213,
0.03920199501246883,0.006055879634468636,
0.039251870324189524,0.012666422946352469,
0.039301745635910226,0.040123219870095234,
0.03935162094763092,0.018396215337318847,
0.03940149625935162,0.0526141970894079,
0.03945137157107232,0.04503913333210198,
0.039501246882793016,0.020513728334051313,
0.03955112219451372,0.023466589375751957,
0.039600997506234414,0.039472734527645895,
0.03965087281795511,0.013208509869198415,
0.03970074812967581,0.006397524748903894,
0.03975062344139651,-0.021182446971546393,
0.039800498753117204,0.021406798397435232,
0.03985037406483791,0.00886339779405326,
0.0399002493765586,0.03014771114260026,
0.039950124688279305,-0.01684652270410686,
0.04,0.011114051302854963,
0.0400498753117207,0.022993946122065,
0.0400997506234414,0.009557009706309667,
0.040149625935162095,-0.008462891186487083,
0.04019950124688279,0.028541410522701337,
0.04024937655860349,0.006017710001775704,
0.04029925187032419,0.01044410956620956,
0.040349127182044885,0.03423250572919212,
0.04039900249376559,0.008907557421185087,
0.04044887780548628,0.008300626116310755,
0.040498753117206986,-0.0015440841386802524,
0.04054862842892768,0.03917327027428106,
0.04059850374064838,0.012132616365746616,
0.04064837905236908,-0.0028201425210761123,
0.040698254364089775,0.010845572635457063,
0.04074812967581047,0.023685629167391815,
0.040798004987531174,0.013440158974130575,
0.04084788029925187,0.02512187521867193,
0.040897755610972565,0.017714489180303397,
0.04094763092269327,0.0029715590687902516,
0.04099750623441396,0.012006308295119884,
0.041047381546134666,0.012244075543342895,
0.04109725685785536,-0.0142703834997202,
0.04114713216957606,0.0017646161595359904,
0.04119700748129676,0.0022683271446279994,
0.041246882793017456,0.011046047305692011,
0.04129675810473815,0.015465042577865186,
0.041346633416458854,0.004376511005876186,
0.04139650872817955,-0.01826925069783164,
0.04144638403990025,-0.004253345505735685,
0.04149625935162095,0.02396830311508101,
0.041546134663341644,0.013376836872737228,
0.04159600997506235,-0.0004182648436015547,
0.04164588528678304,-0.006011276245236934,
0.04169576059850374,0.014846663677493996,
0.04174563591022444,0.011253859897066749,
0.041795511221945136,0.03378032990169699,
0.04184538653366583,0.013760818551277027,
0.041895261845386535,-0.039691550597942785,
0.04194513715710723,0.018332045641160456,
0.04199501246882793,0.018314358053897015,
0.04204488778054863,0.015558502924671144,
0.042094763092269324,0.01639009588743809,
0.04214463840399003,-0.008792048051247349,
0.04219451371571072,0.02790471074521196,
0.04224438902743142,0.01096672512924412,
0.04229426433915212,0.006504068853462,
0.04234413965087282,0.004671067183505772,
0.04239401496259352,-0.015697412826593767,
0.042443890274314215,0.033213024482234975,
0.04249376558603491,0.017135945185264137,
0.042543640897755614,-0.018327951725168212,
0.04259351620947631,-0.006322137026066365,
0.042643391521197005,0.010679632460562685,
0.04269326683291771,0.01057173969458673,
0.0427431421446384,0.023408703054713802,
0.0427930174563591,0.011486431609731115,
0.0428428927680798,0.009334357164864302,
0.0428927680798005,-0.007726027558854058,
0.0429426433915212,0.004887351088746791,
0.042992518703241896,0.016459712759901057,
0.04304239401496259,-0.0018452691647239394,
0.043092269326683294,-0.006508212225374189,
0.04314214463840399,-0.013790129346680322,
0.043192019950124685,-0.018688532000010322,
0.04324189526184539,-0.008610854339705973,
0.043291770573566084,0.02744003953490478,
0.043341645885286786,0.007991719722637226,
0.04339152119700748,0.00568864627618724,
0.04344139650872818,0.005030247942155739,
0.04349127182044888,0.01939388129266847,
0.043541147132169576,-0.01042540892533118,
0.04359102244389027,0.011526399110441694,
0.043640897755610975,-0.012710482917377468,
0.04369077306733167,-0.0018551460320103887,
0.043740648379052366,-0.007326872923307536,
0.04379052369077307,-0.005577699351239674,
0.043840399002493764,-0.01404023526526841,
0.04389027431421447,0.008957596228605333,
0.04394014962593516,-0.01271240467979665,
0.04399002493765586,-0.00462244719338874,
0.04403990024937656,-0.018199131139576996,
0.04408977556109726,-0.0086483362923931,
0.04413965087281795,-0.0262038932453081,
0.044189526184538655,-0.0056155139245615245,
0.04423940149625935,0.004486631642791648,
0.04428927680798005,-0.004350449652204168,
0.04433915211970075,0.0012320048227035607,
0.044389027431421445,-0.0209690107738983,
0.04443890274314215,-0.0033740882598371352,
0.04448877805486284,0.004349276236618939,
0.04453865336658354,0.017660743169281,
0.04458852867830424,-0.017394072473969464,
0.04463840399002494,-0.0009782587808173527,
0.04468827930174563,-0.020165045275642356,
0.044738154613466335,-0.032491123923975615,
0.04478802992518703,0.015428637671986633,
0.044837905236907734,0.015308812915295575,
0.04488778054862843,0.0005449925970192424,
0.044937655860349125,-0.014510204182474002,
0.04498753117206983,-0.041364553873715945,
0.045037406483790524,-0.005547920747749701,
0.04508728179551122,-0.020373243376079028,
0.04513715710723192,-0.006916357368240594,
0.04518703241895262,-0.018449515844042384,
0.04523690773067331,-0.0021913790914234524,
0.045286783042394016,-0.022238351648811848,
0.04533665835411471,-0.00020018953155708646,
0.045386533665835414,-0.007074475496539209,
0.04543640897755611,-0.0078105091227308205,
0.045486284289276806,-0.009716308942892212,
0.04553615960099751,0.02123514200290173,
0.045586034912718204,-0.009911012519405907,
0.0456359102244389,-0.03518019450976826,
0.0456857855361596,-0.02837693615105344,
0.0457356608478803,-0.015165727678194279,
0.045785536159601,0.02152734994218957,
0.045835411471321696,0.010754870666311136,
0.04588528678304239,0.0009500927923407707,
0.045935162094763095,-0.0252654588986602,
0.04598503740648379,0.005763446635560859,
0.046034912718204486,-0.023926367069795722,
0.04608478802992519,-0.031239295525643865,
0.046134663341645885,-0.009402175003228323,
0.04618453865336658,-0.007035409317874031,
0.04623441396508728,0.0015337392885196085,
0.04628428927680798,-0.011495690608571734,
0.04633416458852868,0.008233475862229282,
0.04638403990024938,-0.013089992529090818,
0.04643391521197007,-0.017601730487227865,
0.046483790523690775,-0.017966438901631594,
0.04653366583541147,-0.010521948495844879,
0.04658354114713217,-0.01150725844092055,
0.04663341645885287,-0.049680035496994436,
0.046683291770573565,0.02235140319818245,
0.04673316708229427,-0.020748425212544688,
0.04678304239401496,-0.020822036016105397,
0.04683291770573566,-0.0013948257820399403,
0.04688279301745636,-0.03419073010868845,
0.04693266832917706,-0.016686928564770616,
0.04698254364089775,-0.013466180378593377,
0.047032418952618456,-0.012282006410984387,
0.04708229426433915,-0.011940734860065777,
0.04713216957605985,-0.020085950455384527,
0.04718204488778055,-0.026380114264119327,
0.047231920199501246,-0.025142029711420613,
0.04728179551122195,-0.021786494649755826,
0.047331670822942644,-0.009905150349428037,
0.04738154613466334,-0.005583619975544345,
0.04743142144638404,-0.0038055209943221816,
0.04748129675810474,-0.002134871948194601,
0.047531172069825434,-0.015402976772818577,
0.047581047381546136,-0.059721619073815124,
0.04763092269326683,-0.013710570096358819,
0.047680798004987535,-0.04568571155306138,
0.04773067331670823,-0.0072653105569409435,
0.047780548628428926,-0.03323509187227988,
0.04783042394014963,0.00931583808808267,
0.047880299251870324,0.0007885537377370806,
0.04793017456359102,-0.03871832521652509,
0.04798004987531172,-0.016078722526821243,
0.04802992518703242,-0.03619253216792648,
0.048079800498753114,-0.009656237428829508,
0.04812967581047382,-0.040456880637713896,
0.04817955112219451,-0.006153499484785474,
0.048229426433915215,0.024920850997637904,
0.04827930174563591,-0.023498775672258453,
0.048329177057356607,-0.012434000769534497,
0.04837905236907731,-0.00765910650352512,
0.048428927680798005,-0.03390368553262247,
0.0484788029925187,-0.006362120969507315,
0.0485286783042394,0.00107725849498614,
0.0485785536159601,-0.009812975709471834,
0.048628428927680795,0.0162463853555481,
0.0486783042394015,-0.01799491784736145,
0.04872817955112219,-0.021636603109893772,
0.048778054862842896,-0.00043489081623504684,
0.04882793017456359,-0.04329621653330337,
0.04887780548628429,-0.03818276165082579,
0.04892768079800499,-0.00903701174451095,
0.048977556109725685,-0.01152369129966748,
0.04902743142144638,-0.00045850294855254853,
0.049077306733167084,-0.011477856695224328,
0.04912718204488778,-0.010726974626440636,
0.04917705735660848,0.007629157205052511,
0.04922693266832918,-0.018154348335455796,
0.04927680798004987,0.010715747097206048,
0.049326683291770576,-0.02236477021364206,
0.04937655860349127,0.020190244160694207,
0.04942643391521197,-0.006373813440527624,
0.04947630922693267,-0.019889586815270106,
0.049526184538653366,0.024774789232071506,
0.04957605985037406,0.003270635163316136,
0.049625935162094764,-0.004827887951928133,
0.04967581047381546,0.018103370061048216,
0.04972568578553616,-0.02953008757451726,
0.04977556109725686,-0.003588547435926263,
0.049825436408977554,0.01658729574046308,
0.04987531172069826,-0.0171274939779175,
0.04992518703241895,-0.004965063861480858,
0.04997506234413965,-0.010577106816203155,
0.05002493765586035,-0.017644006832611102,
0.050074812967581046,-0.02242692299696463,
0.05012468827930175,-0.011742076507074007,
0.050174563591022445,-0.0016013770755360125,
0.05022443890274314,-0.010852870384276203,
0.05027431421446384,-0.00019314071252825304,
0.05032418952618454,-0.02420023485355019,
0.050374064837905234,0.006123049464304291,
0.05042394014962594,0.010900852704123592,
0.05047381546134663,0.005551028818338721,
0.05052369077306733,-0.02393042983021329,
0.05057356608478803,-0.017378224821561507,
0.05062344139650873,0.004710955142399869,
0.05067331670822943,0.023688299335917706,
0.050723192019950125,0.0005685087167472559,
0.05077306733167082,0.011273782415779312,
0.050822942643391524,0.01691180437404895,
0.05087281795511222,-0.007131981989328416,
0.050922693266832915,0.009666080220571489,
0.05097256857855362,-0.01364986855825373,
0.05102244389027431,-0.020092644572357,
0.051072319201995016,0.009802016925154183,
0.05112219451371571,-0.021508529011499408,
0.05117206982543641,-0.014747109702199196,
0.05122194513715711,0.008902069644685196,
0.051271820448877806,-0.04150765355738072,
0.0513216957605985,0.018668086920355147,
0.051371571072319204,-9.359302270117893e-05,
0.0514214463840399,0.006606945228894143,
0.051471321695760595,0.005190672308641378,
0.0515211970074813,-0.005629165081719146,
0.051571072319201994,0.01905893507394657,
0.051620947630922696,-0.008077590844472477,
0.05167082294264339,-0.010322722114336822,
0.05172069825436409,-0.015534659905553019,
0.05177057356608479,-0.02556149638350153,
0.051820448877805486,0.004653221707470845,
0.05187032418952618,-0.01943076442485997,
0.051920199501246884,-0.01258829121717256,
0.05197007481296758,-0.010235501084240239,
0.052019950124688276,0.0056473901877568435,
0.05206982543640898,0.01056289112420761,
0.052119700748129674,-0.005369854928315413,
0.05216957605985038,0.005682853126501452,
0.05221945137157107,-0.006586667237482912,
0.05226932668329177,0.00741601505438127,
0.05231920199501247,-0.0291374270267283,
0.05236907730673317,0.01898311798910469,
0.05241895261845386,0.005114085144406397,
0.052468827930174565,0.012167234288417596,
0.05251870324189526,0.01456891198069045,
0.05256857855361596,0.00101535492388758,
0.05261845386533666,0.03447207779395135,
0.052668329177057355,-0.034337051253275984,
0.05271820448877806,0.008003431865791917,
0.05276807980049875,0.007652176216763052,
0.05281795511221945,0.02435490124100229,
0.05286783042394015,-0.0016374392849059496,
0.05291770573566085,0.010298676612523124,
0.05296758104738154,0.032121931163352185,
0.053017456359102245,-0.008188101130215621,
0.05306733167082294,0.021027824043929992,
0.053117206982543644,-0.0010245312351213794,
0.05316708229426434,-0.004892110440606249,
0.053216957605985035,0.012361106585339069,
0.05326683291770574,-0.0034690832639043597,
0.053316708229426434,-0.007826190422850742,
0.05336658354114713,-0.010920010176312342,
0.05341645885286783,0.021255055310414578,
0.05346633416458853,0.0090425760421381,
0.05351620947630923,0.026695834953055806,
0.053566084788029926,0.016800332700087885,
0.05361596009975062,-0.003215165400899637,
0.053665835411471324,0.0369932422266499,
0.05371571072319202,0.034392107380717594,
0.053765586034912716,0.006910598389237169,
0.05381546134663342,0.029173645112954692,
0.053865336658354114,0.014971239426586229,
0.05391521197007481,0.0331548550470251,
0.05396508728179551,-0.008409221896694637,
0.05401496259351621,0.0344265198032309,
0.05406483790523691,-0.019166284561881,
0.054114713216957606,0.02750198403646663,
0.0541645885286783,0.01713819995416971,
0.054214463840399005,0.019668607985901615,
0.0542643391521197,0.019196793430440395,
0.054314214463840396,-0.003361173248243105,
0.0543640897755611,0.013599789404289728,
0.054413965087281795,0.020609172219185522,
0.0544638403990025,0.009079499218306728,
0.05451371571072319,0.035993045620801405,
0.05456359102244389,0.014311585412041401,
0.05461346633416459,0.027260643787286057,
0.05466334164588529,0.00018801626269112498,
0.05471321695760598,-0.006546969591016864,
0.054763092269326685,0.0036687519825828827,
0.05481296758104738,0.03908208524299919,
0.05486284289276808,0.025297916130925316,
0.05491271820448878,0.00939167111706091,
0.054962593516209475,-0.006367768000909612,
0.05501246882793018,0.029098138349162007,
0.05506234413965087,0.022483197714891108,
0.05511221945137157,0.03997008635389594,
0.05516209476309227,0.03528602883477079,
0.05521197007481297,0.027265463800274455,
0.05526184538653366,0.028744630521963237,
0.055311720698254366,-0.011197590919220578,
0.05536159600997506,0.009526401095479153,
0.05541147132169576,0.02997360279662429,
0.05546134663341646,0.013404566158282252,
0.055511221945137156,-0.006338602927954667,
0.05556109725685786,0.015916285220671123,
0.055610972568578554,0.03641520256091202,
0.05566084788029925,0.029351644380328272,
0.05571072319201995,0.04651419482543129,
0.05576059850374065,0.02659921492358823,
0.055810473815461344,0.03457091350968963,
0.055860349127182046,0.025000786657040194,
0.05591022443890274,0.008377332711516397,
0.055960099750623445,0.017952953128083253,
0.05600997506234414,0.02764612452938755,
0.056059850374064836,0.025227394670082122,
0.05610972568578554,0.02314478788804267,
0.056159600997506234,0.03358760357597895,
0.05620947630922693,0.015518958710725983,
0.05625935162094763,0.022794566076203646,
0.05630922693266833,0.0554674651966279,
0.056359102244389024,0.02839916393321089,
0.05640897755610973,0.03998781328285736,
0.05645885286783042,0.025547720653697262,
0.056508728179551125,-0.007620437082237658,
0.05655860349127182,0.04526634267075403,
0.056608478802992516,0.02585130376819394,
0.05665835411471322,0.03787229063488161,
0.056708229426433915,0.018422614564782062,
0.05675810473815461,0.02568794263801077,
0.05680798004987531,0.013905810225087438,
0.05685785536159601,0.015817272848726083,
0.05690773067331671,0.023973474536353668,
0.05695760598503741,0.002550121611817554,
0.0570074812967581,0.031236485798947937,
0.057057356608478806,0.01625867476944981,
0.0571072319201995,0.03145377308141725,
0.0571571072319202,-0.007389214485813225,
0.0572069825436409,0.024026112267111016,
0.057256857855361595,0.007259609009205987,
0.05730673316708229,0.00496928773462748,
0.057356608478802994,0.05165017139154359,
0.05740648379052369,0.05572263236211104,
0.05745635910224439,0.047150981907300236,
0.05750623441396509,0.03295258145982911,
0.05755610972568578,0.034346652209192474,
0.057605985037406486,0.035671374894026525,
0.05765586034912718,0.059419619977517935,
0.05770573566084788,0.015370575114215272,
0.05775561097256858,-0.009798692706915683,
0.057805486284289276,0.04237004499696929,
0.05785536159600998,0.003131510686873326,
0.057905236907730674,0.0342128805445049,
0.05795511221945137,0.047381643828341084,
0.05800498753117207,0.029125395681957537,
0.05805486284289277,0.023832572882107394,
0.058104738154613464,0.0018645719106243283,
0.05815461346633417,0.02832230188974076,
0.05820448877805486,0.01914049748770075,
0.05825436408977556,0.03882836943777512,
0.05830423940149626,-0.0004504603990760983,
0.058354114713216956,0.0350237560253247,
0.05840399002493766,0.05504210838192963,
0.058453865336658355,0.0012521099623159608,
0.05850374064837905,0.032633431712000345,
0.05855361596009975,0.03158052812262675,
0.05860349127182045,0.025894689133040834,
0.058653366583541144,0.02399017134471423,
0.05870324189526185,0.028969176655406034,
0.05875311720698254,0.009334385205131931,
0.05880299251870324,0.026146535404408935,
0.05885286783042394,0.048476679561135966,
0.05890274314214464,0.0298128916177684,
0.05895261845386534,0.03972647087298183,
0.059002493765586035,0.015438960825269946,
0.05905236907730673,0.004853102123405846,
0.059102244389027433,0.011682223241344228,
0.05915211970074813,0.005352496532372998,
0.059201995012468825,0.04128004825697247,
0.05925187032418953,0.020867815890012544,
0.05930174563591022,0.038725961324760826,
0.059351620947630926,0.0048048955283270765,
0.05940149625935162,0.0143150720061876,
0.05945137157107232,0.006161965638828693,
0.05950124688279302,0.035446428842706795,
0.059551122194513716,0.021588955727415992,
0.05960099750623441,0.019907763852686416,
0.059650872817955114,0.023572075366033687,
0.05970074812967581,0.013179276560180465,
0.059750623441396505,0.018236878533654455,
0.05980049875311721,0.0005053097441738916,
0.059850374064837904,-0.004688650185067287,
0.059900249376558606,0.009336916432996384,
0.0599501246882793,0.011186210136850618,
0.06,0.035440269822940684,
0.0600498753117207,0.026241112061339097,
0.060099750623441396,-0.015762261859482908,
0.06014962593516209,-0.00047537810049410115,
0.060199501246882794,0.02274725647304176,
0.06024937655860349,0.03710091321606156,
0.06029925187032419,-0.005258780367172977,
0.06034912718204489,0.01727661650883074,
0.060399002493765584,0.003160729998641601,
0.06044887780548629,0.02087310458766177,
0.06049875311720698,-0.00789374565945936,
0.06054862842892768,0.0024963963534608367,
0.06059850374064838,0.025966817595035066,
0.06064837905236908,0.04091931336148241,
0.06069825436408977,-0.008241814486838632,
0.060748129675810475,0.03312023340930629,
0.06079800498753117,0.021746211960523155,
0.06084788029925187,0.015403119435506084,
0.06089775561097257,0.0172552315712453,
0.060947630922693265,0.030952982290973673,
0.06099750623441397,0.02784634366372262,
0.06104738154613466,-0.0010983864769345958,
0.06109725685785536,0.02026481568861442,
0.06114713216957606,0.0021861050632540745,
0.06119700748129676,0.02178783090953829,
0.06124688279301746,0.007883591243520088,
0.061296758104738155,0.013601516159577996,
0.06134663341645885,0.042724355669094355,
0.061396508728179554,0.01388116418779471,
0.06144638403990025,0.04726979609956025,
0.061496259351620945,-0.004521524349882284,
0.06154613466334165,-0.0020410026841759573,
0.061596009975062344,0.03704390604776586,
0.06164588528678304,0.020917095142448355,
0.06169576059850374,0.003939485563194252,
0.06174563591022444,-0.006293523884227322,
0.06179551122194514,0.0112285176924233,
0.061845386533665836,-0.007422712987671002,
0.06189526184538653,0.01724817459382507,
0.061945137157107234,0.0018186261357765673,
0.06199501246882793,-0.00018949075468618556,
0.062044887780548626,0.009390535649283292,
0.06209476309226933,0.014770990522157744,
0.062144638403990024,0.0132766419271288,
0.06219451371571072,0.01658984261425111,
0.06224438902743142,0.0014166771159295115,
0.06229426433915212,0.008283755717085513,
0.06234413965087282,0.01038428500605994,
0.062394014962593516,-3.731782502245599e-05,
0.06244389027431421,-0.008026498303157015,
0.062493765586034915,0.012253154012305936,
0.06254364089775562,-0.0024639372417751097,
0.06259351620947631,0.009322887270580092,
0.06264339152119701,0.01798632289173091,
0.0626932668329177,0.029823049428108005,
0.0627431421446384,0.028690154742165488,
0.0627930174563591,0.006076631016113876,
0.0628428927680798,-3.863863430262748e-05,
0.0628927680798005,0.01838798669824379,
0.0629426433915212,0.017780716283321785,
0.06299251870324189,0.009087972796035793,
0.06304239401496259,-0.009657352456237934,
0.0630922693266833,0.0030494740902221582,
0.063142144638404,-0.01926460675696992,
0.06319201995012469,-0.0007326045209878388,
0.06324189526184539,0.011607762849699296,
0.06329177057356608,-0.02587160131766868,
0.06334164588528678,0.029740876394260412,
0.06339152119700749,-0.026345368219207042,
0.06344139650872818,0.0009077599997040051,
0.06349127182044888,-0.0026488721930094127,
0.06354114713216957,-0.0005685043133761487,
0.06359102244389027,0.012869818341693281,
0.06364089775561098,-0.003921072805331774,
0.06369077306733167,-0.0017362440049274936,
0.06374064837905237,-0.006504523379165022,
0.06379052369077307,0.017904606235191155,
0.06384039900249376,-0.0015146500305842222,
0.06389027431421446,-0.006906788170661503,
0.06394014962593517,0.001647681871190433,
0.06399002493765586,0.014279068497995267,
0.06403990024937656,-0.01614960412976081,
0.06408977556109725,-0.009822598886453975,
0.06413965087281795,-0.0008309667525621092,
0.06418952618453866,-0.00750859248554612,
0.06423940149625935,-0.024183655392648225,
0.06428927680798005,-0.012623015000466125,
0.06433915211970075,0.0010763140535274803,
0.06438902743142144,0.016131563864901922,
0.06443890274314215,0.007912080746502587,
0.06448877805486285,-0.021502138843975727,
0.06453865336658354,-0.04116862910470777,
0.06458852867830424,-0.0011901336587428661,
0.06463840399002493,0.02368286800097015,
0.06468827930174563,-0.008587302726894218,
0.06473815461346634,-0.0204405280914773,
0.06478802992518704,0.0028158095118728235,
0.06483790523690773,0.011753553612334409,
0.06488778054862843,-0.004134286366162622,
0.06493765586034912,-0.01328956175490047,
0.06498753117206983,-0.005677247816568719,
0.06503740648379053,-0.01936230358337071,
0.06508728179551122,0.004871473467623141,
0.06513715710723192,-0.0008198229191505408,
0.06518703241895261,-0.0025981088122669915,
0.06523690773067331,-0.016047659780477702,
0.06528678304239402,-0.05716981722197566,
0.06533665835411472,-0.013931644844169432,
0.06538653366583541,0.0006104370348948684,
0.06543640897755611,0.008709490599958278,
0.0654862842892768,-0.04708560509674164,
0.06553615960099751,0.0049974051486285104,
0.06558603491271821,-0.008228929712963474,
0.0656359102244389,-0.012255411430529228,
0.0656857855361596,0.010221276252276213,
0.0657356608478803,-0.025264097225228085,
0.06578553615960099,0.006916334564805688,
0.0658354114713217,0.02265199569808359,
0.0658852867830424,-0.009564509527690215,
0.06593516209476309,-0.00017830390958196649,
0.06598503740648379,0.013210660043066941,
0.06603491271820448,-0.03489937976739921,
0.06608478802992519,0.0020618086064749224,
0.06613466334164589,-0.012477212862350963,
0.06618453865336658,-0.03444692667701593,
0.06623441396508728,0.003160015201623992,
0.06628428927680798,-0.016620790714270275,
0.06633416458852869,-0.017688962598782828,
0.06638403990024938,-0.02805947382925521,
0.06643391521197008,0.020837516894369176,
0.06648379052369077,-0.014009317543107233,
0.06653366583541147,-0.012696654407258859,
0.06658354114713216,-0.03416544332032148,
0.06663341645885287,-0.030526812570727153,
0.06668329177057357,0.009399702267792912,
0.06673316708229426,0.0032908382250335655,
0.06678304239401496,-0.04107702759966497,
0.06683291770573566,-0.011456293212555547,
0.06688279301745637,-0.012873580629745338,
0.06693266832917706,-6.024268698945692e-05,
0.06698254364089776,-0.015897338188847056,
0.06703241895261845,-0.00806859525719936,
0.06708229426433915,-0.027557956319653604,
0.06713216957605984,-0.029515373176348083,
0.06718204488778055,-0.010040904033304073,
0.06723192019950125,-0.004009141736767103,
0.06728179551122195,-0.005381413412204569,
0.06733167082294264,0.0012623723109656173,
0.06738154613466334,-0.04161044193955252,
0.06743142144638405,-0.013544767103898153,
0.06748129675810474,-0.026659586586760986,
0.06753117206982544,-0.018277549635071264,
0.06758104738154613,0.0020797239439059954,
0.06763092269326683,-0.005468628774757107,
0.06768079800498752,-0.005190498765847217,
0.06773067331670823,-0.012267380171063534,
0.06778054862842893,-0.019298680088792028,
0.06783042394014963,0.0026217342026626754,
0.06788029925187032,-0.008116058190342609,
0.06793017456359102,-0.013384060647835051,
0.06798004987531173,-0.010577260282663889,
0.06802992518703242,-0.012768910145063688,
0.06807980049875312,-0.007395635413785321,
0.06812967581047381,-0.010767589951190839,
0.06817955112219451,-0.019893388450250644,
0.0682294264339152,-0.0309089365049787,
0.06827930174563591,0.004819041414896658,
0.06832917705735661,-0.04550079811238162,
0.0683790523690773,-0.018910716394358446,
0.068428927680798,0.0023042209615464215,
0.0684788029925187,-0.01062661026987224,
0.06852867830423941,-0.026333997064752708,
0.0685785536159601,0.008895151025679858,
0.0686284289276808,-0.025769289066801822,
0.0686783042394015,-0.019617487979512592,
0.06872817955112219,-0.0015272300240932613,
0.0687780548628429,-0.010855236818612626,
0.0688279301745636,-0.040649455530867934,
0.06887780548628429,-0.012091031454683427,
0.06892768079800499,-0.02277111196536315,
0.06897755610972568,-0.0057135007730440635,
0.06902743142144638,-0.017427385267202465,
0.06907730673316709,-0.009002460740294652,
0.06912718204488778,-0.030589082760441474,
0.06917705735660848,-0.021561528689303028,
0.06922693266832917,-0.0109504278098284,
0.06927680798004987,-0.021590541230218634,
0.06932668329177058,-0.01144924975836965,
0.06937655860349128,-0.028298599584014882,
0.06942643391521197,0.0075670145701606985,
0.06947630922693267,-0.03319401686025769,
0.06952618453865336,-0.019876349265234794,
0.06957605985037406,0.0037250583654146047,
0.06962593516209477,-0.01324471014893545,
0.06967581047381546,-0.01201582427769574,
0.06972568578553616,0.00028124489919318513,
0.06977556109725686,-0.011362511102709524,
0.06982543640897755,-0.01228407281174052,
0.06987531172069826,-0.003145212813842579,
0.06992518703241896,-0.019389484095784858,
0.06997506234413965,0.015191880618674932,
0.07002493765586035,-0.034841303854901806,
0.07007481296758104,0.005506246481183509,
0.07012468827930174,-0.0015768245548741962,
0.07017456359102245,-0.001755448150645528,
0.07022443890274314,-0.014733689667878847,
0.07027431421446384,-0.03781287153538706,
0.07032418952618454,-0.006840984199324009,
0.07037406483790523,-0.021562412220186913,
0.07042394014962594,-0.020541349451344275,
0.07047381546134664,-0.011462423895128753,
0.07052369077306733,-0.022118561414471986,
0.07057356608478803,-0.012779452253444533,
0.07062344139650872,0.006686032057087382,
0.07067331670822943,-0.015212410541564636,
0.07072319201995013,-0.004735622200005793,
0.07077306733167082,-0.02735297764289052,
0.07082294264339152,-0.02973046921214346,
0.07087281795511222,-0.002786514672358435,
0.07092269326683291,0.012912064060266223,
0.07097256857855362,-0.0014609395347952867,
0.07102244389027432,-0.011636972382090938,
0.07107231920199501,-0.008219279031984075,
0.07112219451371571,0.03556743966996279,
0.0711720698254364,-0.03550151591478161,
0.07122194513715711,-0.005255418089299856,
0.07127182044887781,0.00916219246869492,
0.0713216957605985,-0.0003844709180584995,
0.0713715710723192,-4.0411526107180136e-05,
0.0714214463840399,0.02402276605575118,
0.07147132169576059,-0.013405627593134153,
0.0715211970074813,-0.04085518803501844,
0.071571072319202,-0.004826133970799611,
0.0716209476309227,-0.009114532028209507,
0.07167082294264339,-0.012355643191723413,
0.07172069825436408,-0.00025644325062768665,
0.0717705735660848,0.007292968192968294,
0.07182044887780549,0.006452232579909358,
0.07187032418952619,-0.005115007164578744,
0.07192019950124688,0.01863333684494671,
0.07197007481296758,0.019818818696056294,
0.07201995012468827,0.008519435991816617,
0.07206982543640898,0.006608681644112213,
0.07211970074812968,-0.004803533946522811,
0.07216957605985037,0.002612420844751895,
0.07221945137157107,0.013184918613254725,
0.07226932668329177,-0.009351562190276793,
0.07231920199501247,0.030177010966461238,
0.07236907730673317,0.015070305081642513,
0.07241895261845387,0.011525024580209734,
0.07246882793017456,0.0032848339691657013,
0.07251870324189526,0.005536633958403096,
0.07256857855361595,0.004902135092023707,
0.07261845386533666,0.021091521968309525,
0.07266832917705736,0.022674616923863796,
0.07271820448877805,-0.005728998330015751,
0.07276807980049875,0.009503693492510502,
0.07281795511221945,0.0063594097669558486,
0.07286783042394016,0.0068368443822701234,
0.07291770573566085,0.0029983138680303367,
0.07296758104738155,0.024807379822972916,
0.07301745635910224,0.0021128647987041565,
0.07306733167082294,0.023426301757930028,
0.07311720698254365,-0.008598089766630884,
0.07316708229426434,-0.0010600822298026738,
0.07321695760598504,0.023779112638080597,
0.07326683291770573,0.01525668187715237,
0.07331670822942643,0.02795655112376462,
0.07336658354114713,0.03342347106304969,
0.07341645885286784,-0.0033976883806197157,
0.07346633416458853,0.02077818919800787,
0.07351620947630923,0.03001636739148407,
0.07356608478802992,0.023741497349418113,
0.07361596009975062,-0.006774452033072776,
0.07366583541147133,-0.010664824714932762,
0.07371571072319202,0.022090740690641545,
0.07376558603491272,0.025738906363266097,
0.07381546134663342,0.029688463891116335,
0.07386533665835411,0.007715936548531328,
0.0739152119700748,0.0030945111156759648,
0.07396508728179552,-0.0069923672971787965,
0.07401496259351621,0.014889740734279852,
0.07406483790523691,-0.0004203979366614631,
0.0741147132169576,0.016299721062626803,
0.0741645885286783,0.00596132748749593,
0.07421446384039901,0.007442327260722692,
0.0742643391521197,0.04628625139482361,
0.0743142144638404,0.01954145001738645,
0.0743640897755611,-0.008503686742217331,
0.07441396508728179,0.03140699166679714,
0.07446384039900249,0.018189885522745867,
0.0745137157107232,0.0033092186654348956,
0.07456359102244389,0.023346277553504585,
0.07461346633416459,0.008240421111122925,
0.07466334164588528,0.03646354132149923,
0.07471321695760598,0.005660085581471932,
0.07476309226932669,0.02397531924412394,
0.07481296758104738,0.00930075977577833,
0.07486284289276808,-0.0014228430307985027,
0.07491271820448878,0.029225088298840254,
0.07496259351620947,0.0064086939858266825,
0.07501246882793017,0.0004771044933204252,
0.07506234413965088,0.025034527265402298,
0.07511221945137157,-0.006727196547936378,
0.07516209476309227,0.02378277185193636,
0.07521197007481296,0.036268678276136106,
0.07526184538653366,0.010256237206310132,
0.07531172069825437,0.021062588625660007,
0.07536159600997507,-0.007439469600703998,
0.07541147132169576,0.02303797544734516,
0.07546134663341646,0.020410295980203202,
0.07551122194513715,-0.017669826485751182,
0.07556109725685786,0.0450021684297465,
0.07561097256857856,0.036917387242944785,
0.07566084788029925,0.0016533646745795112,
0.07571072319201995,0.0192556387474293,
0.07576059850374064,0.024280940479980688,
0.07581047381546134,0.013697098701836196,
0.07586034912718205,0.006894870395418131,
0.07591022443890275,0.03529600075103143,
0.07596009975062344,0.02632387844516242,
0.07600997506234414,0.016509854313258094,
0.07605985037406483,0.03745301630094332,
0.07610972568578554,0.016053018923257435,
0.07615960099750624,0.020454305996513808,
0.07620947630922693,0.02128124514216355,
0.07625935162094763,0.02935927731105406,
0.07630922693266833,0.035090047603137685,
0.07635910224438902,0.016701460930799484,
0.07640897755610973,0.021643963384299615,
0.07645885286783043,0.0378404258326476,
0.07650872817955112,0.014301550236039703,
0.07655860349127182,0.026206015322840993,
0.07660847880299251,0.010164347516303397,
0.07665835411471322,0.039285040481502054,
0.07670822942643392,0.0469274916614925,
0.07675810473815461,0.0458915918326784,
0.07680798004987531,0.011505529818306806,
0.076857855361596,0.04406259479325943,
0.0769077306733167,0.022283853546786837,
0.07695760598503741,0.009737490268901838,
0.0770074812967581,0.011708676437210696,
0.0770573566084788,0.027569589099143088,
0.0771072319201995,0.01962733462940337,
0.0771571072319202,0.008374522014429293,
0.0772069825436409,0.03520226861053238,
0.0772568578553616,0.023793353106701526,
0.0773067331670823,0.026046570556985307,
0.07735660847880299,0.021411199267566572,
0.07740648379052369,0.02658240370920053,
0.0774563591022444,0.032641159217906265,
0.07750623441396509,0.02938645298261919,
0.07755610972568579,0.02584803842759389,
0.07760598503740648,0.026464523412395857,
0.07765586034912718,0.01813143971597079,
0.07770573566084787,0.029094994526384685,
0.07775561097256858,0.00013672987320973926,
0.07780548628428928,0.032807531612795204,
0.07785536159600998,0.033690604665099634,
0.07790523690773067,0.01382189288780939,
0.07795511221945137,0.03370012942096,
0.07800498753117208,0.03863198646632587,
0.07805486284289277,0.007276403407391094,
0.07810473815461347,-0.007612126344852307,
0.07815461346633416,0.03378310948263319,
0.07820448877805486,0.02719844932765393,
0.07825436408977555,0.01645923012630638,
0.07830423940149626,0.040776207223043585,
0.07835411471321696,0.01305427907726918,
0.07840399002493766,0.032732263924903235,
0.07845386533665835,0.027619069029951485,
0.07850374064837905,0.0258211406479379,
0.07855361596009976,0.03059874559907117,
0.07860349127182045,0.027780551714800393,
0.07865336658354115,0.007328317417403224,
0.07870324189526184,0.002363005896998928,
0.07875311720698254,0.023931898904817454,
0.07880299251870324,0.025017452539980337,
0.07885286783042394,0.02501744906226714,
0.07890274314214464,0.03033146411615818,
0.07895261845386534,0.02380519173196776,
0.07900249376558603,0.02295547985743029,
0.07905236907730673,0.043305149943148394,
0.07910224438902744,0.03498966799144016,
0.07915211970074813,0.01347552164125166,
0.07920199501246883,0.012945496999690206,
0.07925187032418952,0.02242007511294957,
0.07930174563591022,0.029469688351916157,
0.07935162094763092,0.02770115690967093,
0.07940149625935163,0.0272468568463961,
0.07945137157107232,0.03144194279247953,
0.07950124688279302,0.04554442411579289,
0.07955112219451371,0.0245115534357335,
0.07960099750623441,0.015838294225703552,
0.07965087281795512,-0.014816724864914345,
0.07970074812967581,0.030998274580224444,
0.07975062344139651,0.0011627279630419783,
0.0798004987531172,0.010110581053789652,
0.0798503740648379,0.009882847964940131,
0.07990024937655861,0.038900278491550346,
0.0799501246882793,0.025126543279686386,
0.08,0.024911328507470652,
0.0800498753117207,0.03990975366136959,
0.0800997506234414,0.0428520120567885,
0.08014962593516209,0.03786314313739038,
0.0801995012468828,0.016920223541520958,
0.0802493765586035,0.023867943050896047,
0.08029925187032419,0.025275492280028466,
0.08034912718204489,0.03125603739862212,
0.08039900249376558,0.004802737192071043,
0.08044887780548629,0.026833995014661334,
0.08049875311720699,0.008722702892257399,
0.08054862842892768,0.02244273682895243,
0.08059850374064838,0.04745597575692008,
0.08064837905236907,0.012724696888831278,
0.08069825436408977,0.022848265003424562,
0.08074812967581048,0.02825350878642026,
0.08079800498753117,0.021116294880966276,
0.08084788029925187,0.00042799815928066046,
0.08089775561097257,0.0388513222260654,
0.08094763092269326,0.030058419872967077,
0.08099750623441397,0.005434626357274012,
0.08104738154613467,0.005194850623074964,
0.08109725685785536,0.018416438488695945,
0.08114713216957606,0.022748311311059546,
0.08119700748129675,0.035043827372358324,
0.08124688279301745,0.005019599964662941,
0.08129675810473816,0.03649308636854699,
0.08134663341645886,-0.04377145879855308,
0.08139650872817955,0.015095031180303085,
0.08144638403990025,0.023800988467664555,
0.08149625935162094,0.026131380101154823,
0.08154613466334165,0.003885010941647631,
0.08159600997506235,0.010801835200549618,
0.08164588528678304,0.010503364371064677,
0.08169576059850374,0.005744476400362286,
0.08174563591022443,0.02716148366686868,
0.08179551122194513,0.007873726038334604,
0.08184538653366584,0.008820464707709742,
0.08189526184538654,0.01060683193821373,
0.08194513715710723,0.021688549879799415,
0.08199501246882793,0.009868948050519358,
0.08204488778054862,0.00036441448818004714,
0.08209476309226933,0.0063682791840205385,
0.08214463840399003,0.03299990848542015,
0.08219451371571072,0.04720958628440892,
0.08224438902743142,0.0270729161971393,
0.08229426433915212,0.0118791015587928,
0.08234413965087282,0.002200586066876259,
0.08239401496259352,0.027012015877606398,
0.08244389027431422,0.0009874302848684995,
0.08249376558603491,0.004775855272301491,
0.08254364089775561,-0.003992880427654316,
0.0825935162094763,-0.007388910793948738,
0.08264339152119701,-0.013030675217669012,
0.08269326683291771,0.005493014763098693,
0.0827431421446384,-0.00188555873880261,
0.0827930174563591,0.009614227687718482,
0.0828428927680798,0.016373988261790998,
0.0828927680798005,0.0174795788352,
0.0829426433915212,0.0023400668624309826,
0.0829925187032419,0.008277643723920668,
0.08304239401496259,0.00436023013816723,
0.08309226932668329,0.009129383249119813,
0.08314214463840398,0.023990106027071398,
0.0831920199501247,0.0037510854708903223,
0.08324189526184539,0.015056370241804675,
0.08329177057356608,0.0026583396071153667,
0.08334164588528678,0.01940951702078331,
0.08339152119700748,0.014756483570500313,
0.08344139650872819,0.01251659875671773,
0.08349127182044888,-0.01043886385927158,
0.08354114713216958,0.00838542150935249,
0.08359102244389027,0.010293574013412467,
0.08364089775561097,0.03303415102302318,
0.08369077306733166,-0.015104501601054643,
0.08374064837905237,-0.006605447348242048,
0.08379052369077307,0.007865259552326951,
0.08384039900249377,-0.00629157251288208,
0.08389027431421446,-0.005286251596426748,
0.08394014962593516,0.007889008888293596,
0.08399002493765587,0.007265673212347234,
0.08403990024937656,0.02860750617792889,
0.08408977556109726,-0.013509277495566584,
0.08413965087281795,-0.02997083277322305,
0.08418952618453865,-0.003262086185565744,
0.08423940149625936,-0.0022803029894804478,
0.08428927680798005,-0.004232589787096033,
0.08433915211970075,-0.012083929549456352,
0.08438902743142145,0.02834270380197586,
0.08443890274314214,-0.01992885478982116,
0.08448877805486284,-0.042140867649138936,
0.08453865336658355,0.0008932695947323618,
0.08458852867830424,0.01849094114306145,
0.08463840399002494,-0.00867744140583946,
0.08468827930174563,-0.00817686922671643,
0.08473815461346633,0.0042539958824263585,
0.08478802992518704,-0.03290772913925723,
0.08483790523690773,-0.014263528284562635,
0.08488778054862843,-0.004353834595446868,
0.08493765586034913,0.033643220585119045,
0.08498753117206982,-0.015331198433981556,
0.08503740648379052,0.0012179008265251097,
0.08508728179551123,-0.012630810114447985,
0.08513715710723192,-0.031051969539316045,
0.08518703241895262,0.02565429059937254,
0.08523690773067331,-0.017502893412491814,
0.08528678304239401,0.012531333839576388,
0.08533665835411472,-0.008663430044847431,
0.08538653366583542,-0.014774469210839102,
0.08543640897755611,-0.0036859812845902486,
0.0854862842892768,-0.02188427861478779,
0.0855361596009975,0.01178434076445902,
0.0855860349127182,0.004171680565264261,
0.08563591022443891,0.014300389036379053,
0.0856857855361596,-0.012384120237737474,
0.0857356608478803,-0.03217938428956352,
0.085785536159601,-0.019110888456062243,
0.08583541147132169,-0.02673398275062674,
0.0858852867830424,-0.005644851177784894,
0.0859351620947631,-0.007333049013788395,
0.08598503740648379,0.0070766635432098456,
0.08603491271820449,-0.014566171354475063,
0.08608478802992518,-0.013867694782214592,
0.08613466334164588,-0.015393579243322412,
0.08618453865336659,-0.025207763533392075,
0.08623441396508728,-0.014166677050493397,
0.08628428927680798,-0.017436083728837995,
0.08633416458852868,-0.003386731726719286,
0.08638403990024937,-0.017931084661097142,
0.08643391521197008,-0.008746768089754008,
0.08648379052369078,0.017472599434526857,
0.08653366583541147,0.027570245078912408,
0.08658354114713217,-0.02422651234133515,
0.08663341645885286,-0.04193849561727156,
0.08668329177057357,-0.010618132387810626,
0.08673316708229427,-0.026114969548522902,
0.08678304239401496,-0.025405813163184313,
0.08683291770573566,-0.005075536625301314,
0.08688279301745636,-0.02787990519086721,
0.08693266832917705,-9.722030534029501e-05,
0.08698254364089776,-0.01290710487024145,
0.08703241895261846,-0.009114180832986412,
0.08708229426433915,-0.003259099683675522,
0.08713216957605985,0.0007945359419800641,
0.08718204488778054,-0.035896991729170005,
0.08723192019950125,-0.023187407758629406,
0.08728179551122195,-0.002598615414016873,
0.08733167082294264,-0.0017511954410299752,
0.08738154613466334,-0.02636527287717258,
0.08743142144638404,-0.016263460057742467,
0.08748129675810473,0.00315760231224331,
0.08753117206982544,-0.005852798377644363,
0.08758104738154614,-0.02182730530502955,
0.08763092269326683,-0.02112707440237619,
0.08768079800498753,-0.02402374612435025,
0.08773067331670822,-0.016776648746783727,
0.08778054862842893,-0.02105431348243738,
0.08783042394014963,0.0026172452629624077,
0.08788029925187033,-0.006078545560705908,
0.08793017456359102,-0.03257173163139147,
0.08798004987531172,0.004292503566133159,
0.08802992518703241,-0.013894203716839255,
0.08807980049875312,-0.01966973346529459,
0.08812967581047382,0.01090185966329994,
0.08817955112219451,-0.0029451919870480056,
0.08822942643391521,0.012967644161638746,
0.0882793017456359,0.013614917576088518,
0.08832917705735661,-0.02419881860618553,
0.08837905236907731,-0.012068320368337937,
0.088428927680798,0.004555250326463178,
0.0884788029925187,-0.02249073766971426,
0.0885286783042394,-0.0002502134408714999,
0.0885785536159601,-0.00946833995064013,
0.0886284289276808,0.018636315767689933,
0.0886783042394015,0.0037875522702915353,
0.0887281795511222,-0.0033171304191126003,
0.08877805486284289,-0.009540060559876742,
0.08882793017456359,0.028047153396887257,
0.0888778054862843,-0.01097574908022723,
0.08892768079800499,-0.01190044828171338,
0.08897755610972569,0.0023407361950199147,
0.08902743142144638,-0.007986233004318178,
0.08907730673316708,-0.022221552743697373,
0.08912718204488779,0.011876727914864105,
0.08917705735660848,0.01768846619828213,
0.08922693266832918,-0.002753010413600163,
0.08927680798004987,-0.0005964106575120521,
0.08932668329177057,-0.012366636191885296,
0.08937655860349127,-0.014252247257043344,
0.08942643391521198,-0.0219051362251952,
0.08947630922693267,0.011058209113364994,
0.08952618453865337,-0.01062245281817854,
0.08957605985037406,-0.016566745394765395,
0.08962593516209476,-0.006861931095258063,
0.08967581047381547,-0.0089424094734333,
0.08972568578553616,-0.013544987649862904,
0.08977556109725686,-0.0003693042891026177,
0.08982543640897755,-0.01118805956287968,
0.08987531172069825,-3.065059274055988e-05,
0.08992518703241895,-0.013164899503498959,
0.08997506234413966,-0.002520411601401239,
0.09002493765586035,0.0017710984286149738,
0.09007481296758105,-0.02066001151987469,
0.09012468827930174,-0.019898509063313724,
0.09017456359102244,-0.04093038690665959,
0.09022443890274315,-0.014016966492787865,
0.09027431421446384,-0.011514054576625134,
0.09032418952618454,-0.004367158579554149,
0.09037406483790524,-0.016245510064674354,
0.09042394014962593,-0.018980081262300642,
0.09047381546134663,0.008555536490392934,
0.09052369077306734,-0.02511191539856303,
0.09057356608478803,-0.01063057883923637,
0.09062344139650873,4.3491699537371274e-05,
0.09067331670822942,-0.00018732807374857458,
0.09072319201995012,-0.011743426470958527,
0.09077306733167083,-0.010541854771258428,
0.09082294264339152,-0.014807081855966782,
0.09087281795511222,-0.004424389706920983,
0.09092269326683292,-0.014948213376163815,
0.09097256857855361,0.008591552862899303,
0.09102244389027432,-0.014023253552230771,
0.09107231920199502,-0.009965670186989952,
0.09112219451371571,0.006154811816920265,
0.09117206982543641,-0.027595319064773527,
0.0912219451371571,-0.010622369438096352,
0.0912718204488778,0.024715212017685048,
0.09132169576059851,0.013642878546350646,
0.0913715710723192,-0.006082548739807155,
0.0914214463840399,0.001738933319047032,
0.0914713216957606,0.0013942135437602335,
0.09152119700748129,0.02114129147664434,
0.091571072319202,-0.014970484633924884,
0.0916209476309227,0.0005845906166214336,
0.09167082294264339,0.018555431315397306,
0.09172069825436409,0.006417815689002077,
0.09177057356608478,0.007995919160599725,
0.09182044887780548,0.02022174013914609,
0.09187032418952619,0.007905712372059668,
0.09192019950124689,-0.0018866352995485051,
0.09197007481296758,-0.021322273296672606,
0.09201995012468828,-0.01974389771825594,
0.09206982543640897,-0.018499450452701075,
0.09211970074812968,0.023805343077436338,
0.09216957605985038,-0.01580403288118553,
0.09221945137157107,0.014512950436698271,
0.09226932668329177,0.007372692911402607,
0.09231920199501246,0.0002642368691902191,
0.09236907730673316,-0.031597885461996,
0.09241895261845387,0.008745938262448835,
0.09246882793017457,-0.0026127366542042637,
0.09251870324189526,0.022117236530189134,
0.09256857855361596,0.02672177781617346,
0.09261845386533665,0.010534210970566504,
0.09266832917705736,0.0248858005028198,
0.09271820448877806,0.018559772017174896,
0.09276807980049875,-0.004174899634882782,
0.09281795511221945,0.025570400939597764,
0.09286783042394015,0.031543833228650016,
0.09291770573566084,0.012233887504415814,
0.09296758104738155,-0.008049301181230553,
0.09301745635910225,0.02875960073798932,
0.09306733167082294,0.01134909448794598,
0.09311720698254364,-0.008108403902021409,
0.09316708229426433,0.0017380102102203358,
0.09321695760598504,0.030280882589340145,
0.09326683291770574,0.01369765299004734,
0.09331670822942643,-0.00018431816409551077,
0.09336658354114713,0.025513566252723358,
0.09341645885286783,-0.003170690192812655,
0.09346633416458854,0.026583944710336427,
0.09351620947630923,-0.00014502188983718176,
0.09356608478802993,0.019259403488303416,
0.09361596009975062,0.016766734452506205,
0.09366583541147132,0.016375682187504924,
0.09371571072319201,0.009387897368450976,
0.09376558603491272,0.010991231421807256,
0.09381546134663342,-0.024145135918329824,
0.09386533665835411,0.008466827970835575,
0.09391521197007481,0.014688737443299741,
0.0939650872817955,0.020789358685236372,
0.09401496259351622,0.025778052518906962,
0.09406483790523691,-0.0035857437247039554,
0.09411471321695761,-0.003931559628870365,
0.0941645885286783,-0.010680631308088339,
0.094214463840399,0.022247502366037755,
0.0942643391521197,-0.004421714888486125,
0.0943142144638404,0.010785412367130827,
0.0943640897755611,0.006532348787418429,
0.0944139650872818,0.01332607006372414,
0.09446384039900249,0.020262298688541836,
0.09451371571072319,0.006087954676415815,
0.0945635910224439,0.028547963763953053,
0.09461346633416459,-0.0033955988441950052,
0.09466334164588529,0.03734720063987932,
0.09471321695760598,0.026992600658321292,
0.09476309226932668,0.02684598905453307,
0.09481296758104737,0.012200018743767964,
0.09486284289276808,0.03954003123741867,
0.09491271820448878,0.00821322481570414,
0.09496259351620948,0.01575351096560708,
0.09501246882793017,0.01167424512736424,
0.09506234413965087,0.026807810985627713,
0.09511221945137158,0.004893579482802146,
0.09516209476309227,0.030396116899407976,
0.09521197007481297,0.010880598578106918,
0.09526184538653366,0.03470163085107371,
0.09531172069825436,0.018562071603127214,
0.09536159600997507,0.012823078600415145,
0.09541147132169576,0.008292484352438666,
0.09546134663341646,0.015295816474654597,
0.09551122194513716,0.014286844740856508,
0.09556109725685785,0.006904731640009602,
0.09561097256857855,0.027209616714215203,
0.09566084788029926,0.04608134984990189,
0.09571072319201995,0.03823441016024836,
0.09576059850374065,0.025258291343528628,
0.09581047381546134,-0.007321405662531071,
0.09586034912718204,0.016732429971226016,
0.09591022443890275,0.05052637339467553,
0.09596009975062345,0.01852028837753701,
0.09600997506234414,0.032006620450128365,
0.09605985037406484,0.0029237199045086155,
0.09610972568578553,0.02269673671391686,
0.09615960099750623,0.030577421035184738,
0.09620947630922694,0.011621165031821734,
0.09625935162094763,0.023031701438217932,
0.09630922693266833,0.020477335455952792,
0.09635910224438902,0.021255534289571467,
0.09640897755610972,0.024521866827182097,
0.09645885286783043,0.015834893044456642,
0.09650872817955113,0.017121526253937754,
0.09655860349127182,0.04742113068294799,
0.09660847880299252,0.03318351885920097,
0.09665835411471321,0.014970278274620951,
0.09670822942643391,0.0058161521683626274,
0.09675810473815462,0.037748455879946075,
0.09680798004987531,0.010226324284210997,
0.09685785536159601,0.015324397352048165,
0.0969077306733167,0.05277432254818444,
0.0969576059850374,0.030044668624873358,
0.09700748129675811,0.04078687865128323,
0.0970573566084788,0.013376412249953831,
0.0971072319201995,0.02358512498553219,
0.0971571072319202,0.03003514471295768,
0.0972069825436409,0.013285271559511848,
0.09725685785536159,0.014455634701727662,
0.0973067331670823,0.020724191618742553,
0.097356608478803,0.018771438758736308,
0.09740648379052369,0.04572221939068678,
0.09745635910224439,0.015465699270345924,
0.09750623441396508,0.030755984808989854,
0.09755610972568579,0.017481953710878684,
0.09760598503740649,0.023454926193263097,
0.09765586034912718,0.03993079864506539,
0.09770573566084788,0.017556100067578094,
0.09775561097256857,0.009007021759070047,
0.09780548628428928,0.06063924647379382,
0.09785536159600998,0.004366617692498888,
0.09790523690773068,0.009488478901736264,
0.09795511221945137,0.020537048501091497,
0.09800498753117207,0.04111580389407141,
0.09805486284289276,0.01174681416502639,
0.09810473815461347,0.011111524952967765,
0.09815461346633417,0.027389730570124053,
0.09820448877805486,0.02795219502882282,
0.09825436408977556,0.03444622818180636,
0.09830423940149625,-0.002546076846551979,
0.09835411471321696,0.04224474520186139,
0.09840399002493766,0.015709399817455613,
0.09845386533665836,0.03404488874304781,
0.09850374064837905,0.032213861357457296,
0.09855361596009975,0.032681074014267716,
0.09860349127182044,0.04644153318680101,
0.09865336658354115,0.02901173010458796,
0.09870324189526185,0.001990074039368385,
0.09875311720698254,0.01904706847960687,
0.09880299251870324,0.032803106568616104,
0.09885286783042393,0.03747105754273077,
0.09890274314214464,0.019185407430324007,
0.09895261845386534,0.019618138032018454,
0.09900249376558604,0.020146273544627988,
0.09905236907730673,0.040055195182264844,
0.09910224438902743,0.01940702752421753,
0.09915211970074812,0.010913376945085446,
0.09920199501246883,0.038506483289812335,
0.09925187032418953,0.006575830401438106,
0.09930174563591022,0.012815163600694672,
0.09935162094763092,0.010498422057478153,
0.09940149625935162,0.02959735893433337,
0.09945137157107233,0.01014435146158534,
0.09950124688279302,0.03634815866717707,
0.09955112219451372,0.026678304271376997,
0.09960099750623441,0.050628671385977306,
0.09965087281795511,0.06268987145058694,
0.0997007481296758,0.010762500625713557,
0.09975062344139651,0.01743407588277228,
0.09980049875311721,0.024208798743572065,
0.0998503740648379,0.01275227956979986,
0.0999002493765586,0.04734187944238663,
0.0999501246882793,0.04623067923054907,
0.1,0.023289323836996997,
0.1000498753117207,0.0031601706104674825,
0.1000997506234414,0.024137386796470345,
0.10014962593516209,0.0370459942392872,
0.10019950124688279,0.01248193490813391,
0.1002493765586035,0.020471359397172678,
0.1002992518703242,0.020307066157273207,
0.10034912718204489,0.02503426757861047,
0.10039900249376559,0.028603270734635068,
0.10044887780548628,0.012840502585069757,
0.10049875311720698,0.005547616886112454,
0.10054862842892769,0.03339199230356597,
0.10059850374064838,0.03533976147900983,
0.10064837905236908,0.01631108991786554,
0.10069825436408977,0.04249525995719895,
0.10074812967581047,0.020646767053397314,
0.10079800498753118,0.022139409499152607,
0.10084788029925187,0.010453528690755396,
0.10089775561097257,0.030395890785564594,
0.10094763092269327,0.007117997993510639,
0.10099750623441396,0.018201158940666262,
0.10104738154613466,0.022335080101152503,
0.10109725685785537,0.028282952921378116,
0.10114713216957606,0.02225006583821179,
0.10119700748129676,0.016715731115782357,
0.10124688279301745,-0.001800518444679794,
0.10129675810473815,0.02422889875461245,
0.10134663341645886,0.00786016295105059,
0.10139650872817955,0.010458852683896416,
0.10144638403990025,-0.006305450969380275,
0.10149625935162095,0.012737164424666875,
0.10154613466334164,0.02279751898731086,
0.10159600997506234,0.0471427870426406,
0.10164588528678305,0.03661045046573765,
0.10169576059850374,-0.016736216926001975,
0.10174563591022444,0.03315142998355533,
0.10179551122194513,0.035415462029295894,
0.10184538653366583,0.0015372703407900076,
0.10189526184538654,-0.006569186088252443,
0.10194513715710724,0.015147535952581632,
0.10199501246882793,0.02023754403406022,
0.10204488778054863,0.03330837087032319,
0.10209476309226932,0.028305343907582287,
0.10214463840399003,0.05027577332799053,
0.10219451371571073,-0.011362212275755283,
0.10224438902743142,0.024031226626152348,
0.10229426433915212,0.009226523785553033,
0.10234413965087281,0.006130458579582543,
0.10239401496259351,0.037734776487774416,
0.10244389027431422,0.014775215087781467,
0.10249376558603492,0.022542021207931733,
0.10254364089775561,0.010531281100383686,
0.10259351620947631,-0.020458949802551384,
0.102643391521197,0.0075681276130941996,
0.10269326683291771,-0.02180804786118094,
0.10274314214463841,0.01382603902514085,
0.1027930174563591,-0.006394736924338212,
0.1028428927680798,-0.013275648685541748,
0.1028927680798005,0.0064654090495689515,
0.10294264339152119,0.006548469104067514,
0.1029925187032419,-0.016912875286378286,
0.1030423940149626,0.011374590397914644,
0.10309226932668329,0.02068962590810214,
0.10314214463840399,0.012086538653939615,
0.10319201995012468,-0.0005858078291961994,
0.10324189526184539,0.022583503346606547,
0.10329177057356609,0.013338932042461898,
0.10334164588528678,-0.006013748806817374,
0.10339152119700748,-0.0039154971679476545,
0.10344139650872818,-0.007582836960299534,
0.10349127182044887,0.02445944817101345,
0.10354114713216958,0.0356072255635031,
0.10359102244389028,-0.016982548760914783,
0.10364089775561097,0.0062174177161397285,
0.10369077306733167,-0.01568207829428438,
0.10374064837905236,0.0023441638791695213,
0.10379052369077307,-0.0001516814981061042,
0.10384039900249377,0.014794463089854819,
0.10389027431421446,0.006364507687867788,
0.10394014962593516,-6.660068674260483e-05,
0.10399002493765586,0.023495931651620842,
0.10403990024937655,0.021038165665721323,
0.10408977556109726,0.008067323445609141,
0.10413965087281796,-0.021269713794442105,
0.10418952618453865,-0.019112404150920786,
0.10423940149625935,-0.020708407551649426,
0.10428927680798004,-0.004986865393201427,
0.10433915211970075,0.017399611911798847,
0.10438902743142145,0.013235595675990192,
0.10443890274314215,0.0038622603315921116,
0.10448877805486284,-0.002844090678353737,
0.10453865336658354,-0.014257749498345136,
0.10458852867830425,-0.0042788414471158324,
0.10463840399002494,0.0008821758301748644,
0.10468827930174564,-0.0016688670436766633,
0.10473815461346633,-0.0020842141657582292,
0.10478802992518703,-0.01531113948165029,
0.10483790523690772,-0.020426726635776413,
0.10488778054862843,0.009007008387066143,
0.10493765586034913,-0.015106376683413893,
0.10498753117206983,0.0160498784408258,
0.10503740648379052,-0.02113693586212624,
0.10508728179551122,-0.0077847641906004465,
0.10513715710723193,-0.005805368737735517,
0.10518703241895262,0.009991639695544627,
0.10523690773067332,-0.006975388442054626,
0.10528678304239401,0.008918851430533515,
0.10533665835411471,-0.001812398636782825,
0.1053865336658354,-0.026889536430040457,
0.10543640897755611,-0.029544303128590476,
0.10548628428927681,-0.006912201197587533,
0.1055361596009975,-0.012975051761835672,
0.1055860349127182,-0.03004666470087039,
0.1056359102244389,-0.005882221697071706,
0.10568578553615961,-0.015679042213037238,
0.1057356608478803,-0.003976896348452869,
0.105785536159601,-0.006445211216009524,
0.1058354114713217,0.02824204239810086,
0.10588528678304239,0.00032208185822838256,
0.10593516209476309,-0.03314197199370923,
0.1059850374064838,-0.011886099156530928,
0.10603491271820449,-0.01238255939978013,
0.10608478802992519,-0.004508853105181043,
0.10613466334164588,-0.012522580982199646,
0.10618453865336658,-0.022457425290752953,
0.10623441396508729,-0.007934635619007391,
0.10628428927680798,-0.007935676654162161,
0.10633416458852868,0.012003248429657996,
0.10638403990024937,-0.005134478743547755,
0.10643391521197007,0.010546750235578623,
0.10648379052369077,-0.012012173849188556,
0.10653366583541148,-0.02857548644408784,
0.10658354114713217,0.007971602942381273,
0.10663341645885287,-0.004323774554704235,
0.10668329177057356,-0.0033381437920120766,
0.10673316708229426,-0.012375410796102588,
0.10678304239401497,0.0014278477107184176,
0.10683291770573566,-0.005068541330543387,
0.10688279301745636,0.01940135653868923,
0.10693266832917706,0.005312980128555684,
0.10698254364089775,0.016419496918352913,
0.10703241895261846,-0.021227573033249184,
0.10708229426433916,-0.025461384884810728,
0.10713216957605985,0.011036024236157157,
0.10718204488778055,-0.019303781513854933,
0.10723192019950124,-0.022099863471397297,
0.10728179551122194,-0.036538760267394096,
0.10733167082294265,-0.0038308071174297086,
0.10738154613466334,-0.02006386922788867,
0.10743142144638404,-0.013856811325939633,
0.10748129675810474,-0.005407187522066726,
0.10753117206982543,-0.019597699089808476,
0.10758104738154614,-0.02533010712270945,
0.10763092269326684,-0.018415384195162907,
0.10768079800498753,0.005731189065562312,
0.10773067331670823,-0.015395471005389825,
0.10778054862842892,-0.0257037233981258,
0.10783042394014962,-0.03349723540120212,
0.10788029925187033,0.004176922555868018,
0.10793017456359102,0.01912732218490473,
0.10798004987531172,0.0034570164407026725,
0.10802992518703242,0.0044035060012794155,
0.10807980049875311,-0.008027232400336143,
0.10812967581047382,-0.01867028062386994,
0.10817955112219452,-0.04186993679145296,
0.10822942643391521,-0.00468530013260632,
0.10827930174563591,-0.006525978239018017,
0.1083291770573566,-0.03352919145007323,
0.1083790523690773,-0.0018616485905781684,
0.10842892768079801,0.0018364614213919068,
0.1084788029925187,-0.005168552500365689,
0.1085286783042394,-0.018438791891710327,
0.1085785536159601,0.001860142698876372,
0.10862842892768079,-0.014782532400240241,
0.1086783042394015,0.024972452061076466,
0.1087281795511222,-0.02244604493190589,
0.1087780548628429,-0.03457358407892687,
0.10882793017456359,-0.01795393472108101,
0.10887780548628428,-0.02401079657505125,
0.108927680798005,0.008063010634173425,
0.10897755610972569,-0.02736492323064571,
0.10902743142144639,-0.009768655077131712,
0.10907730673316708,0.01222952756065844,
0.10912718204488778,0.00033660723593687686,
0.10917705735660847,-0.01755758817001116,
0.10922693266832918,-0.023633791502066428,
0.10927680798004988,0.017073538826423852,
0.10932668329177057,0.0016093639551991445,
0.10937655860349127,-0.011503744280079414,
0.10942643391521197,-0.020688134833554542,
0.10947630922693267,-0.04065711054205375,
0.10952618453865337,-0.009988193098746706,
0.10957605985037407,-0.008017819138935157,
0.10962593516209476,-0.008810807180548412,
0.10967581047381546,0.018345027158641718,
0.10972568578553615,-0.03539008937921105,
0.10977556109725686,0.009309205666470616,
0.10982543640897756,0.0052730189934029215,
0.10987531172069825,0.013070376214308663,
0.10992518703241895,-0.003943532896328686,
0.10997506234413965,0.009028027692274287,
0.11002493765586036,-0.00977118618370328,
0.11007481296758105,-0.023841714076914974,
0.11012468827930175,-0.005818861333231986,
0.11017456359102244,0.009643388265594414,
0.11022443890274314,0.005969368463936076,
0.11027431421446383,0.0070068932085477955,
0.11032418952618454,-0.00899379333425097,
0.11037406483790524,8.055192489708329e-05,
0.11042394014962593,-0.02405732943656006,
0.11047381546134663,0.0016124471852134907,
0.11052369077306733,-0.02130897195640405,
0.11057356608478804,0.0102852819933883,
0.11062344139650873,-0.0015880379273536527,
0.11067331670822943,-0.006569927879309724,
0.11072319201995012,-0.018306129809431176,
0.11077306733167082,0.002292467450223371,
0.11082294264339151,-0.014905136938353162,
0.11087281795511222,-0.008544227230469131,
0.11092269326683292,-0.026049988802501183,
0.11097256857855362,-0.013239005391135596,
0.11102244389027431,0.019713332169978087,
0.111072319201995,-0.00546734915477717,
0.11112219451371572,-0.007468481074677652,
0.11117206982543641,-0.004213568427714489,
0.11122194513715711,0.008650864683730084,
0.1112718204488778,0.021406803210944944,
0.1113216957605985,0.0075330720475089655,
0.11137157107231921,0.03826063330100157,
0.1114214463840399,-0.004066295768464916,
0.1114713216957606,-0.011281948288822438,
0.1115211970074813,-0.0033953167274283144,
0.11157107231920199,-0.006553992906609213,
0.11162094763092269,-0.0017700339905220774,
0.1116708229426434,-0.001130480721264478,
0.11172069825436409,0.012276749636038956,
0.11177057356608479,-0.008122736218688585,
0.11182044887780548,0.01589942640070994,
0.11187032418952618,0.024270161745693217,
0.11192019950124689,0.0002743842488514203,
0.11197007481296758,0.012727029404900107,
0.11201995012468828,0.011983745653464564,
0.11206982543640898,-0.0021645972321282627,
0.11211970074812967,0.0012030218362282423,
0.11216957605985037,-0.0055942544104616325,
0.11221945137157108,0.027099507204894333,
0.11226932668329177,0.004974758039801432,
0.11231920199501247,0.007543393686409614,
0.11236907730673316,-0.0012857049247895448,
0.11241895261845386,-0.00644828642233357,
0.11246882793017457,0.008791422250658324,
0.11251870324189527,-0.004374084735959795,
0.11256857855361596,0.017350362907376137,
0.11261845386533666,0.016995254452182702,
0.11266832917705735,-0.005809160668472996,
0.11271820448877805,0.006618427571663239,
0.11276807980049876,-0.0003461323156831314,
0.11281795511221945,-0.022200998318920563,
0.11286783042394015,-0.019211002152521472,
0.11291770573566084,-0.005256441043887479,
0.11296758104738154,0.01739095667600441,
0.11301745635910225,0.026115589638200574,
0.11306733167082295,0.005774895801592771,
0.11311720698254364,0.02523496818735406,
0.11316708229426434,0.012274835962240768,
0.11321695760598503,0.024980077878191516,
0.11326683291770574,0.009457762679799078,
0.11331670822942644,0.01031906370580331,
0.11336658354114713,0.000230910875094463,
0.11341645885286783,0.021654330539698147,
0.11346633416458853,0.0022721079278506667,
0.11351620947630922,0.027711729596919414,
0.11356608478802993,0.04616403567925889,
0.11361596009975063,0.00703599904513398,
0.11366583541147132,0.004380048544207579,
0.11371571072319202,0.03447955486301446,
0.11376558603491271,0.0330712817901955,
0.11381546134663342,0.00043050559092870297,
0.11386533665835412,0.025077097645145187,
0.11391521197007481,-0.0013938729215511349,
0.11396508728179551,0.017734382644035464,
0.1140149625935162,0.03135309539128442,
0.1140648379052369,0.032316822411683585,
0.11411471321695761,0.0072151997366146775,
0.1141645885286783,7.291675662359637e-05,
0.114214463840399,0.014597476732832407,
0.1142643391521197,0.013430564098300686,
0.1143142144638404,0.02021752786226773,
0.1143640897755611,0.017458640761669968,
0.1144139650872818,0.032711368977467625,
0.1144638403990025,-0.002967054293638978,
0.11451371571072319,0.0010485644497922955,
0.11456359102244389,0.03083997357080666,
0.11461346633416458,4.472087962071117e-05,
0.11466334164588529,0.020613323135883318,
0.11471321695760599,0.057515657382432084,
0.11476309226932668,0.03288836457606042,
0.11481296758104738,0.025315646249979524,
0.11486284289276807,0.015382167401679154,
0.11491271820448878,0.035215869044692795,
0.11496259351620948,0.025305277908424975,
0.11501246882793018,0.032915096707635656,
0.11506234413965087,0.00932018460192026,
0.11511221945137157,0.022536871866416435,
0.11516209476309226,0.005197370592849162,
0.11521197007481297,0.038309447701221445,
0.11526184538653367,-0.004442604449637316,
0.11531172069825436,0.03665066737891985,
0.11536159600997506,0.03250057591241327,
0.11541147132169575,0.035279378505227374,
0.11546134663341646,0.03936602051449173,
0.11551122194513716,0.013480816804703767,
0.11556109725685786,0.03463543940051469,
0.11561097256857855,0.01103272391705791,
0.11566084788029925,0.0348019352979931,
0.11571072319201996,0.037331678296979885,
0.11576059850374065,0.021176193281498442,
0.11581047381546135,0.013247144111052583,
0.11586034912718204,0.02470108850824983,
0.11591022443890274,-0.0023454995761077804,
0.11596009975062344,0.034663487704305815,
0.11600997506234415,0.033347754189143444,
0.11605985037406484,0.030564545825178428,
0.11610972568578554,0.04701833090560492,
0.11615960099750623,0.037341206271276406,
0.11620947630922693,0.044593236572366204,
0.11625935162094764,0.023160133845149,
0.11630922693266833,0.02179635710081928,
0.11635910224438903,0.025890437640994135,
0.11640897755610972,0.05331007990870944,
0.11645885286783042,0.026384349190655697,
0.11650872817955112,0.039193512302446915,
0.11655860349127183,0.04228113800971574,
0.11660847880299252,-5.4247991653107175e-05,
0.11665835411471322,0.018897619465142998,
0.11670822942643391,0.020455314735245166,
0.11675810473815461,0.030434511786833162,
0.11680798004987532,0.012298643807653336,
0.11685785536159601,0.04429465423985275,
0.11690773067331671,0.036892527494423594,
0.1169576059850374,0.0036946047337823966,
0.1170074812967581,-0.014720994079209543,
0.1170573566084788,0.04191793620329792,
0.1171072319201995,0.023458546655273887,
0.1171571072319202,0.011077974030232696,
0.1172069825436409,0.0700251820042638,
0.1172568578553616,0.03682002966309313,
0.11730673316708229,0.02270831811859514,
0.117356608478803,0.04137330125272546,
0.1174064837905237,0.0011087190755336013,
0.11745635910224439,0.008243455531393187,
0.11750623441396509,0.026691501446215543,
0.11755610972568578,0.020731650916721724,
0.11760598503740648,0.04126541927751261,
0.11765586034912719,0.050289392305344,
0.11770573566084788,0.013065711905230044,
0.11775561097256858,0.027197475962158192,
0.11780548628428927,0.03523810609714404,
0.11785536159600997,0.03359514085002309,
0.11790523690773068,0.03663348511145891,
0.11795511221945137,0.05392915730750768,
0.11800498753117207,0.028872278656611825,
0.11805486284289277,0.04336211179678044,
0.11810473815461346,0.03339210900891258,
0.11815461346633417,0.029273690767521857,
0.11820448877805487,0.06257255563893563,
0.11825436408977556,0.047568160520356034,
0.11830423940149626,0.015834189980716926,
0.11835411471321695,0.02379374010135634,
0.11840399002493765,0.03664090993812355,
0.11845386533665836,0.03308336881207011,
0.11850374064837906,0.011140132952111255,
0.11855361596009975,0.01475192609152862,
0.11860349127182045,0.06807347322014717,
0.11865336658354114,0.03734667903593725,
0.11870324189526185,0.021103446530513263,
0.11875311720698255,0.04861546545852663,
0.11880299251870324,0.042689708784293706,
0.11885286783042394,0.0171979219960696,
0.11890274314214463,0.03518256781222566,
0.11895261845386533,0.025204650297546635,
0.11900249376558604,0.006235363012735494,
0.11905236907730674,0.028185838433720457,
0.11910224438902743,0.023438341869017585,
0.11915211970074813,0.014339023106863856,
0.11920199501246882,-0.0010989016292689245,
0.11925187032418953,0.03798476702318618,
0.11930174563591023,0.009595555453519491,
0.11935162094763092,0.0577036643935967,
0.11940149625935162,0.043871777108848584,
0.11945137157107232,0.03999726280989831,
0.11950124688279301,0.013000194331994806,
0.11955112219451372,0.033421611929359676,
0.11960099750623442,0.024630594119021472,
0.11965087281795511,0.012825795317416117,
0.11970074812967581,0.03981615591601143,
0.1197506234413965,0.0634278339930559,
0.11980049875311721,0.015799911380790323,
0.11985037406483791,0.016024100204514023,
0.1199002493765586,-0.006975494281997459,
0.1199501246882793,0.05730588584881528,
0.12,0.02517744513433497,
0.1200498753117207,0.05718199534788725,
0.1200997506234414,0.010802959802455494,
0.1201496259351621,0.03513718536222221,
0.12019950124688279,0.019168098203671394,
0.12024937655860349,0.03963598790608928,
0.12029925187032418,0.04606799473372165,
0.1203491271820449,0.010516244882195085,
0.12039900249376559,0.018286856855824384,
0.12044887780548628,0.039233524863367925,
0.12049875311720698,0.031211539637629997,
0.12054862842892768,0.019829110093064095,
0.12059850374064839,0.043885199217710016,
0.12064837905236908,0.00816430352715,
0.12069825436408978,0.009188144982413797,
0.12074812967581047,0.007079078653967145,
0.12079800498753117,0.0018613571031581531,
0.12084788029925186,0.007782086119345029,
0.12089775561097257,0.042464225468114264,
0.12094763092269327,0.03992330302070504,
0.12099750623441397,-0.005867704058214195,
0.12104738154613466,0.025634477198860424,
0.12109725685785536,0.018024548694037457,
0.12114713216957607,0.015057559444528629,
0.12119700748129676,0.006006355591545293,
0.12124688279301746,0.02999727186238554,
0.12129675810473815,0.017281246257933033,
0.12134663341645885,0.03471938157456568,
0.12139650872817954,0.037790573730224056,
0.12144638403990025,0.003945374084559177,
0.12149625935162095,0.03318476470136326,
0.12154613466334165,0.025567328088072116,
0.12159600997506234,0.012789296849693611,
0.12164588528678304,0.016884542274647137,
0.12169576059850375,0.058454132021234596,
0.12174563591022444,-0.009982983837077332,
0.12179551122194514,0.0088673134984214,
0.12184538653366583,0.026235192971842267,
0.12189526184538653,0.036591336655257815,
0.12194513715710723,0.01662779577344897,
0.12199501246882793,-0.022240804565499706,
0.12204488778054863,0.02818766647281465,
0.12209476309226933,0.011962961319510646,
0.12214463840399002,0.016343573948713316,
0.12219451371571072,0.020960066965852165,
0.12224438902743143,0.03181354152442995,
0.12229426433915212,0.017631039793374284,
0.12234413965087282,0.01743828603210287,
0.12239401496259351,-0.011782432080555027,
0.12244389027431421,0.0029541620801810595,
0.12249376558603492,0.03321025173875895,
0.12254364089775562,-0.009485484008712932,
0.12259351620947631,-0.024981486297260172,
0.122643391521197,0.009051919477860784,
0.1226932668329177,-0.014336287044720493,
0.1227431421446384,-0.002983659190961843,
0.12279301745635911,-0.015066308569730145,
0.1228428927680798,0.03493298334619292,
0.1228927680798005,-0.015848281929089478,
0.1229426433915212,-0.011619996589002455,
0.12299251870324189,0.030793827660344497,
0.1230423940149626,0.012356199639232474,
0.1230922693266833,-0.008365231471936092,
0.12314214463840399,0.0042459300966613545,
0.12319201995012469,0.002081544961697006,
0.12324189526184538,-0.00037523065231623645,
0.12329177057356608,0.004051084289231732,
0.12334164588528679,0.012481324011252265,
0.12339152119700748,-9.55526140860195e-05,
0.12344139650872818,-0.004928880107762044,
0.12349127182044888,-0.0031093998840332916,
0.12354114713216957,0.013430603683842118,
0.12359102244389028,-0.004607088514701994,
0.12364089775561098,0.03209289917008931,
0.12369077306733167,-0.012194694712661158,
0.12374064837905237,-0.004182296682785805,
0.12379052369077306,-0.006509501483238051,
0.12384039900249376,-0.0031879153589661193,
0.12389027431421447,-0.020841436714206917,
0.12394014962593516,0.0015219661054481466,
0.12399002493765586,0.019696295569869206,
0.12403990024937656,-0.007246040050151235,
0.12408977556109725,0.005234863442506926,
0.12413965087281796,-0.009910874253792725,
0.12418952618453866,-0.005084268811673637,
0.12423940149625935,0.021886869058514065,
0.12428927680798005,0.0034753816379167004,
0.12433915211970074,0.0066847419167249825,
0.12438902743142144,0.022538408534191826,
0.12443890274314215,-0.0069716300695480396,
0.12448877805486284,-0.011320613225540774,
0.12453865336658354,-0.014435891363334686,
0.12458852867830424,-0.003620770205094301,
0.12463840399002493,-0.005116192336885046,
0.12468827930174564,0.019876943462940576,
0.12473815461346634,-0.013211128306258297,
0.12478802992518703,0.006249234865379583,
0.12483790523690773,0.01521176935737421,
0.12488778054862842,-0.024284546977327723,
0.12493765586034913,-0.003176811071151838,
0.12498753117206983,0.010194988041571595,
0.12503740648379053,-0.0234098951607701,
0.12508728179551123,0.00709065331247055,
0.12513715710723192,-0.005330732440448583,
0.12518703241895263,-0.006230372064759111,
0.1252369077306733,-0.0066570697765336645,
0.12528678304239402,-0.017703385581901376,
0.1253366583541147,0.003993014551248338,
0.1253865336658354,-0.0012996161413077723,
0.12543640897755612,-0.01585259480174519,
0.1254862842892768,0.01989380441902241,
0.1255361596009975,0.02178914395168248,
0.1255860349127182,-0.007010485108563805,
0.1256359102244389,-0.017999254971207062,
0.1256857855361596,0.004175348238464818,
0.1257356608478803,-0.01991977479570253,
0.125785536159601,-0.010746278886662675,
0.12583541147132168,-0.007729049138653372,
0.1258852867830424,-0.06434535240700004,
0.1259351620947631,-0.009448978838637276,
0.12598503740648379,-0.013322006821596486,
0.1260349127182045,-0.014397243819881682,
0.12608478802992518,-0.008467567060909788,
0.1261346633416459,-0.0179596643217634,
0.1261845386533666,-0.003297230633038074,
0.12623441396508728,-0.017562378319221215,
0.126284289276808,-0.031078466998638046,
0.12633416458852867,-0.026658089226054935,
0.12638403990024938,-0.003051732012061623,
0.1264339152119701,-0.01296313346806777,
0.12648379052369077,-0.005277452369353645,
0.12653366583541148,-0.024618170869619056,
0.12658354114713216,-0.01711664696295508,
0.12663341645885287,-0.02011395317541833,
0.12668329177057355,-0.004929862058878698,
0.12673316708229426,-0.016509744168240765,
0.12678304239401497,-0.005665101916119509,
0.12683291770573565,-0.026877140874850297,
0.12688279301745636,0.007249495626892638,
0.12693266832917705,0.010907712724954336,
0.12698254364089775,-0.03214561348514931,
0.12703241895261846,0.0016023006105730358,
0.12708229426433915,-0.0030315780789734424,
0.12713216957605986,0.021332173901142313,
0.12718204488778054,0.0009593502745817387,
0.12723192019950125,-0.014106790029039619,
0.12728179551122196,-0.030367746608578793,
0.12733167082294264,-0.015944821571481374,
0.12738154613466335,-0.03302232184089621,
0.12743142144638403,-0.016983041332178966,
0.12748129675810474,0.0005385981609913014,
0.12753117206982545,-0.008975875318259219,
0.12758104738154613,-0.021520306133389747,
0.12763092269326684,0.0019141606031383186,
0.12768079800498752,0.007616989422731665,
0.12773067331670823,-0.007808266185017915,
0.1277805486284289,0.0012576089249179828,
0.12783042394014962,-0.0021681669492024207,
0.12788029925187033,-0.02692142686791068,
0.12793017456359101,0.01356431517004862,
0.12798004987531172,-0.0028219280157994395,
0.1280299251870324,-0.0350628779175954,
0.12807980049875312,-0.010233904026786724,
0.12812967581047383,0.009203862373457475,
0.1281795511221945,0.002424564845584617,
0.12822942643391522,-0.03130755987183841,
0.1282793017456359,-0.004250019033644945,
0.1283291770573566,-0.0023448617566399956,
0.12837905236907732,-0.021408491642754546,
0.128428927680798,-0.014327559050728614,
0.1284788029925187,-0.0063370635013319365,
0.1285286783042394,-0.051884004299493344,
0.1285785536159601,-0.007169614599281629,
0.1286284289276808,0.0034799832856543724,
0.1286783042394015,-0.03228827420364319,
0.1287281795511222,-0.006191076502859751,
0.12877805486284288,-0.0075327208272033715,
0.1288279301745636,-0.04238622534840066,
0.1288778054862843,0.020827874654265957,
0.12892768079800498,0.012943930408647268,
0.1289775561097257,-0.01469494168299074,
0.12902743142144638,-0.02121324423321406,
0.12907730673316709,-0.02714947041625178,
0.12912718204488777,0.025566238245272137,
0.12917705735660848,-0.01879788918776605,
0.1292269326683292,-0.01227727038909367,
0.12927680798004987,0.03600705891419427,
0.12932668329177058,0.02139481830575082,
0.12937655860349126,-0.02250121186259313,
0.12942643391521197,-0.00041141762843418996,
0.12947630922693268,-0.008914064976815522,
0.12952618453865336,-0.008751555623465246,
0.12957605985037407,-0.015656886194726712,
0.12962593516209475,-0.011229971290545215,
0.12967581047381546,-0.02377605677638222,
0.12972568578553617,0.043878113215702244,
0.12977556109725685,-0.004711340276867512,
0.12982543640897756,-0.023396232873914607,
0.12987531172069824,0.004943893960065728,
0.12992518703241895,-0.00888689537235601,
0.12997506234413966,0.002138233168669552,
0.13002493765586035,-0.000769951292439789,
0.13007481296758105,-0.015714177539155206,
0.13012468827930174,-0.01120516707829234,
0.13017456359102245,0.004656105809716007,
0.13022443890274316,0.005854086361691279,
0.13027431421446384,-0.02158631543665636,
0.13032418952618455,-0.03919330370239348,
0.13037406483790523,0.00017213204898029397,
0.13042394014962594,-0.0046024436920901355,
0.13047381546134662,0.010513054007597228,
0.13052369077306733,-0.008650451495386399,
0.13057356608478804,-0.022339674013648024,
0.13062344139650872,0.0021877618960650467,
0.13067331670822943,0.011412189248910468,
0.1307231920199501,0.024111209549863663,
0.13077306733167082,0.029050329507682653,
0.13082294264339153,0.002385951091683571,
0.13087281795511221,-0.015176175913863879,
0.13092269326683292,0.006844542940779342,
0.1309725685785536,-0.016900242140512285,
0.13102244389027431,-0.0027849708866531713,
0.13107231920199502,-0.01040478041913644,
0.1311221945137157,-0.024632009549142103,
0.13117206982543642,0.00011653402244593932,
0.1312219451371571,-0.0035884262615957178,
0.1312718204488778,0.0006032173866356325,
0.13132169576059852,0.023177231417658373,
0.1313715710723192,0.03234217766359849,
0.1314214463840399,-0.011477541502978675,
0.1314713216957606,0.021932639990153737,
0.1315211970074813,0.003981741485778095,
0.13157107231920198,0.016337135201280502,
0.1316209476309227,0.002223855292154713,
0.1316708229426434,-0.0045862097395570805,
0.13172069825436408,0.020174460901749833,
0.1317705735660848,0.027689865808716515,
0.13182044887780547,-0.011632214630522704,
0.13187032418952618,0.03806382689388214,
0.1319201995012469,0.04212731441559529,
0.13197007481296757,0.028726095887814482,
0.13201995012468828,0.010792966584267448,
0.13206982543640897,0.0008633634282502753,
0.13211970074812968,0.007297138017701297,
0.13216957605985039,0.014336085773259106,
0.13221945137157107,-0.03481023213936889,
0.13226932668329178,0.021096494892936295,
0.13231920199501246,0.03508742043590812,
0.13236907730673317,-0.0017070040821587813,
0.13241895261845388,0.006622765319649236,
0.13246882793017456,-0.008689017227531144,
0.13251870324189527,-0.0010546496476760928,
0.13256857855361595,0.0028466805716686958,
0.13261845386533666,-0.0029320363571799096,
0.13266832917705737,0.001206322711059967,
0.13271820448877805,0.02796211095089029,
0.13276807980049876,0.018487953631170263,
0.13281795511221944,0.020431398878308703,
0.13286783042394015,-0.003204102164010368,
0.13291770573566083,0.029851135890754332,
0.13296758104738154,0.024456179748989674,
0.13301745635910225,0.03105463949216642,
0.13306733167082294,0.0076482020780601154,
0.13311720698254365,0.016703846604785334,
0.13316708229426433,0.01337569571768182,
0.13321695760598504,0.01491346235464359,
0.13326683291770575,0.01102425425413318,
0.13331670822942643,0.006842828585085164,
0.13336658354114714,0.024482984135041175,
0.13341645885286782,0.007043496467127768,
0.13346633416458853,0.03190822564907437,
0.13351620947630924,-9.759052973039826e-05,
0.13356608478802992,0.03818360484407324,
0.13361596009975063,0.0034127557442389465,
0.1336658354114713,0.02055197144979507,
0.13371571072319202,0.029382115005081966,
0.13376558603491273,0.03822456820316775,
0.1338154613466334,0.018577937643948595,
0.13386533665835412,0.004748255502380158,
0.1339152119700748,0.008622731839770807,
0.13396508728179551,-0.0011031159173437756,
0.1340149625935162,0.028667593376683884,
0.1340648379052369,0.027602230462739,
0.13411471321695762,0.021456243572683373,
0.1341645885286783,0.02527038549285429,
0.134214463840399,0.02067214698042875,
0.1342643391521197,0.008082956228470379,
0.1343142144638404,0.02457041096065708,
0.1343640897755611,-0.0033578845821671914,
0.1344139650872818,0.02703968287424931,
0.1344638403990025,0.013707510780026471,
0.13451371571072318,0.006085811348917156,
0.1345635910224439,0.04968121502485595,
0.1346134663341646,0.010403373765393378,
0.13466334164588528,0.029363506014624917,
0.134713216957606,0.004442938877016644,
0.13476309226932667,0.05336031681684143,
0.13481296758104738,0.04542398301043174,
0.1348628428927681,0.043037829775504834,
0.13491271820448877,0.01157771112896177,
0.13496259351620948,-0.002418275833968416,
0.13501246882793017,0.014764099065767547,
0.13506234413965088,0.009635222689474539,
0.13511221945137158,0.036831260444610284,
0.13516209476309227,0.01348199053491086,
0.13521197007481298,0.030882311579884525,
0.13526184538653366,0.01831278229452659,
0.13531172069825437,0.024925789548444027,
0.13536159600997505,0.024364098258023645,
0.13541147132169576,0.020088966537925634,
0.13546134663341647,0.01804118712684608,
0.13551122194513715,0.039251763792464874,
0.13556109725685786,0.023524855908350982,
0.13561097256857854,0.05070225290663126,
0.13566084788029925,0.023156896131558278,
0.13571072319201996,0.008415986297724543,
0.13576059850374064,0.024870756739605197,
0.13581047381546135,0.028860379466609812,
0.13586034912718203,0.03232142165719012,
0.13591022443890274,0.013325206731893972,
0.13596009975062345,0.04200414460551535,
0.13600997506234414,0.029328335939307816,
0.13605985037406484,0.05594802377431626,
0.13610972568578553,0.014688606189205944,
0.13615960099750624,0.011929347302555612,
0.13620947630922695,0.0233553713683943,
0.13625935162094763,0.00606921573137079,
0.13630922693266834,0.04673385603644499,
0.13635910224438902,0.018625556254432275,
0.13640897755610973,0.03925287046996635,
0.1364588528678304,0.02522396896752463,
0.13650872817955112,0.003361469921761357,
0.13655860349127183,0.049014003555595764,
0.1366084788029925,0.024730031735223288,
0.13665835411471322,0.04020540687873626,
0.1367082294264339,0.019919267359565188,
0.1367581047381546,0.04735066360886875,
0.13680798004987532,0.017632344980387807,
0.136857855361596,0.003108717936418034,
0.1369077306733167,0.016928926490079592,
0.1369576059850374,0.031945347235103706,
0.1370074812967581,0.02130982042877323,
0.13705735660847881,0.02887350389320781,
0.1371072319201995,0.058207174122161136,
0.1371571072319202,0.022608696039152797,
0.1372069825436409,0.01984989797457263,
0.1372568578553616,0.035090714968522535,
0.1373067331670823,0.02983351787424758,
0.137356608478803,0.013440264894554455,
0.1374064837905237,0.018879898720301692,
0.13745635910224438,0.026260130847457052,
0.1375062344139651,0.02756620285557926,
0.1375561097256858,0.04367307397866794,
0.13760598503740648,0.05603694513292727,
0.1376558603491272,0.0075029769910544344,
0.13770573566084787,0.022470525532574094,
0.13775561097256858,0.05181573224504529,
0.13780548628428926,0.053933469616161925,
0.13785536159600997,0.021911269716004166,
0.13790523690773068,0.011751781852920959,
0.13795511221945136,0.03201261001598949,
0.13800498753117207,0.016301643859316595,
0.13805486284289276,0.05229733895562206,
0.13810473815461347,0.03225832578115565,
0.13815461346633418,0.030249118074428386,
0.13820448877805486,0.01421727739879592,
0.13825436408977557,0.026501463735763783,
0.13830423940149625,0.02179602628619881,
0.13835411471321696,0.016173689682893864,
0.13840399002493767,0.0320500028717039,
0.13845386533665835,0.057220932727458845,
0.13850374064837906,0.03324234606209521,
0.13855361596009974,0.031558030690157064,
0.13860349127182045,0.034821277840319964,
0.13865336658354116,0.03866384287651988,
0.13870324189526184,0.023783123787163483,
0.13875311720698255,0.04518118167853563,
0.13880299251870323,0.051703338047362116,
0.13885286783042394,0.025363920540926545,
0.13890274314214462,0.004537751342093173,
0.13895261845386533,0.05999174130315719,
0.13900249376558604,0.028258193238684892,
0.13905236907730673,0.029913573319884014,
0.13910224438902744,0.02933357906539373,
0.13915211970074812,0.007248410092163347,
0.13920199501246883,0.03556780889256885,
0.13925187032418954,0.011082738486248717,
0.13930174563591022,0.009834976810759594,
0.13935162094763093,0.03160845467492274,
0.1394014962593516,0.0049482039671453135,
0.13945137157107232,0.036173316385431614,
0.13950124688279303,0.01931031606208713,
0.1395511221945137,0.04246654187769919,
0.13960099750623442,0.04756635165182499,
0.1396508728179551,0.04183599511676254,
0.1397007481296758,0.02020031739603645,
0.13975062344139652,0.03268651685929028,
0.1398004987531172,0.024765189732000266,
0.1398503740648379,0.02112003029020874,
0.1399002493765586,0.033878594746484816,
0.1399501246882793,0.0002830807203133036,
0.14,0.04339301048476142,
0.1400498753117207,0.030973849892372153,
0.1400997506234414,0.022433154887708234,
0.1401496259351621,0.012873629082474003,
0.1401995012468828,0.011266717265454727,
0.14024937655860348,0.02114317239729412,
0.1402992518703242,0.017389964286196217,
0.1403491271820449,0.023046962528500428,
0.14039900249376558,0.022529824550298058,
0.1404488778054863,0.033170846710631016,
0.14049875311720697,0.033317693833638334,
0.14054862842892768,0.056099320187866245,
0.1405985037406484,-0.015643200549067877,
0.14064837905236907,0.046666429289688095,
0.14069825436408978,0.024036376585813663,
0.14074812967581046,0.006164022533120133,
0.14079800498753117,0.03544360616248947,
0.14084788029925188,0.038740462271674596,
0.14089775561097256,0.03970050631765,
0.14094763092269327,0.021168333552934338,
0.14099750623441396,0.04590097673526143,
0.14104738154613466,0.016251642161500823,
0.14109725685785537,0.030369211857952112,
0.14114713216957606,0.03277731452841095,
0.14119700748129677,0.034281963922940924,
0.14124688279301745,0.025175867507360967,
0.14129675810473816,0.0273537670154892,
0.14134663341645887,0.03323235141884753,
0.14139650872817955,0.022338569027444917,
