time,amplitude,label
0.0,-0.011234411770308386,
4.987531172069826e-05,-0.029399184194350517,
9.975062344139652e-05,0.006536772963986529,
0.00014962593516209475,0.0005208301695630024,
0.00019950124688279303,-0.02642724589342321,
0.00024937655860349125,0.007550755492459843,
0.0002992518703241895,-0.003467479676765325,
0.00034912718204488776,-0.027221875701291254,
0.00039900249376558606,-0.023190723072010838,
0.0004488778054862843,0.017076969366635858,
0.0004987531172069825,-0.006730258537879968,
0.0005486284289276808,-0.005751740158674655,
0.000598503740648379,-0.026795248817265235,
0.0006483790523690773,-0.008990128254172978,
0.0006982543640897755,-0.015731557617539773,
0.0007481296758104738,-0.012694318316865221,
0.0007980049875311721,-0.01657240117556255,
0.0008478802992518703,0.0059564154178756955,
0.0008977556109725686,-0.03438267756186569,
0.0009476309226932668,-0.03838329430592251,
0.000997506234413965,-0.004518157994587115,
0.0010473815461346633,0.0014106121489522398,
0.0010972568578553616,-0.0046975556429803165,
0.00114713216957606,-0.031004611893210007,
0.001197007481296758,-0.011458501796413828,
0.0012468827930174563,-0.01325756173409735,
0.0012967581047381546,-0.034121675594581256,
0.001346633416458853,-0.013324510920813597,
0.001396508728179551,0.0007173231929904298,
0.0014463840399002493,-0.013978161280749786,
0.0014962593516209476,-0.01973813466513253,
0.001546134663341646,-0.040649853990045066,
0.0015960099750623442,-0.009997302046355676,
0.0016458852867830423,-0.017385533004776833,
0.0016957605985037406,0.019208755438969126,
0.001745635910224439,0.012034783211036584,
0.0017955112219451373,-0.0018443701575880551,
0.0018453865336658353,0.010041412019932097,
0.0018952618453865336,-0.024601831304522828,
0.001945137157107232,0.014969918964628744,
0.00199501246882793,0.0010757265066052473,
0.0020448877805486283,0.021263819110968134,
0.0020947630922693266,-0.0088594233843824,
0.002144638403990025,0.00784891162621561,
0.0021945137157107233,0.009981430977929187,
0.0022443890274314216,-0.010036205193546175,
0.00229426433915212,-0.0006344897078813029,
0.0023441396508728177,-0.005457903891203033,
0.002394014962593516,-0.01865536955104459,
0.0024438902743142144,0.005035085157515897,
0.0024937655860349127,0.0014248218247522705,
0.002543640897755611,0.004511117082322224,
0.0025935162094763093,-0.0010358474156346904,
0.0026433915211970076,0.020699698424819064,
0.002693266832917706,-0.011150025094378953,
0.002743142144638404,-0.024821789182648327,
0.002793017456359102,-0.017256315503655226,
0.0028428927680798004,-0.0030014571172849126,
0.0028927680798004987,-0.00973102464294318,
0.002942643391521197,-0.024394287128232765,
0.0029925187032418953,0.006142696881806281,
0.0030423940149625936,-0.008614852785690347,
0.003092269326683292,-0.0014882551401911067,
0.00314214463840399,0.007621645259316092,
0.0031920199501246885,0.0020935718816488306,
0.0032418952618453864,-0.012938819002993976,
0.0032917705735660847,0.004463134797466021,
0.003341645885286783,-0.03479051333192583,
0.0033915211970074813,-0.009857469787820611,
0.0034413965087281796,0.003772856795833315,
0.003491271820448878,0.03281543639684769,
0.003541147132169576,0.01561179354818324,
0.0035910224438902745,0.02117456632453526,
0.0036408977556109724,-0.0012207286006181081,
0.0036907730673316707,-0.01196970170572956,
0.003740648379052369,0.021498830992435127,
0.0037905236907730673,0.018851016746434753,
0.0038403990024937656,0.010718741371116685,
0.003890274314214464,-0.0001691853342361757,
0.003940149625935162,-0.010660879840481845,
0.00399002493765586,0.014304713232127987,
0.004039900249376558,-0.015461406685358742,
0.004089775561097257,0.039526150480966325,
0.004139650872817955,0.04813551069577863,
0.004189526184538653,0.024169677180720557,
0.004239401496259352,-0.010623430041162282,
0.00428927680798005,0.0031303737691218804,
0.004339152119700748,0.02110907928639726,
0.0043890274314214465,0.029196133030379615,
0.004438902743142145,-0.012782379970399573,
0.004488778054862843,-0.008423719967173605,
0.004538653366583541,0.00513885952116293,
0.00458852867830424,0.013240479637055953,
0.004638403990024938,-0.003806712955816957,
0.0046882793017456355,0.025064599393716892,
0.004738154613466334,0.027153166888811402,
0.004788029925187032,0.0058241945854273025,
0.00483790523690773,-0.009301867609476303,
0.004887780548628429,0.046180813463879866,
0.004937655860349127,-0.0006343581743430207,
0.004987531172069825,0.012265538815130041,
0.005037406483790524,0.008163152239839292,
0.005087281795511222,0.013567885527607737,
0.00513715710723192,0.044833255230087625,
0.0051870324189526185,-0.02713717140581552,
0.005236907730673317,0.010973750662329081,
0.005286783042394015,-0.0020919220014214684,
0.0053366583541147134,0.02513002185415123,
0.005386533665835412,0.020937044577074806,
0.00543640897755611,0.008865068530392504,
0.005486284289276808,0.02294057024790573,
0.005536159600997507,-0.0022582030331615155,
0.005586034912718204,0.0035471126333436725,
0.005635910224438902,0.01995989886319057,
0.005685785536159601,0.019050230612077678,
0.005735660847880299,0.024338458368386294,
0.005785536159600997,0.02476819947588834,
0.005835411471321696,0.005111807213222845,
0.005885286783042394,0.04447751372997277,
0.005935162094763092,-0.00742532054278712,
0.0059850374064837905,0.012878893312704951,
0.006034912718204489,0.03371482509032686,
0.006084788029925187,0.018983921027489414,
0.0061346633416458855,0.010896609619884976,
0.006184538653366584,0.014393199609129805,
0.006234413965087282,0.0026435318334397558,
0.00628428927680798,0.03487858076586826,
0.006334164588528679,0.010430743516485342,
0.006384039900249377,0.013307967108725248,
0.006433915211970074,0.010436318120345806,
0.006483790523690773,0.0033763448050435595,
0.006533665835411471,0.02825736723026146,
0.006583541147132169,-0.0049421106880394375,
0.006633416458852868,-0.0035674263563894477,
0.006683291770573566,0.030210351586511044,
0.006733167082294264,0.009326052086608028,
0.0067830423940149626,0.03353449379011056,
0.006832917705735661,0.008734310992649163,
0.006882793017456359,0.023384370306631187,
0.0069326683291770575,-0.010527425187630259,
0.006982543640897756,0.006396998670958885,
0.007032418952618454,0.046098361662330674,
0.007082294264339152,0.001666927743288523,
0.007132169576059851,0.013384940255062736,
0.007182044887780549,0.021130617686551747,
0.007231920199501247,0.012387348343345737,
0.007281795511221945,0.013631473953409558,
0.007331670822942643,-0.004483661839469459,
0.007381546134663341,0.04896114020300146,
0.00743142144638404,0.04430628059248383,
0.007481296758104738,0.022528211796064044,
0.007531172069825436,0.026639064058334484,
0.007581047381546135,0.042754539194214035,
0.007630922693266833,0.0034249729797065816,
0.007680798004987531,0.016661717462872924,
0.0077306733167082295,0.0039316399262182625,
0.007780548628428928,0.006743133215617612,
0.007830423940149626,0.037251529090513116,
0.007880299251870324,0.04737327831652903,
0.007930174563591023,0.023411331731956336,
0.00798004987531172,0.008751911792730419,
0.00802992518703242,0.03512238829021591,
0.008079800498753117,0.03338728432986521,
0.008129675810473816,0.01923625498681785,
0.008179551122194513,0.020889992916727582,
0.008229426433915213,0.036581002549718876,
0.00827930174563591,0.035343681851803886,
0.00832917705735661,0.05641353108576125,
0.008379052369077307,0.019408311310564544,
0.008428927680798006,0.052580422919217835,
0.008478802992518703,0.029094313930757176,
0.0085286783042394,0.03633218843008428,
0.0085785536159601,0.02140585863854639,
0.008628428927680797,0.011454183014558614,
0.008678304239401496,0.033614812428486275,
0.008728179551122194,0.011494646163390352,
0.008778054862842893,0.03889225887751785,
0.00882793017456359,0.02489760810472351,
0.00887780548628429,0.01931814676251493,
0.008927680798004987,-0.0035755437198822307,
0.008977556109725686,0.011789387091113058,
0.009027431421446384,0.010905317925319197,
0.009077306733167083,0.025936098653395814,
0.00912718204488778,0.009819299463280392,
0.00917705735660848,0.030615968412378673,
0.009226932668329177,0.0174331286929943,
0.009276807980049876,0.0043459409169573394,
0.009326683291770574,0.024167430349013405,
0.009376558603491271,0.051578347581403616,
0.00942643391521197,0.00921597902045533,
0.009476309226932668,0.025621582348228773,
0.009526184538653367,0.007558010072716399,
0.009576059850374064,0.012071711269872977,
0.009625935162094763,0.015852160866644243,
0.00967581047381546,0.01997726109976201,
0.00972568578553616,0.01713447487722846,
0.009775561097256857,0.014985574910701602,
0.009825436408977557,0.01233678232113022,
0.009875311720698254,0.032061027558578724,
0.009925187032418953,0.01967728629871216,
0.00997506234413965,0.006175512171626395,
0.01002493765586035,0.02710988865162759,
0.010074812967581047,0.028172363024109547,
0.010124688279301746,0.012219723091745766,
0.010174563591022444,-0.004499098700205491,
0.010224438902743141,-0.006156798245244916,
0.01027431421446384,0.009833869632494333,
0.010324189526184538,0.011712423363662523,
0.010374064837905237,-0.005917643096762229,
0.010423940149625935,0.03147822828777389,
0.010473815461346634,0.019571533683627976,
0.010523690773067331,-0.003926778970273329,
0.01057356608478803,0.018801347860088337,
0.010623441396508728,0.00180372843794099,
0.010673316708229427,0.027803403523906985,
0.010723192019950124,-0.018741133208889427,
0.010773067331670824,0.02903910135546428,
0.010822942643391521,0.02197366545589579,
0.01087281795511222,-0.004739498347424662,
0.010922693266832918,0.015738709238744486,
0.010972568578553617,0.023125954094924076,
0.011022443890274314,0.044740982182685705,
0.011072319201995013,0.0028743154157430187,
0.01112219451371571,0.030744523439474827,
0.011172069825436408,0.014702336543537696,
0.011221945137157107,-0.020450282519938405,
0.011271820448877805,0.010050947435956829,
0.011321695760598504,0.03113126472903078,
0.011371571072319201,0.0031566468282720264,
0.0114214463840399,-0.007192675439325367,
0.011471321695760598,0.003196972285136185,
0.011521197007481297,-0.008847632948840535,
0.011571072319201995,0.008581007787312939,
0.011620947630922694,0.01784792476642484,
0.011670822942643391,-0.007097097771753529,
0.01172069825436409,0.007765355153526059,
0.011770573566084788,0.009496103448725342,
0.011820448877805487,0.01248186237239498,
0.011870324189526184,0.030148693857162037,
0.011920199501246884,0.00850674020896099,
0.011970074812967581,0.011785233507910688,
0.012019950124688279,0.012528654897282634,
0.012069825436408978,-0.008467822692686238,
0.012119700748129675,0.02293545782169648,
0.012169576059850374,0.0031180777751880365,
0.012219451371571072,0.00017843766876684663,
0.012269326683291771,0.028235845085902142,
0.012319201995012468,0.022038339664132378,
0.012369077306733168,0.013515823236480047,
0.012418952618453865,0.013943221881617316,
0.012468827930174564,0.01120735873547983,
0.012518703241895262,-0.012050644416697228,
0.01256857855361596,0.002779303672728593,
0.012618453865336658,0.009604330140509348,
0.012668329177057357,-0.002136005099606395,
0.012718204488778055,0.0007325933686089768,
0.012768079800498754,-0.012610501277051997,
0.012817955112219451,-0.0007937095056701506,
0.012867830423940149,-0.0003051516567453693,
0.012917705735660848,0.019448863453904227,
0.012967581047381545,0.02208840398959325,
0.013017456359102245,0.003585562477844484,
0.013067331670822942,-0.021558105745959073,
0.013117206982543641,0.003474257528089902,
0.013167082294264339,-0.013188175118341,
0.013216957605985038,-0.033103764296016795,
0.013266832917705735,-0.008650085334267475,
0.013316708229426434,0.010398017094737224,
0.013366583541147132,-0.011343652655064759,
0.013416458852867831,0.015130606015746454,
0.013466334164588529,-0.0057542702988211255,
0.013516209476309228,0.00614666536719621,
0.013566084788029925,-0.0007873731416907933,
0.013615960099750624,-0.016876174709987084,
0.013665835411471322,-0.007530481752367205,
0.01371571072319202,-0.010613083314755006,
0.013765586034912718,0.004756425417345929,
0.013815461346633416,-0.013472501009103905,
0.013865336658354115,-0.030923651829886083,
0.013915211970074812,-0.0057300431754912975,
0.013965087281795512,-0.015797851839241976,
0.014014962593516209,-0.015145688281738404,
0.014064837905236908,0.003865240184157976,
0.014114713216957606,0.010258826884997345,
0.014164588528678305,-0.02365818512642577,
0.014214463840399002,-0.022884832247875492,
0.014264339152119701,-0.0012879950725025414,
0.014314214463840399,-0.018442938396823795,
0.014364089775561098,-0.01696675105496112,
0.014413965087281795,0.012085904066407636,
0.014463840399002495,-0.009117278486822946,
0.014513715710723192,-0.03404789173605369,
0.01456359102244389,-0.018226542614331962,
0.014613466334164589,-0.014171405234195824,
0.014663341645885286,0.0011102286998333714,
0.014713216957605985,-0.01978404267420218,
0.014763092269326683,-0.004386801667019122,
0.014812967581047382,-0.023539178268905614,
0.01486284289276808,0.001080558501555428,
0.014912718204488778,-0.008342170834056233,
0.014962593516209476,0.0011887255554220294,
0.015012468827930175,0.01548617343285464,
0.015062344139650873,-0.01800990050992982,
0.015112219451371572,-0.03270512141017726,
0.01516209476309227,-0.00010315607205890233,
0.015211970074812968,0.01344432124443987,
0.015261845386533666,-0.018635031131401133,
0.015311720698254365,0.004749982171970726,
0.015361596009975062,0.004687337067513323,
0.01541147132169576,-0.00965015994510857,
0.015461346633416459,0.004400058159425202,
0.015511221945137156,-0.028696490009141228,
0.015561097256857856,-0.005539867117690778,
0.015610972568578553,-0.02758508743612175,
0.015660847880299252,0.015781135976465285,
0.01571072319201995,-0.013626037741262996,
0.015760598503740647,-0.014501319478294333,
0.015810473815461346,-0.020893811618913523,
0.015860349127182045,0.0015195299924625448,
0.015910224438902745,-0.04103725153451207,
0.01596009975062344,-0.0014057106688172716,
0.01600997506234414,-0.02201179689130253,
0.01605985037406484,-0.010168601461814015,
0.016109725685785538,-0.01714060743472863,
0.016159600997506234,-0.016614651501196138,
0.016209476309226933,-0.02734746717529906,
0.016259351620947632,-0.02091388687446063,
0.016309226932668328,-0.010839067798571326,
0.016359102244389027,-0.029290023690984712,
0.016408977556109726,-0.027006097140962478,
0.016458852867830425,-0.02609125250925632,
0.01650872817955112,-0.018504123416176972,
0.01655860349127182,-0.008740550578122858,
0.01660847880299252,-0.027025131964695658,
0.01665835411471322,0.00038928980005514813,
0.016708229426433914,-0.020064166725005536,
0.016758104738154613,-0.01002629667346432,
0.016807980049875312,-0.013629614537902625,
0.01685785536159601,-0.0400894232958383,
0.016907730673316707,-0.033109709428256036,
0.016957605985037406,-0.003993157133114576,
0.017007481296758106,-0.0123715375714402,
0.0170573566084788,-0.028191667548742548,
0.0171072319201995,-0.012492390169552366,
0.0171571072319202,-0.02168616011922734,
0.0172069825436409,-0.03624569009461852,
0.017256857855361595,-0.044424480732713226,
0.017306733167082294,0.01411036694696785,
0.017356608478802993,-0.014582662991865733,
0.017406483790523692,-0.03455491254405001,
0.017456359102244388,-0.01620810245321271,
0.017506234413965087,-0.005306373164059722,
0.017556109725685786,0.0035998169544660813,
0.017605985037406485,-0.04248213606368344,
0.01765586034912718,-0.014767725058020716,
0.01770573566084788,-0.013924802857982446,
0.01775561097256858,-0.014019377625002912,
0.01780548628428928,-0.01019978732368404,
0.017855361596009974,0.0010794968831819886,
0.017905236907730673,-0.0459685803135268,
0.017955112219451373,-0.020028723145151882,
0.018004987531172068,-0.0265467161434495,
0.018054862842892767,-0.007496271623268323,
0.018104738154613467,0.00374284453639993,
0.018154613466334166,-0.04246114132539136,
0.01820448877805486,0.02607238913016203,
0.01825436408977556,-0.009240892052085191,
0.01830423940149626,-0.014986595360111894,
0.01835411471321696,-0.014885949973694678,
0.018403990024937655,-0.004248364973949816,
0.018453865336658354,-0.017993308804819603,
0.018503740648379053,-0.03569549493829673,
0.018553615960099752,-0.028812276492266177,
0.018603491271820448,-0.019682303203634063,
0.018653366583541147,-0.011687041147014405,
0.018703241895261846,-0.006155742991737458,
0.018753117206982542,-0.0195684682726829,
0.01880299251870324,-0.009984833851364533,
0.01885286783042394,-0.0281417314831632,
0.01890274314214464,-0.04945757575102653,
0.018952618453865335,-0.014011984584778005,
0.019002493765586034,-0.013074872417483096,
0.019052369077306733,-0.02406306151457271,
0.019102244389027433,-0.011841776296372904,
0.01915211970074813,-0.02679210418380721,
0.019201995012468828,-0.01507731295053287,
0.019251870324189527,-0.014759898505003052,
0.019301745635910226,-0.021925435609437674,
0.01935162094763092,-0.03207260730591973,
0.01940149625935162,-0.010069550790712319,
0.01945137157107232,-0.01333381886770796,
0.01950124688279302,-0.025998495143049603,
0.019551122194513715,-0.016857731859293502,
0.019600997506234414,-0.011729539568166464,
0.019650872817955113,-0.0425299704241371,
0.01970074812967581,-0.010994915624902298,
0.019750623441396508,-0.026061763616300505,
0.019800498753117207,-0.04241310193664447,
0.019850374064837906,-0.03374851533484942,
0.019900249376558602,-0.009377349857422331,
0.0199501246882793,-0.0008841209384297475,
0.02,-0.01089928754157665,
0.0200498753117207,-0.01504845467902353,
0.020099750623441395,-0.010742584616978412,
0.020149625935162094,-0.006055235561522095,
0.020199501246882794,-0.007845870163302269,
0.020249376558603493,-0.012538930175254998,
0.02029925187032419,-0.007723900743584352,
0.020349127182044888,0.002331078310549267,
0.020399002493765587,-0.014761224453645933,
0.020448877805486283,-0.014754532773788,
0.02049875311720698,0.023543771955012498,
0.02054862842892768,-0.02731311352062349,
0.02059850374064838,-0.0032062791281696028,
0.020648379052369076,-0.014439342377072284,
0.020698254364089775,-0.022054409199471606,
0.020748129675810474,-0.000979600716176027,
0.020798004987531173,-0.03440447058357588,
0.02084788029925187,-0.02532300317826891,
0.020897755610972568,-0.015466459550467018,
0.020947630922693267,-0.014958375755433441,
0.020997506234413967,-0.012011755038313558,
0.021047381546134662,-0.017569837335985782,
0.02109725685785536,-0.03612304636398089,
0.02114713216957606,-0.019058269621709454,
0.02119700748129676,-0.003526280948223808,
0.021246882793017455,-0.01516222722311979,
0.021296758104738155,0.03208468575893551,
0.021346633416458854,-0.014623510613312737,
0.02139650872817955,-0.009283296409314195,
0.02144638403990025,0.015808922774195922,
0.021496259351620948,-0.016983575577497946,
0.021546134663341647,0.01842560938185451,
0.021596009975062343,-0.013440509133872906,
0.021645885286783042,0.009833203336064916,
0.02169576059850374,-0.028481086590251725,
0.02174563591022444,-0.01677321107393035,
0.021795511221945136,0.007227453423725928,
0.021845386533665835,-0.008815912501330871,
0.021895261845386534,0.008631337525666619,
0.021945137157107233,-0.022955031242310457,
0.02199501246882793,-0.003775163119442121,
0.02204488778054863,-0.000766428468876076,
0.022094763092269327,-0.010877793481613496,
0.022144638403990027,0.007979390973384598,
0.022194513715710722,-0.022921611171105066,
0.02224438902743142,0.01208324278646107,
0.02229426433915212,-0.015624009564784625,
0.022344139650872816,-0.018640258057029596,
0.022394014962593516,-0.000794172419749629,
0.022443890274314215,-0.019421488383847052,
0.022493765586034914,0.01241278036556414,
0.02254364089775561,-0.008315480650678584,
0.02259351620947631,0.013687684007197833,
0.022643391521197008,-0.024631569974861198,
0.022693266832917707,-0.007732055604630282,
0.022743142144638403,0.0016271458771829003,
0.022793017456359102,0.0012875180275017484,
0.0228428927680798,-0.020921716858600004,
0.0228927680798005,-0.011305469669964227,
0.022942643391521196,0.015468117188363412,
0.022992518703241895,-0.0024290142205921324,
0.023042394014962594,0.017438588793932536,
0.02309226932668329,0.013001643855723131,
0.02314214463840399,0.00904857887465596,
0.02319201995012469,-0.00596684604114382,
0.023241895261845388,0.007057158268225255,
0.023291770573566083,0.006509384913443933,
0.023341645885286783,0.002012207752987813,
0.02339152119700748,0.005794054863551721,
0.02344139650872818,-0.00905735472719251,
0.023491271820448877,0.011878819419568053,
0.023541147132169576,-0.02170628429145815,
0.023591022443890275,-0.016694033748063233,
0.023640897755610974,-0.029294861402595376,
0.02369077306733167,0.008743713393564051,
0.02374064837905237,0.006444427275504365,
0.023790523690773068,0.019212290901617513,
0.023840399002493767,-0.0161741152978664,
0.023890274314214463,-5.115133923745945e-05,
0.023940149625935162,0.009095627331148786,
0.02399002493765586,-0.0029146402443978887,
0.024039900249376557,-0.014044478213580572,
0.024089775561097256,0.015393045683428653,
0.024139650872817955,-0.0018076421540468707,
0.024189526184538655,0.022932643054496833,
0.02423940149625935,0.003302665218905679,
0.02428927680798005,-0.0014210810873186916,
0.02433915211970075,0.027066644541936163,
0.024389027431421448,0.00449961524920686,
0.024438902743142144,0.004158376499361146,
0.024488778054862843,0.02775061661300976,
0.024538653366583542,0.0130735758695613,
0.02458852867830424,0.01468032963121959,
0.024638403990024937,-0.011890331168216205,
0.024688279301745636,0.005058643127135927,
0.024738154613466335,0.021492941454138794,
0.02478802992518703,0.015831038871986208,
0.02483790523690773,0.02246636507047807,
0.02488778054862843,0.01798555129763032,
0.02493765586034913,0.004964946481906693,
0.024987531172069824,-0.01361804071796634,
0.025037406483790523,0.021028376428644573,
0.025087281795511222,0.01671562684828633,
0.02513715710723192,0.004919150681246948,
0.025187032418952617,0.0225908464511357,
0.025236907730673316,0.016514267645998934,
0.025286783042394016,-0.0037654464095124,
0.025336658354114715,0.006297744917988266,
0.02538653366583541,0.02097117917254248,
0.02543640897755611,0.001132716253756912,
0.02548628428927681,0.026156438239525237,
0.025536159600997508,0.00968441771388959,
0.025586034912718204,0.010974628423636772,
0.025635910224438903,0.012642678108519236,
0.025685785536159602,0.01921266967597527,
0.025735660847880298,0.037676439150222826,
0.025785536159600997,0.00730841485151788,
0.025835411471321696,0.01965294169020165,
0.025885286783042395,0.015553338813567963,
0.02593516209476309,0.03411316438195204,
0.02598503740648379,-0.00793651699617811,
0.02603491271820449,0.04926372952589694,
0.02608478802992519,0.013455477992191451,
0.026134663341645884,0.018021983917284982,
0.026184538653366583,0.006995839769889234,
0.026234413965087282,0.028093749092427782,
0.02628428927680798,0.010174046402616013,
0.026334164588528677,0.024445393525195157,
0.026384039900249377,0.007619594348068677,
0.026433915211970076,0.005927087899803861,
0.02648379052369077,0.004791309999682572,
0.02653366583541147,0.007391133269923992,
0.02658354114713217,0.014448544311698553,
0.02663341645885287,0.04556720580949227,
0.026683291770573565,0.003442970312484358,
0.026733167082294264,0.04328073042398034,
0.026783042394014963,0.011005782212907829,
0.026832917705735662,0.008889141078168315,
0.026882793017456358,0.025948045058974925,
0.026932668329177057,0.010176186716059424,
0.026982543640897756,0.0087249929137199,
0.027032418952618455,0.019558708135670518,
0.02708229426433915,0.019298612171939438,
0.02713216957605985,0.022312642458177965,
0.02718204488778055,0.03684866164685563,
0.02723192019950125,0.020966457882987396,
0.027281795511221944,0.03507213386702382,
0.027331670822942643,0.01868493220853892,
0.027381546134663343,0.02616417638645643,
0.02743142144638404,0.015503263332284233,
0.027481296758104738,0.01371631255179306,
0.027531172069825437,0.0042232624261725644,
0.027581047381546136,0.010747500920575153,
0.02763092269326683,0.009497502971479825,
0.02768079800498753,0.007271268682418544,
0.02773067331670823,-0.010647813866667095,
0.02778054862842893,0.034396294870843384,
0.027830423940149625,0.033157174133443504,
0.027880299251870324,0.030812697357486867,
0.027930174563591023,0.01358290495206512,
0.027980049875311722,0.030575301604849475,
0.028029925187032418,0.027992210446009184,
0.028079800498753117,0.0370510994608753,
0.028129675810473816,0.008242366306933925,
0.028179551122194512,0.010053959855065788,
0.02822942643391521,0.028193025801972804,
0.02827930174563591,0.000774072792494012,
0.02832917705735661,0.02587862211978813,
0.028379052369077305,0.01732622637112558,
0.028428927680798004,0.04022510417319079,
0.028478802992518704,0.006365949620428855,
0.028528678304239403,0.027715941221595257,
0.0285785536159601,0.04294945455828499,
0.028628428927680798,0.011031346929752939,
0.028678304239401497,0.026105872436744733,
0.028728179551122196,0.037636556718612914,
0.02877805486284289,0.04850841281239276,
0.02882793017456359,0.012244141981021417,
0.02887780548628429,0.013555026756039402,
0.02892768079800499,0.036067808390925674,
0.028977556109725685,0.026671922674953177,
0.029027431421446384,0.006631425586854929,
0.029077306733167083,0.007873316021306639,
0.02912718204488778,0.022667038472080164,
0.029177057356608478,0.018066940059099708,
0.029226932668329177,0.038399876465273465,
0.029276807980049877,0.023023009933602144,
0.029326683291770572,0.009998859699563312,
0.02937655860349127,0.023851463042124984,
0.02942643391521197,0.025414299984639413,
0.02947630922693267,0.014717289781620754,
0.029526184538653365,0.0023975091479810293,
0.029576059850374065,0.028034317268015457,
0.029625935162094764,0.007787660355035012,
0.029675810473815463,0.018234182605816,
0.02972568578553616,-0.0015079644266390302,
0.029775561097256858,0.024484369902739046,
0.029825436408977557,0.018125456718829477,
0.029875311720698253,0.02802475298758687,
0.029925187032418952,0.009157953270629663,
0.02997506234413965,0.03813121965566428,
0.03002493765586035,0.010126817195021134,
0.030074812967581046,0.02303972872397382,
0.030124688279301745,0.035706116595687495,
0.030174563591022444,0.003140897528066379,
0.030224438902743143,0.01620584904681311,
0.03027431421446384,0.02928817172090542,
0.03032418952618454,0.040664701409408616,
0.030374064837905237,0.0055779978234157725,
0.030423940149625937,-0.012373974483290088,
0.030473815461346632,0.005857186710355112,
0.03052369077306733,0.042235848930618214,
0.03057356608478803,0.03648792020686527,
0.03062344139650873,-0.006520089249389929,
0.030673316708229426,0.0038422764390242236,
0.030723192019950125,0.011417461821386516,
0.030773067331670824,0.00401881327208606,
0.03082294264339152,0.026957693582909878,
0.03087281795511222,0.025033824720491316,
0.030922693266832918,0.010191478900963207,
0.030972568578553617,0.016780635352129737,
0.031022443890274313,0.02058219111234318,
0.031072319201995012,0.018556244179965806,
0.03112219451371571,0.00634386458291225,
0.03117206982543641,0.017048103939917774,
0.031221945137157106,-0.009672871199185251,
0.03127182044887781,0.011812241573695113,
0.031321695760598504,0.020717493049375518,
0.0313715710723192,-0.005007631155044923,
0.0314214463840399,0.025764998303932647,
0.0314713216957606,0.0007737131094849702,
0.031521197007481294,0.0009810163455511688,
0.031571072319202,0.012831129278844578,
0.03162094763092269,0.009215203002226642,
0.03167082294264339,-0.005590653472369854,
0.03172069825436409,0.004435766905530715,
0.03177057356608479,0.01539936468939172,
0.03182044887780549,-0.007220036425979808,
0.031870324189526185,0.010412379871800133,
0.03192019950124688,0.009912230648267122,
0.03197007481296758,0.010424196052460236,
0.03201995012468828,0.0016114796698294739,
0.032069825436408975,0.01775613307286911,
0.03211970074812968,0.01613870953816974,
0.03216957605985037,0.027710994975736578,
0.032219451371571076,-0.005271859097756134,
0.03226932668329177,0.0011390956078607536,
0.03231920199501247,-0.0040413698541244825,
0.03236907730673317,0.0004397112580973991,
0.032418952618453865,-0.015115907067488686,
0.03246882793017456,0.028989225915500863,
0.032518703241895264,0.009692828142786183,
0.03256857855361596,-0.019135063827296964,
0.032618453865336655,0.003468078912138424,
0.03266832917705736,0.013521313015493468,
0.032718204488778053,-0.013381352122361849,
0.032768079800498756,-0.0034635172406731235,
0.03281795511221945,-0.010564963391460616,
0.03286783042394015,0.001011896102918416,
0.03291770573566085,0.00733523028662199,
0.032967581047381546,0.01726223401725686,
0.03301745635910224,0.010471525045082846,
0.033067331670822944,0.02239905139794355,
0.03311720698254364,-0.013195539514888778,
0.03316708229426434,0.01787444211304308,
0.03321695760598504,0.021680937145900095,
0.033266832917705734,-0.011022506665328615,
0.03331670822942644,0.02576333112310432,
0.03336658354114713,0.01249185389886353,
0.03341645885286783,-0.008358396632258566,
0.03346633416458853,-0.002728003265978656,
0.033516209476309226,0.012710816108433588,
0.03356608478802992,-0.00582205403137182,
0.033615960099750625,0.0014213153203153496,
0.03366583541147132,-0.021432757531923696,
0.03371571072319202,-0.00835950130828195,
0.03376558603491272,-0.006635665865589499,
0.033815461346633414,-0.014357873513153228,
0.03386533665835412,0.004716752266992724,
0.03391521197007481,-0.008131876240684982,
0.03396508728179551,0.01809512037426786,
0.03401496259351621,0.011112216687324596,
0.03406483790523691,0.02105613866280755,
0.0341147132169576,0.005950563584025964,
0.034164588528678305,0.012737830477719519,
0.034214463840399,-0.003151850443211708,
0.034264339152119704,-0.001805106029551628,
0.0343142144638404,0.03382211252219324,
0.034364089775561095,0.0062117918951207374,
0.0344139650872818,0.007553660516914162,
0.03446384039900249,0.0058836904034721875,
0.03451371571072319,0.0032012643424553597,
0.03456359102244389,0.018776908810273305,
0.03461346633416459,-0.017438557036931267,
0.03466334164588529,0.0004810362302685757,
0.034713216957605986,-0.018963741181387328,
0.03476309226932668,-0.026896366305541746,
0.034812967581047384,-0.007792996949115266,
0.03486284289276808,-0.02648815214780766,
0.034912718204488775,0.0058576080967927425,
0.03496259351620948,-0.007093877620878141,
0.035012468827930174,-0.0021649328952795957,
0.03506234413965087,-0.003534405447424241,
0.03511221945137157,-0.016036948567251817,
0.03516209476309227,0.0005050534525541887,
0.03521197007481297,-0.019184532730603308,
0.035261845386533666,-0.006410208571115592,
0.03531172069825436,-0.008753731596758366,
0.035361596009975065,-0.02654115414498376,
0.03541147132169576,-0.006361077018376614,
0.035461346633416456,-0.022148836681204043,
0.03551122194513716,0.02206405507417487,
0.035561097256857854,-0.005971435080353393,
0.03561097256857856,-0.0003347281168750299,
0.03566084788029925,-0.05165229251136169,
0.03571072319201995,-0.03998170126425446,
0.03576059850374065,-0.012653473454742598,
0.03581047381546135,-0.01897018059820121,
0.03586034912718204,-0.0035837693629689384,
0.035910224438902745,-0.005512193738061909,
0.03596009975062344,-0.013083246347102222,
0.036009975062344136,0.002393599516312638,
0.03605985037406484,-0.009444246876879005,
0.036109725685785535,-0.007126203434268241,
0.03615960099750624,-0.009518721443510948,
0.03620947630922693,0.008602487492273408,
0.03625935162094763,0.015279629821180736,
0.03630922693266833,0.013312963380171888,
0.03635910224438903,0.00010042775253684029,
0.03640897755610972,0.004013053847566575,
0.036458852867830426,-0.013033850768953904,
0.03650872817955112,-0.01051215500528805,
0.036558603491271824,-0.018456009193307452,
0.03660847880299252,-0.03144972347401971,
0.036658354114713215,-0.014023813662183627,
0.03670822942643392,-0.010237565624264295,
0.036758104738154614,-0.017688384379494798,
0.03680798004987531,-0.037527659003264796,
0.03685785536159601,0.009122470348936467,
0.03690773067331671,-0.006008552021538587,
0.0369576059850374,-0.014987375787156889,
0.037007481296758106,-0.026149557717966947,
0.0370573566084788,-0.026452317972624376,
0.037107231920199504,0.0022437762255032995,
0.0371571072319202,-0.016898887737708784,
0.037206982543640896,-0.014559959309070933,
0.0372568578553616,-0.04584126111434271,
0.037306733167082294,-0.005207698833728765,
0.03735660847880299,-0.020530958885067688,
0.03740648379052369,-0.033835035427501575,
0.03745635910224439,-0.011676173491923684,
0.037506234413965084,-0.009765585412937754,
0.037556109725685786,-0.0072957689211555835,
0.03760598503740648,-0.0005717128086062083,
0.037655860349127185,-0.01626398282678178,
0.03770573566084788,-0.01220566609825614,
0.037755610972568576,-0.006691836351424195,
0.03780548628428928,-0.004825583502029588,
0.037855361596009975,0.0029506668506621148,
0.03790523690773067,-0.019346197393963177,
0.03795511221945137,0.007286588713277739,
0.03800498753117207,0.004789943535128138,
0.03805486284289277,-0.0049292138648013625,
0.03810473815461347,-0.029101051573816535,
0.03815461346633416,-0.00297526492561463,
0.038204488778054865,-0.0338610714023565,
0.03825436408977556,-0.037986012495790686,
0.03830423940149626,-0.03758936209990758,
0.03835411471321696,-0.013592585170748388,
0.038403990024937655,-0.019396810476681462,
0.03845386533665835,-0.02509275997129172,
0.03850374064837905,-0.0008152979280608534,
0.03855361596009975,-0.02645279445450331,
0.03860349127182045,-0.01262762350355782,
0.03865336658354115,-0.028037018377710804,
0.03870324189526184,-0.006437491432816899,
0.038753117206982546,-0.003233041134538381,
0.03880299251870324,0.01620683408418725,
0.03885286783042394,0.00457590998729538,
0.03890274314214464,-0.036112988763258816,
0.038952618453865336,-0.021946101690144573,
0.03900249376558604,-0.009865966699706312,
0.039052369077306734,-0.021274875261114733,
0.03910224438902743,-0.02108545170070686,
0.03915211970074813,-0.02590952652395283,
0.03920199501246883,0.014837243743386899,
0.039251870324189524,-0.031250421213910896,
0.039301745635910226,-0.041320338606379875,
0.03935162094763092,-0.017383864014405746,
0.03940149625935162,0.017814239084874263,
0.03945137157107232,-0.002235966296174634,
0.039501246882793016,0.00854370325417378,
0.03955112219451372,-0.01139166585790089,
0.039600997506234414,-0.018522468060471815,
0.03965087281795511,0.0024763997263089668,
0.03970074812967581,-0.02766647082917386,
0.03975062344139651,0.005408992886624756,
0.039800498753117204,-0.007046794584147328,
0.03985037406483791,-0.013185980586277136,
0.0399002493765586,0.006636046193852035,
0.039950124688279305,-0.026380896142953577,
0.04,-0.0021983619887464972,
0.0400498753117207,-0.0292882478916539,
0.0400997506234414,-0.010252350108400268,
0.040149625935162095,-0.014754433860456374,
0.04019950124688279,-0.01543291186688247,
0.04024937655860349,-0.02681915403991951,
0.04029925187032419,-0.01955069074759787,
0.040349127182044885,0.007426912021782788,
0.04039900249376559,-0.01164226821974778,
0.04044887780548628,-0.033492976262685235,
0.040498753117206986,-0.016150035695991417,
0.04054862842892768,0.005064646379842799,
0.04059850374064838,-0.021962747751559472,
0.04064837905236908,0.0021817730155884903,
0.040698254364089775,0.0002831361494636808,
0.04074812967581047,-0.012786775553697905,
0.040798004987531174,-0.013426343618140345,
0.04084788029925187,-0.006700111907736859,
0.040897755610972565,0.0031007302203579484,
0.04094763092269327,-0.029348775697421083,
0.04099750623441396,-0.023767804199095754,
0.041047381546134666,-0.006962142942423211,
0.04109725685785536,-0.009732664935823587,
0.04114713216957606,0.01430923928904632,
0.04119700748129676,-0.02276827968173927,
0.041246882793017456,-0.009426546016409906,
0.04129675810473815,0.011635955341116545,
0.041346633416458854,-0.01406255650723813,
0.04139650872817955,-0.020981907914246027,
0.04144638403990025,0.0005662933639279883,
0.04149625935162095,0.004300327286407356,
0.041546134663341644,0.0069065289937874546,
0.04159600997506235,0.002828727259758121,
0.04164588528678304,-0.006160163210099452,
0.04169576059850374,-0.001659353998233826,
0.04174563591022444,-0.019120957373216185,
0.041795511221945136,0.01868682306335088,
0.04184538653366583,-0.004745265597255954,
0.041895261845386535,0.0018930722546385212,
0.04194513715710723,-0.02226212104236935,
0.04199501246882793,-0.008477948996135062,
0.04204488778054863,-0.02047201242767695,
0.042094763092269324,-0.015732865482085696,
0.04214463840399003,-0.0028209702757934964,
0.04219451371571072,0.010070809925859093,
0.04224438902743142,-0.0017304312931901624,
0.04229426433915212,-0.007611423745532611,
0.04234413965087282,-0.012723750320184003,
0.04239401496259352,-0.01991406014266071,
0.042443890274314215,0.00645052243965499,
0.04249376558603491,-0.012502588443591145,
0.042543640897755614,0.00962146118784583,
0.04259351620947631,0.026624563181966127,
0.042643391521197005,0.003873697581101721,
0.04269326683291771,-0.015256791397448378,
0.0427431421446384,-0.03229859689474114,
0.0427930174563591,0.00013428348979132232,
0.0428428927680798,-0.017712891954507554,
0.0428927680798005,0.012711965888161599,
0.0429426433915212,-0.04156652209469775,
0.042992518703241896,0.005114196970624769,
0.04304239401496259,-0.006137726151456083,
0.043092269326683294,-0.020349203331135303,
0.04314214463840399,-0.013322504953376866,
0.043192019950124685,0.0048917165089884555,
0.04324189526184539,0.0048124127292065895,
0.043291770573566084,0.01329532835416838,
0.043341645885286786,0.010599936329349725,
0.04339152119700748,0.01702175694843245,
0.04344139650872818,-0.008105481938227134,
0.04349127182044888,0.017071525641460174,
0.043541147132169576,-0.022469478145592837,
0.04359102244389027,-0.018130291105594123,
0.043640897755610975,0.020809912841542065,
0.04369077306733167,0.04920118706361028,
0.043740648379052366,0.01678076024307283,
0.04379052369077307,0.010352855588272694,
0.043840399002493764,-0.016351388467616294,
0.04389027431421447,0.019290216662055586,
0.04394014962593516,0.015408647086463528,
0.04399002493765586,0.03101098964132569,
0.04403990024937656,0.024989735348162068,
0.04408977556109726,-0.014073192412411383,
0.04413965087281795,0.027211398983128864,
0.044189526184538655,0.016523959467038985,
0.04423940149625935,-0.0036135382634485975,
0.04428927680798005,-0.016728502431123827,
0.04433915211970075,0.004312408609043231,
0.044389027431421445,0.020501760234042397,
0.04443890274314215,-0.00022274163636591508,
0.04448877805486284,0.012906994418445839,
0.04453865336658354,0.019249093147497107,
0.04458852867830424,0.0059497391364095875,
0.04463840399002494,0.01595373217054491,
0.04468827930174563,-0.003921837360785125,
0.044738154613466335,0.026008513795916087,
0.04478802992518703,0.01950585015206683,
0.044837905236907734,0.04436163404634068,
0.04488778054862843,0.029534502664053764,
0.044937655860349125,0.02716732356892444,
0.04498753117206983,0.00946545904547692,
0.045037406483790524,0.009979983578741932,
0.04508728179551122,0.0120050478403966,
0.04513715710723192,0.017924617874022778,
0.04518703241895262,-0.003364729716196266,
0.04523690773067331,0.03994594614878142,
0.045286783042394016,0.03268010526306793,
0.04533665835411471,0.03702826999341842,
0.045386533665835414,0.015606836037554766,
0.04543640897755611,0.01537282339101544,
0.045486284289276806,0.03116354437519131,
0.04553615960099751,0.03933637378593676,
0.045586034912718204,0.034264427192203475,
0.0456359102244389,0.023640364203057575,
0.0456857855361596,0.023567380696002872,
0.0457356608478803,0.07091264657078439,
0.045785536159601,0.0064065819591919496,
0.045835411471321696,0.029223694507876645,
0.04588528678304239,0.01777436093135165,
0.045935162094763095,0.03312218744690111,
0.04598503740648379,0.030051453190448635,
0.046034912718204486,0.02246198719672977,
0.04608478802992519,0.019311242078401493,
0.046134663341645885,0.03436932588585893,
0.04618453865336658,-0.005019379169817588,
0.04623441396508728,0.04058898397409878,
0.04628428927680798,0.007826103325284878,
0.04633416458852868,0.022024053544669783,
0.04638403990024938,-0.0032904563634193196,
0.04643391521197007,0.018428395942825877,
0.046483790523690775,0.02836515886157477,
0.04653366583541147,0.008116903512888792,
0.04658354114713217,0.0038614001799012823,
0.04663341645885287,0.04616823846471263,
0.046683291770573565,0.024736105730489476,
0.04673316708229427,0.0017349174034170974,
0.04678304239401496,0.01807599907983436,
0.04683291770573566,0.0031992488198687337,
0.04688279301745636,0.012360388595704394,
0.04693266832917706,0.026419326204358797,
0.04698254364089775,0.030815454890277122,
0.047032418952618456,0.04204057092707826,
0.04708229426433915,3.209568041590005e-06,
0.04713216957605985,0.026203858153591907,
0.04718204488778055,0.03796017500762012,
0.047231920199501246,0.02099597276312591,
0.04728179551122195,0.027863759782874437,
0.047331670822942644,-0.0033427072834286663,
0.04738154613466334,0.04243536595199246,
0.04743142144638404,0.017999432119860423,
0.04748129675810474,-0.014726417213078304,
0.047531172069825434,0.007604262674481985,
0.047581047381546136,0.037234571611416696,
0.04763092269326683,0.020857191199419832,
0.047680798004987535,0.013908640781292149,
0.04773067331670823,0.027765812238059646,
0.047780548628428926,0.026794660829938737,
0.04783042394014963,0.024320327656118877,
0.047880299251870324,0.023230974019029554,
0.04793017456359102,0.024401228140608952,
0.04798004987531172,0.029470579141361454,
0.04802992518703242,0.0034230995909668924,
0.048079800498753114,0.022695419786124677,
0.04812967581047382,0.019443302827811933,
0.04817955112219451,0.02600162133045306,
0.048229426433915215,0.03441020238019646,
0.04827930174563591,0.0334672488313615,
0.048329177057356607,0.023226815240323148,
0.04837905236907731,0.019877902752423633,
0.048428927680798005,0.012518054989683502,
0.0484788029925187,0.017534268782907446,
0.0485286783042394,0.02465519127609757,
0.0485785536159601,0.013579823776082868,
0.048628428927680795,0.016726903398838297,
0.0486783042394015,0.054927547268137054,
0.04872817955112219,0.011952379567944487,
0.048778054862842896,0.0296526880237619,
0.04882793017456359,0.05020012832924488,
0.04887780548628429,0.0015540092737658037,
0.04892768079800499,0.035799229734385624,
0.048977556109725685,0.03195827670618598,
0.04902743142144638,0.02256424972344936,
0.049077306733167084,0.014045334606020372,
0.04912718204488778,0.018163497068521224,
0.04917705735660848,0.02164123889375097,
0.04922693266832918,0.014389649957383586,
0.04927680798004987,0.02677985794523918,
0.049326683291770576,0.021139758321569346,
0.04937655860349127,0.004003564730871684,
0.04942643391521197,0.046079099713981476,
0.04947630922693267,0.013096480862928956,
0.049526184538653366,0.028053337145201793,
0.04957605985037406,0.022610047781377703,
0.049625935162094764,0.04099873941771732,
0.04967581047381546,0.021255816404625434,
0.04972568578553616,0.039619852114972376,
0.04977556109725686,-0.004052082009078473,
0.049825436408977554,0.015454816199074635,
0.04987531172069826,0.026378519818246644,
0.04992518703241895,0.005669911332910237,
0.04997506234413965,0.018840195620876226,
0.05002493765586035,0.05220846454725066,
0.050074812967581046,0.04460302021575592,
0.05012468827930175,0.01544561859356095,
0.050174563591022445,0.048298581122139916,
0.05022443890274314,0.017175280168866706,
0.05027431421446384,0.006755686321416252,
0.05032418952618454,0.024248798118801256,
0.050374064837905234,0.015547825192536308,
0.05042394014962594,0.007660334993954845,
0.05047381546134663,0.0073495249270588495,
0.05052369077306733,0.004809133994297995,
0.05057356608478803,0.021798869279871125,
0.05062344139650873,-0.01495485609594831,
0.05067331670822943,0.020545501639196734,
0.050723192019950125,0.010870901467362514,
0.05077306733167082,0.025970058739976667,
0.050822942643391524,0.031664432349395324,
0.05087281795511222,0.027153906471040226,
0.050922693266832915,0.0009783210343315904,
0.05097256857855362,0.016276538432469834,
0.05102244389027431,0.015352396402390705,
0.051072319201995016,0.027320041705010466,
0.05112219451371571,0.0348254579526642,
0.05117206982543641,0.021170144813483914,
0.05122194513715711,0.04094429959455435,
0.051271820448877806,0.0296017593720985,
0.0513216957605985,0.02646819586530101,
0.051371571072319204,0.01443789723159037,
0.0514214463840399,0.006363019249800947,
0.051471321695760595,0.01667963805755114,
0.0515211970074813,0.0035509302485066483,
0.051571072319201994,-0.0047454745475331035,
0.051620947630922696,0.017178894965805006,
0.05167082294264339,0.011622846601847927,
0.05172069825436409,0.018997359355830003,
0.05177057356608479,0.02991552314232094,
0.051820448877805486,0.026879306636028055,
0.05187032418952618,0.005498584281828214,
0.051920199501246884,-0.015734652288602078,
0.05197007481296758,-0.010750704077482546,
0.052019950124688276,-0.006214595861993414,
0.05206982543640898,0.012257882108916103,
0.052119700748129674,-0.012949637309522423,
0.05216957605985038,0.020775510309209898,
0.05221945137157107,-0.007763456379220872,
0.05226932668329177,-0.02219292440020714,
0.05231920199501247,-0.0047918830855365295,
0.05236907730673317,-0.015830621454690316,
0.05241895261845386,0.0012084722244622868,
0.052468827930174565,-0.0001736650716248492,
0.05251870324189526,-0.000910250088884337,
0.05256857855361596,-0.0020113088573599615,
0.05261845386533666,-0.009834582471484287,
0.052668329177057355,0.0027058147713638907,
0.05271820448877806,-0.022472432469724204,
0.05276807980049875,0.005488013324808234,
0.05281795511221945,0.02830305861010457,
0.05286783042394015,-0.012522087220947123,
0.05291770573566085,-0.002648882547933864,
0.05296758104738154,0.04371887289872621,
0.053017456359102245,0.012598080049754422,
0.05306733167082294,-0.013166311533164922,
0.053117206982543644,0.03974521075467672,
0.05316708229426434,0.021723701704564558,
0.053216957605985035,-0.004864135123013606,
0.05326683291770574,0.028446245090726067,
0.053316708229426434,-0.000624027465007517,
0.05336658354114713,-0.02188231057709218,
0.05341645885286783,0.01978058617791553,
0.05346633416458853,-0.017185499819526485,
0.05351620947630923,0.016214309325720863,
0.053566084788029926,-0.017166183480004052,
0.05361596009975062,-0.011551844475654011,
0.053665835411471324,0.013107794225604676,
0.05371571072319202,-0.031714362949092564,
0.053765586034912716,-0.014579585524827614,
0.05381546134663342,0.0007689502212681575,
0.053865336658354114,-0.01714977924902185,
0.05391521197007481,-0.005574351262175967,
0.05396508728179551,-0.004312096645154926,
0.05401496259351621,-0.013519450655965383,
0.05406483790523691,-0.027712186775885703,
0.054114713216957606,0.005153717313403116,
0.0541645885286783,0.0018468910237842426,
0.054214463840399005,0.00855177992882649,
0.0542643391521197,0.00546969326024099,
0.054314214463840396,-0.020109475628960517,
0.0543640897755611,-0.016682010057776038,
0.054413965087281795,-0.008013923690872568,
0.0544638403990025,-0.030413365054057714,
0.05451371571072319,-0.03461739772151611,
0.05456359102244389,0.00875029129945213,
0.05461346633416459,-0.003133159308838233,
0.05466334164588529,-0.01832904167910186,
0.05471321695760598,-0.0034087261284921023,
0.054763092269326685,0.004510579291568543,
0.05481296758104738,0.0035296796850108423,
0.05486284289276808,-0.0012826973849556014,
0.05491271820448878,0.011141499961080626,
0.054962593516209475,-0.012248414919668932,
0.05501246882793018,-0.015382376975973451,
0.05506234413965087,-0.02480887065125849,
0.05511221945137157,0.017097996564707826,
0.05516209476309227,-0.00899800714647874,
0.05521197007481297,0.019727741861221525,
0.05526184538653366,-0.005265067223661832,
0.055311720698254366,-0.020819765259050223,
0.05536159600997506,-0.02375841275394682,
0.05541147132169576,0.0006045094741458645,
0.05546134663341646,-0.013826803040797477,
0.055511221945137156,-0.0010317342446423215,
0.05556109725685786,-0.0018393379073791943,
0.055610972568578554,-0.007935187248714759,
0.05566084788029925,-0.00011658123360205365,
0.05571072319201995,-0.02723062264836517,
0.05576059850374065,-0.008507352714992313,
0.055810473815461344,0.009409285277720211,
0.055860349127182046,-0.007993175015321888,
0.05591022443890274,-0.03109142052217427,
0.055960099750623445,-0.021810843403699737,
0.05600997506234414,-0.020676870142089365,
0.056059850374064836,-0.012082354074712774,
0.05610972568578554,-0.011863325210395665,
0.056159600997506234,0.002337842414334339,
0.05620947630922693,0.0012579335155419782,
0.05625935162094763,-0.00020550830553806194,
0.05630922693266833,0.017769389094114182,
0.056359102244389024,0.015443998595634183,
0.05640897755610973,-0.011096009172869584,
0.05645885286783042,-0.029657207173727305,
0.056508728179551125,-0.020348719063802055,
0.05655860349127182,0.0011632738122398009,
0.056608478802992516,-0.002644273351989735,
0.05665835411471322,0.016938129358647615,
0.056708229426433915,-0.01363386271506103,
0.05675810473815461,-0.04207832205569616,
0.05680798004987531,-0.017413237490986153,
0.05685785536159601,-0.026429389719922876,
0.05690773067331671,-0.016175011690671603,
0.05695760598503741,-0.008132398365334186,
0.0570074812967581,-0.001680167326573721,
0.057057356608478806,-0.015256943701585325,
0.0571072319201995,-0.029938820916772454,
0.0571571072319202,-0.014764100389666983,
0.0572069825436409,-0.015377336239276137,
0.057256857855361595,0.0031380701583412357,
0.05730673316708229,0.004637595668713437,
0.057356608478802994,-0.0031095612190334392,
0.05740648379052369,-0.055310590688054245,
0.05745635910224439,-0.024203832373020977,
0.05750623441396509,-0.02338677011492308,
0.05755610972568578,-0.0012463461010664492,
0.057605985037406486,0.005673440084166712,
0.05765586034912718,-0.030460051191971704,
0.05770573566084788,-0.026044149801659332,
0.05775561097256858,-0.04054206554339611,
0.057805486284289276,-0.007226536480160237,
0.05785536159600998,-0.01943136298179174,
0.057905236907730674,0.019679445655633104,
0.05795511221945137,-0.0033886448057994824,
0.05800498753117207,-0.01725098204267966,
0.05805486284289277,0.005134809901980786,
0.058104738154613464,-0.02751527318073501,
0.05815461346633417,0.01528652692550292,
0.05820448877805486,-0.019645656062658046,
0.05825436408977556,-0.03576295441359692,
0.05830423940149626,-0.02690786447736037,
0.058354114713216956,-0.008577149834465312,
0.05840399002493766,-0.005995412911277387,
0.058453865336658355,-0.0019695111917830705,
0.05850374064837905,-0.03237876498098041,
0.05855361596009975,-0.0017281365578489197,
0.05860349127182045,-0.009818097968243992,
0.058653366583541144,-0.029752786487136897,
0.05870324189526185,0.009298376693986626,
0.05875311720698254,-0.014758417495358965,
0.05880299251870324,-0.02028048110986245,
0.05885286783042394,-0.014860775995070335,
0.05890274314214464,-0.00324777735107425,
0.05895261845386534,-0.043097135107848676,
0.059002493765586035,-0.008344589834868658,
0.05905236907730673,-0.012705093092288547,
0.059102244389027433,-0.0006607296001568709,
0.05915211970074813,-0.0285803261859987,
0.059201995012468825,0.0028329463263576,
0.05925187032418953,-0.05374948774979982,
0.05930174563591022,0.001234265452678289,
0.059351620947630926,-0.036405618825492383,
0.05940149625935162,-0.00931863746124844,
0.05945137157107232,0.009094750795270529,
0.05950124688279302,-0.025851809838890003,
0.059551122194513716,-0.01743368687763528,
0.05960099750623441,-0.0035090723452545734,
0.059650872817955114,-0.04463350664790679,
0.05970074812967581,-0.018471882193108365,
0.059750623441396505,-0.030576924373081408,
0.05980049875311721,-0.006780227711831052,
0.059850374064837904,-0.0229963572514887,
0.059900249376558606,-0.01501977870936076,
0.0599501246882793,-0.010814019066581094,
0.06,-0.004694355226317116,
0.0600498753117207,-0.0004938656896425371,
0.060099750623441396,-0.0056670642175703995,
0.06014962593516209,-0.02762705809058266,
0.060199501246882794,-0.01224366720408099,
0.06024937655860349,-0.008871947649089496,
0.06029925187032419,-0.006565853899950782,
0.06034912718204489,0.008533770050069443,
0.060399002493765584,-0.021115064466857063,
0.06044887780548629,0.0009542700773696247,
0.06049875311720698,-0.011489327829347355,
0.06054862842892768,-0.016741637564034365,
0.06059850374064838,-0.009758526389116421,
0.06064837905236908,-0.002943658347138947,
0.06069825436408977,-0.0010771138409749574,
0.060748129675810475,-0.025669545558344987,
0.06079800498753117,-0.019545881887391224,
0.06084788029925187,-0.019179858163165506,
0.06089775561097257,-0.005519920032958658,
0.060947630922693265,0.008050373256297672,
0.06099750623441397,-0.036035141122874946,
0.06104738154613466,-0.011564294009857649,
0.06109725685785536,-0.022725976416554872,
0.06114713216957606,-0.0006151607756346251,
0.06119700748129676,-0.01526755991472115,
0.06124688279301746,0.007380488764136523,
0.061296758104738155,-0.002246273371097615,
0.06134663341645885,-0.0020562000654475283,
0.061396508728179554,-0.01711255828432435,
0.06144638403990025,0.0041886943875724955,
0.061496259351620945,0.017416343512929203,
0.06154613466334165,-0.00021556629407839699,
0.061596009975062344,0.010307826527009335,
0.06164588528678304,0.0015201037731536046,
0.06169576059850374,0.02150958823275056,
0.06174563591022444,0.014672054792312072,
0.06179551122194514,-0.020478209556519147,
0.061845386533665836,-0.008055309708469748,
0.06189526184538653,0.012475892581414467,
0.061945137157107234,0.030229593702292543,
0.06199501246882793,-0.011306424322592597,
0.062044887780548626,-0.004791992705028288,
0.06209476309226933,0.002650131934871198,
0.062144638403990024,-0.0110604858640523,
0.06219451371571072,0.010580976431071502,
0.06224438902743142,-0.021450949896231364,
0.06229426433915212,0.00887323054642672,
0.06234413965087282,-0.006480886329278112,
0.062394014962593516,0.0004919113144717512,
0.06244389027431421,0.004649480743380204,
0.062493765586034915,-0.024978022055798545,
0.06254364089775562,-0.016889989677499488,
0.06259351620947631,0.018192706742435404,
0.06264339152119701,-0.0017233722395262403,
0.0626932668329177,0.011288531712423427,
0.0627431421446384,0.0014857537305847067,
0.0627930174563591,-0.008601209894585123,
0.0628428927680798,0.023201814798524272,
0.0628927680798005,0.017432109679228595,
0.0629426433915212,0.014039561061787142,
0.06299251870324189,0.0014246581173180356,
0.06304239401496259,0.002274375853888787,
0.0630922693266833,0.019290143720087322,
0.063142144638404,0.03285838835798316,
0.06319201995012469,0.02292530747701022,
0.06324189526184539,0.01493627379090251,
0.06329177057356608,0.022568255122807263,
0.06334164588528678,0.03589116530960113,
0.06339152119700749,0.020227227136645327,
0.06344139650872818,0.014384254843886932,
0.06349127182044888,0.01946256394222838,
0.06354114713216957,0.022805456910904805,
0.06359102244389027,0.02364884838061463,
0.06364089775561098,0.018526991592795385,
0.06369077306733167,-0.009022806546201488,
0.06374064837905237,0.025529463288135462,
0.06379052369077307,0.014447847670401822,
0.06384039900249376,0.021940567981643122,
0.06389027431421446,0.004684699074879123,
0.06394014962593517,-0.024556180482198167,
0.06399002493765586,0.02100917096633346,
0.06403990024937656,0.007457362311335308,
0.06408977556109725,0.003345943327169443,
0.06413965087281795,0.005520485775047784,
0.06418952618453866,-0.025350107496241947,
0.06423940149625935,0.005954197010305596,
0.06428927680798005,0.011709179480934433,
0.06433915211970075,0.005225364996718648,
0.06438902743142144,-0.003143570273517849,
0.06443890274314215,0.027940978907479444,
0.06448877805486285,-0.018998419311151368,
0.06453865336658354,0.02121348250812218,
0.06458852867830424,0.00027477669557888357,
0.06463840399002493,0.0009389770114056721,
0.06468827930174563,0.008008660351221285,
0.06473815461346634,0.002286705089968786,
0.06478802992518704,0.013804167790246588,
0.06483790523690773,-0.0029437265043268553,
0.06488778054862843,0.01349910905294513,
0.06493765586034912,0.0303907075285618,
0.06498753117206983,0.02140416825985958,
0.06503740648379053,0.010386308457969394,
0.06508728179551122,0.03607501336868739,
0.06513715710723192,-0.0016689188077688502,
0.06518703241895261,0.013342449633620967,
0.06523690773067331,0.023512634543140305,
0.06528678304239402,0.015682045843123726,
0.06533665835411472,0.0002848547906093707,
0.06538653366583541,0.04683041357618109,
0.06543640897755611,0.004101335206077739,
0.0654862842892768,0.030788879548868345,
0.06553615960099751,0.0342886164050834,
0.06558603491271821,0.01770857262195202,
0.0656359102244389,0.023654533980437445,
0.0656857855361596,0.020414830320227423,
0.0657356608478803,0.0156524630360515,
0.06578553615960099,-0.012245457950355903,
0.0658354114713217,0.010262386488348199,
0.0658852867830424,0.03269554633964979,
0.06593516209476309,0.01509346303015044,
0.06598503740648379,0.018811265191213122,
0.06603491271820448,0.0356360515537774,
0.06608478802992519,0.02524102365662474,
0.06613466334164589,0.05190549485375444,
0.06618453865336658,0.0026392791293224083,
0.06623441396508728,0.03522607107368937,
0.06628428927680798,0.04881038773922723,
0.06633416458852869,-0.000977036554954125,
0.06638403990024938,0.022809496627875542,
0.06643391521197008,0.020979602346487814,
0.06648379052369077,0.015900101046161866,
0.06653366583541147,0.003072764789485226,
0.06658354114713216,0.04583534581361022,
0.06663341645885287,0.03678311684753503,
0.06668329177057357,0.014229227876116666,
0.06673316708229426,0.01785306152888146,
0.06678304239401496,0.011932564872448332,
0.06683291770573566,-0.0008960683481698886,
0.06688279301745637,0.06031117156951328,
0.06693266832917706,0.03754186705670646,
0.06698254364089776,0.017929425772143202,
0.06703241895261845,0.027582268053068293,
0.06708229426433915,0.02584845722747117,
0.06713216957605984,0.03654631997995439,
0.06718204488778055,0.038229128371485864,
0.06723192019950125,-0.027325035013571693,
0.06728179551122195,0.010831588339504388,
0.06733167082294264,0.022278776014002917,
0.06738154613466334,0.019878213474768487,
0.06743142144638405,0.020182510742880386,
0.06748129675810474,0.018635709197958934,
0.06753117206982544,0.03770487821442208,
0.06758104738154613,0.025810006791356664,
0.06763092269326683,0.01920216331005766,
0.06768079800498752,0.02430611153119044,
0.06773067331670823,0.016884329533181298,
0.06778054862842893,0.02211965858068061,
0.06783042394014963,0.02132924301867553,
0.06788029925187032,0.05550896909212437,
0.06793017456359102,0.035409118568372554,
0.06798004987531173,0.031017830879427437,
0.06802992518703242,0.004700707760297726,
0.06807980049875312,0.03472888558008683,
0.06812967581047381,0.02850669380471941,
0.06817955112219451,0.002471254893520309,
0.0682294264339152,0.029017024962908644,
0.06827930174563591,0.027479599037067995,
0.06832917705735661,0.015411851671259255,
0.0683790523690773,0.0027484762114179245,
0.068428927680798,0.02747635767291163,
0.0684788029925187,0.03392270148375452,
0.06852867830423941,0.0556204490593657,
0.0685785536159601,0.015082740037232326,
0.0686284289276808,0.02981465604271171,
0.0686783042394015,0.02662247617162825,
0.06872817955112219,0.03706182714121582,
0.0687780548628429,0.019682475483578366,
0.0688279301745636,0.048553888543260385,
0.06887780548628429,0.03725927882868629,
0.06892768079800499,0.021646488430272764,
0.06897755610972568,0.046280668904053204,
0.06902743142144638,0.027266617847128336,
0.06907730673316709,-0.003233214410745505,
0.06912718204488778,0.014046274377094754,
0.06917705735660848,0.02015147589012705,
0.06922693266832917,0.022021177998538297,
0.06927680798004987,0.023252008199586713,
0.06932668329177058,0.02155466845480033,
0.06937655860349128,0.046760601066208565,
0.06942643391521197,0.0018422608418590392,
0.06947630922693267,0.014653994903702481,
0.06952618453865336,-0.0002692629982004105,
0.06957605985037406,0.006865004836355992,
0.06962593516209477,0.05101918218965408,
0.06967581047381546,0.03276865046766045,
0.06972568578553616,0.03422398653193412,
0.06977556109725686,0.012531755145346038,
0.06982543640897755,-0.003296525627539057,
0.06987531172069826,0.026775945837883806,
0.06992518703241896,0.04481841881711738,
0.06997506234413965,-0.0004523014720998926,
0.07002493765586035,0.033132096041515506,
0.07007481296758104,0.02791248266513358,
0.07012468827930174,-0.0013937682306626419,
0.07017456359102245,0.029709876990273117,
0.07022443890274314,-0.007635444824686467,
0.07027431421446384,0.0032271609397044668,
0.07032418952618454,0.002393574792823608,
0.07037406483790523,0.04267320704881514,
0.07042394014962594,0.04642314147761804,
0.07047381546134664,0.028924470255559546,
0.07052369077306733,-0.0016022592636946963,
0.07057356608478803,0.007242185263130635,
0.07062344139650872,0.028260730490944873,
0.07067331670822943,0.0310262640400613,
0.07072319201995013,0.02522607240462383,
0.07077306733167082,0.03958726413585477,
0.07082294264339152,0.02021227080144555,
0.07087281795511222,-0.005486247555433987,
0.07092269326683291,0.02241411241920961,
0.07097256857855362,0.019889418680370773,
0.07102244389027432,0.013434822036784779,
0.07107231920199501,0.006402602403218858,
0.07112219451371571,0.020261710722994854,
0.0711720698254364,0.006315022986698008,
0.07122194513715711,0.0009023625602833443,
0.07127182044887781,0.01176945205104793,
0.0713216957605985,-0.010243124480141155,
0.0713715710723192,0.004666377355621327,
0.0714214463840399,-0.0068210257246069245,
0.07147132169576059,0.03057257784964846,
0.0715211970074813,0.02297424705251583,
0.071571072319202,0.015496808357745147,
0.0716209476309227,0.0005207737728959525,
0.07167082294264339,-0.010985811623993709,
0.07172069825436408,0.020578422349579677,
0.0717705735660848,0.003660651727632497,
0.07182044887780549,0.04092619850616486,
0.07187032418952619,0.018709437324054615,
0.07192019950124688,0.00642606580717508,
0.07197007481296758,0.02680582347988258,
0.07201995012468827,0.008923463688417609,
0.07206982543640898,0.008409496241717829,
0.07211970074812968,0.029705404668977975,
0.07216957605985037,0.013901219381322966,
0.07221945137157107,0.025646319690958867,
0.07226932668329177,0.014820640279637413,
0.07231920199501247,0.012427508689024445,
0.07236907730673317,0.006714152193059279,
0.07241895261845387,0.011891337355200982,
0.07246882793017456,0.008326185833484961,
0.07251870324189526,0.0004905899438470453,
0.07256857855361595,0.022304131146165217,
0.07261845386533666,0.03098464468751091,
0.07266832917705736,0.0034974614205907136,
0.07271820448877805,-0.0042674585082649544,
0.07276807980049875,-0.012029594862021629,
0.07281795511221945,0.02491576008722963,
0.07286783042394016,-0.041523079923781056,
0.07291770573566085,0.0164548931369212,
0.07296758104738155,0.01808301957858008,
0.07301745635910224,-0.0163604422499982,
0.07306733167082294,-0.002788071898455681,
0.07311720698254365,0.015796502109958713,
0.07316708229426434,0.02225750861916452,
0.07321695760598504,-0.002836548879468063,
0.07326683291770573,0.007616639910881537,
0.07331670822942643,-0.0016446677581174424,
0.07336658354114713,0.01834250764175032,
0.07341645885286784,-0.02651900698767179,
0.07346633416458853,0.028130494117829488,
0.07351620947630923,-0.006132440666934755,
0.07356608478802992,0.015304295231672267,
0.07361596009975062,0.017117433156362324,
0.07366583541147133,0.009935792627042734,
0.07371571072319202,-0.002309805700774623,
0.07376558603491272,0.0072144502542351285,
0.07381546134663342,0.016786012340548894,
0.07386533665835411,0.031672347573394426,
0.0739152119700748,0.020192759338959077,
0.07396508728179552,0.010766708091535519,
0.07401496259351621,0.0016518036638206593,
0.07406483790523691,0.0011938110541130013,
0.0741147132169576,-0.020556563360817938,
0.0741645885286783,-0.008252386788467304,
0.07421446384039901,-0.006902608255801553,
0.0742643391521197,0.0030275229652309372,
0.0743142144638404,-0.0024621086458670345,
0.0743640897755611,0.016125325080556287,
0.07441396508728179,-0.024276979945748706,
0.07446384039900249,0.01928218159909943,
0.0745137157107232,-0.014564452494130496,
0.07456359102244389,0.027542119530889066,
0.07461346633416459,-0.0011107508434388125,
0.07466334164588528,-0.0024234939595731415,
0.07471321695760598,0.0007904704984684711,
0.07476309226932669,0.0014759930156139729,
0.07481296758104738,0.012981360924820582,
0.07486284289276808,-0.021716589222423782,
0.07491271820448878,-0.019315270395072665,
0.07496259351620947,0.01328309472282262,
0.07501246882793017,-0.01151304438945287,
0.07506234413965088,-0.019225590820391013,
0.07511221945137157,-0.004007999617713976,
0.07516209476309227,-0.008393450671254483,
0.07521197007481296,0.01282930209608545,
0.07526184538653366,-0.012060557690413618,
0.07531172069825437,-0.0023707112494567436,
0.07536159600997507,-0.007723349531215199,
0.07541147132169576,-0.03680537368213145,
0.07546134663341646,-0.011839453157138656,
0.07551122194513715,-0.005675772447479012,
0.07556109725685786,-0.02464115107391798,
0.07561097256857856,0.00830787421965129,
0.07566084788029925,-0.020671016205215033,
0.07571072319201995,-0.0016866263914095065,
0.07576059850374064,-0.009293702505725083,
0.07581047381546134,0.006650945589459322,
0.07586034912718205,-0.0065110142209419426,
0.07591022443890275,0.01989647424367322,
0.07596009975062344,0.008690367994959187,
0.07600997506234414,-0.025035962232427236,
0.07605985037406483,-0.012197447903102676,
0.07610972568578554,-0.010222963914036633,
0.07615960099750624,0.0007657999935411948,
0.07620947630922693,-0.017978060704194103,
0.07625935162094763,-0.01731997019764739,
0.07630922693266833,-0.01806486254942977,
0.07635910224438902,-0.003742776028434121,
0.07640897755610973,-0.012794667020918308,
0.07645885286783043,-0.05569534012892154,
0.07650872817955112,-0.006196830303085126,
0.07655860349127182,-0.03540018637022807,
0.07660847880299251,-0.01811097146882188,
0.07665835411471322,-0.012772721414982927,
0.07670822942643392,0.022234546814659313,
0.07675810473815461,-0.016114802550079556,
0.07680798004987531,0.01967349293358473,
0.076857855361596,-0.03341670065708301,
0.0769077306733167,0.012686641426779284,
0.07695760598503741,-0.005005670510979049,
0.0770074812967581,-0.019940590509537223,
0.0770573566084788,-0.005812416796356431,
0.0771072319201995,-0.02985016422516944,
0.0771571072319202,-0.021717977795692886,
0.0772069825436409,0.0005421384818897375,
0.0772568578553616,-0.01106069127689966,
0.0773067331670823,-0.02524642751201748,
0.07735660847880299,-0.020136418083021773,
0.07740648379052369,-0.009430641736506306,
0.0774563591022444,-0.01715753098221296,
0.07750623441396509,-0.028479562089941728,
0.07755610972568579,-0.010755145971611493,
0.07760598503740648,-0.028952558539104403,
0.07765586034912718,-0.034551929266767874,
0.07770573566084787,-0.0403619184609182,
0.07775561097256858,-0.016081499570154856,
0.07780548628428928,-0.041723752262367075,
0.07785536159600998,-0.04399898302585413,
0.07790523690773067,-0.0165433059506321,
0.07795511221945137,0.0026018254207454683,
0.07800498753117208,-0.02824401528399966,
0.07805486284289277,-0.017203886532323225,
0.07810473815461347,-0.013731450850216575,
0.07815461346633416,-0.016653799535362127,
0.07820448877805486,-0.029939782381219533,
0.07825436408977555,-0.0028251483132408634,
0.07830423940149626,-0.010238073059917677,
0.07835411471321696,0.00957508889651515,
0.07840399002493766,-0.019675470119791857,
0.07845386533665835,-0.00870944892559887,
0.07850374064837905,-0.01816365474124289,
0.07855361596009976,-0.006306492680432566,
0.07860349127182045,0.01028849183343769,
0.07865336658354115,-0.01826170054168126,
0.07870324189526184,-0.018747667853806826,
0.07875311720698254,-0.025335888268975287,
0.07880299251870324,-0.042798511190322325,
0.07885286783042394,0.019281329885946684,
0.07890274314214464,-0.04295809098658909,
0.07895261845386534,-0.013624175195290677,
0.07900249376558603,-0.00453798915682827,
0.07905236907730673,-0.029935695301634903,
0.07910224438902744,-0.011230024557528286,
0.07915211970074813,-0.01681113390636891,
0.07920199501246883,-0.03249179710512384,
0.07925187032418952,-0.002932186905709608,
0.07930174563591022,0.0066273765777435135,
0.07935162094763092,-0.0053297144184150545,
0.07940149625935163,-0.005430904271736429,
0.07945137157107232,-0.022533998302880005,
0.07950124688279302,-0.009795065763123572,
0.07955112219451371,-0.007352259362009453,
0.07960099750623441,-0.003523621237785877,
0.07965087281795512,-0.005056141063175827,
0.07970074812967581,0.01172819585861055,
0.07975062344139651,-0.0447273489169112,
0.0798004987531172,-0.002647698416253154,
0.0798503740648379,0.000495690826442248,
0.07990024937655861,-0.018616269358956855,
0.0799501246882793,-0.022905076702253606,
0.08,-0.018530607744974902,
0.0800498753117207,-0.01565501043266733,
0.0800997506234414,-0.039778109466430206,
0.08014962593516209,-0.028556555398474525,
0.0801995012468828,0.0057492890841245,
0.0802493765586035,0.0029681530093093565,
0.08029925187032419,-0.031242062683416394,
0.08034912718204489,-0.01811074693060539,
0.08039900249376558,-0.029687217296292,
0.08044887780548629,-0.008139285938443694,
0.08049875311720699,-0.006727953805779526,
0.08054862842892768,-0.016131160720238027,
0.08059850374064838,-0.007511191439439745,
0.08064837905236907,0.004864153877270088,
0.08069825436408977,-0.0321892420372702,
0.08074812967581048,-0.006028631238628158,
0.08079800498753117,0.005768352876878027,
0.08084788029925187,0.008714686140790545,
0.08089775561097257,0.008084481838234568,
0.08094763092269326,-0.011371345495628436,
0.08099750623441397,-0.0027957056699778266,
0.08104738154613467,-0.003790948526693028,
0.08109725685785536,-0.01655934740465525,
0.08114713216957606,-0.007911924717781087,
0.08119700748129675,-0.011454625929572734,
0.08124688279301745,0.009998809452624524,
0.08129675810473816,0.016048985405279527,
0.08134663341645886,0.02364037354105423,
0.08139650872817955,-0.01357879934790042,
0.08144638403990025,0.0020419252513814616,
0.08149625935162094,-0.03125459612164441,
0.08154613466334165,0.001149578813973946,
0.08159600997506235,-0.0014740109960030513,
0.08164588528678304,-0.00965278632042247,
0.08169576059850374,0.005821197207670114,
0.08174563591022443,0.020419650951440917,
0.08179551122194513,0.024141231334157402,
0.08184538653366584,0.001470155164094124,
0.08189526184538654,0.028196575368159463,
0.08194513715710723,0.029368419027648862,
0.08199501246882793,0.0008086731724454897,
0.08204488778054862,0.01832845265286217,
0.08209476309226933,0.0014807435744379443,
0.08214463840399003,-0.015017182799243696,
0.08219451371571072,0.01720820893146872,
0.08224438902743142,0.014148064470984986,
0.08229426433915212,0.014411357405067781,
0.08234413965087282,0.031838418076528145,
0.08239401496259352,-0.015632023105631252,
0.08244389027431422,0.03775003749418764,
0.08249376558603491,-0.0052615794942403185,
0.08254364089775561,-0.016396848951553918,
0.0825935162094763,0.018801032103972912,
0.08264339152119701,0.002571475360401404,
0.08269326683291771,-0.0012518590587998627,
0.0827431421446384,0.0023486976765394988,
0.0827930174563591,0.00816030527483698,
0.0828428927680798,-0.013671782627278863,
0.0828927680798005,0.003955263474392444,
0.0829426433915212,0.0529591662712348,
0.0829925187032419,-0.005486686044097977,
0.08304239401496259,0.026111697181452356,
0.08309226932668329,-0.0009672058254629017,
0.08314214463840398,0.05119534859423563,
0.0831920199501247,0.004867629049792162,
0.08324189526184539,0.019546824233460616,
0.08329177057356608,0.0295790388184529,
0.08334164588528678,0.017653722921450062,
0.08339152119700748,0.020863459960485012,
0.08344139650872819,-0.009561478090598092,
0.08349127182044888,0.019731579109316916,
0.08354114713216958,0.0005678154418308958,
0.08359102244389027,0.017171249670035194,
0.08364089775561097,0.02678468465511743,
0.08369077306733166,0.03153290457011918,
0.08374064837905237,0.00686220548372495,
0.08379052369077307,0.036060044843156794,
0.08384039900249377,0.022680414285543127,
0.08389027431421446,-0.006747658360254661,
0.08394014962593516,0.015211747860457273,
0.08399002493765587,0.02262841419684466,
0.08403990024937656,0.0006088194630877019,
0.08408977556109726,0.014911678870460215,
0.08413965087281795,0.029445899712813868,
0.08418952618453865,0.03497133951949842,
0.08423940149625936,0.006328329999758923,
0.08428927680798005,0.009610184852541774,
0.08433915211970075,0.018670338821739917,
0.08438902743142145,0.0004169416946227418,
0.08443890274314214,0.05214211049139045,
0.08448877805486284,0.015101341077019454,
0.08453865336658355,0.02671322360383485,
0.08458852867830424,0.0369395495084171,
0.08463840399002494,0.01274618043563011,
0.08468827930174563,-0.0013338532621784208,
0.08473815461346633,0.02151317043946967,
0.08478802992518704,0.0001431919565289541,
0.08483790523690773,0.00949926674318984,
0.08488778054862843,0.02908681331211755,
0.08493765586034913,0.009135440211311484,
0.08498753117206982,0.00857310845061505,
0.08503740648379052,0.0333401712372952,
0.08508728179551123,0.01839116828523682,
0.08513715710723192,0.02240167082840936,
0.08518703241895262,0.026596229253332937,
0.08523690773067331,0.017870825590468317,
0.08528678304239401,-0.021093986547169902,
0.08533665835411472,0.0038979356016701633,
0.08538653366583542,0.026630581005735225,
0.08543640897755611,0.0164655641979125,
0.0854862842892768,-0.005067529729710602,
0.0855361596009975,0.016344857900055493,
0.0855860349127182,0.00962032637554478,
0.08563591022443891,0.008912000177451916,
0.0856857855361596,0.013742456438300958,
0.0857356608478803,0.03744486695936287,
0.085785536159601,0.004928188165060396,
0.08583541147132169,0.021696826876208785,
0.0858852867830424,0.015433832232032116,
0.0859351620947631,0.02878375122699696,
0.08598503740648379,0.016306877306185873,
0.08603491271820449,0.0184225123574766,
0.08608478802992518,0.0187372195588438,
0.08613466334164588,0.02242716519381963,
0.08618453865336659,0.012897436247682203,
0.08623441396508728,0.012208300629299985,
0.08628428927680798,0.013290867555568383,
0.08633416458852868,0.013424462911124051,
0.08638403990024937,0.05067369040619578,
0.08643391521197008,0.024389848838880818,
0.08648379052369078,0.027020661864820536,
0.08653366583541147,0.01719436333508829,
0.08658354114713217,0.03234276436410175,
0.08663341645885286,0.03915833099131444,
0.08668329177057357,0.02948714785698061,
0.08673316708229427,0.011258548130471452,
0.08678304239401496,0.02108270896845043,
0.08683291770573566,0.03601921517944299,
0.08688279301745636,0.028247699338563775,
0.08693266832917705,0.0032954871089058077,
0.08698254364089776,0.0367005702404592,
0.08703241895261846,0.0393188567223466,
0.08708229426433915,0.027305523854985032,
0.08713216957605985,0.004969036600031722,
0.08718204488778054,0.01723312770039648,
0.08723192019950125,0.03342132750783034,
0.08728179551122195,0.05329880127057983,
0.08733167082294264,0.015863597267590478,
0.08738154613466334,0.02959885798849118,
0.08743142144638404,0.02106804369762852,
0.08748129675810473,0.021989331346037793,
0.08753117206982544,0.021979145193832123,
0.08758104738154614,0.03233368212376321,
0.08763092269326683,0.021589873213588375,
0.08768079800498753,0.0520116013020097,
0.08773067331670822,0.020573897262521564,
0.08778054862842893,-0.0016688167746258635,
0.08783042394014963,0.03643797765531133,
0.08788029925187033,0.025055496623132306,
0.08793017456359102,0.040465904112184946,
0.08798004987531172,0.0448025194092067,
0.08802992518703241,0.016199120415218773,
0.08807980049875312,0.041422861911530155,
0.08812967581047382,0.027894317397611456,
0.08817955112219451,0.02817630183193412,
0.08822942643391521,0.012303687750158339,
0.0882793017456359,0.035441280320935804,
0.08832917705735661,0.060299326571313996,
0.08837905236907731,0.042485190489128764,
0.088428927680798,0.02284731128220142,
0.0884788029925187,0.022007715984447996,
0.0885286783042394,0.03292336225218198,
0.0885785536159601,0.009711930818114025,
0.0886284289276808,0.05621689031916953,
0.0886783042394015,0.03310373641858132,
0.0887281795511222,0.027859333607161568,
0.08877805486284289,0.03944396619714502,
0.08882793017456359,0.015891171607854648,
0.0888778054862843,0.023525344293121184,
0.08892768079800499,0.02122809170974686,
0.08897755610972569,0.030898302972905405,
0.08902743142144638,0.040724438812375446,
0.08907730673316708,0.009881902329628923,
0.08912718204488779,0.03653963645280636,
0.08917705735660848,0.021721902293802588,
0.08922693266832918,0.041746620380727156,
0.08927680798004987,0.03962260674543939,
0.08932668329177057,0.05789024550616563,
0.08937655860349127,0.014344758390920405,
0.08942643391521198,0.03860244519726881,
0.08947630922693267,0.05600705268188827,
0.08952618453865337,0.007947077246978601,
0.08957605985037406,0.01406238307300224,
0.08962593516209476,-0.003577112733712976,
0.08967581047381547,0.023773339244987066,
0.08972568578553616,0.012590236711228404,
0.08977556109725686,0.015558376998681437,
0.08982543640897755,0.008730446351730162,
0.08987531172069825,0.01975706522752602,
0.08992518703241895,-0.010648274596204824,
0.08997506234413966,0.043127374191513856,
0.09002493765586035,0.048038846430761215,
0.09007481296758105,0.039895690643648854,
0.09012468827930174,0.02558492364789531,
0.09017456359102244,0.028201627030653455,
0.09022443890274315,0.039334848622332844,
0.09027431421446384,0.02602566105837223,
0.09032418952618454,0.034103736851024066,
0.09037406483790524,0.047427554042823845,
0.09042394014962593,0.029793644755650883,
0.09047381546134663,0.017866972973643362,
0.09052369077306734,0.007859077706136544,
0.09057356608478803,0.020648879468934313,
0.09062344139650873,0.03817126502677762,
0.09067331670822942,0.019887337923922686,
0.09072319201995012,0.04119988239259148,
0.09077306733167083,0.014140456719627888,
0.09082294264339152,0.021990023973239983,
0.09087281795511222,-0.004684993267091143,
0.09092269326683292,0.011446572599108069,
0.09097256857855361,0.020020720545604238,
0.09102244389027432,0.028876428378790692,
0.09107231920199502,0.017188319238902145,
0.09112219451371571,0.008930602784641311,
0.09117206982543641,0.025324656153648935,
0.0912219451371571,0.029614956535087326,
0.0912718204488778,0.024600286887207196,
0.09132169576059851,0.026163508002919084,
0.0913715710723192,0.01521510603098304,
0.0914214463840399,0.014305505654859975,
0.0914713216957606,0.018625788392125357,
0.09152119700748129,0.028656777363346743,
0.091571072319202,0.01764438010780188,
0.0916209476309227,-0.004288786016716388,
0.09167082294264339,0.04410594738908365,
0.09172069825436409,0.006520937801944779,
0.09177057356608478,0.026649571397099857,
0.09182044887780548,-0.0005030532306762644,
0.09187032418952619,0.02648426685938077,
0.09192019950124689,0.004827015002934688,
0.09197007481296758,-0.0030652218713357535,
0.09201995012468828,0.03428014178377126,
0.09206982543640897,-0.006278231139040212,
0.09211970074812968,0.026018989039450262,
0.09216957605985038,0.0020210122324541002,
0.09221945137157107,-0.001932013472166226,
0.09226932668329177,0.008335015017860267,
0.09231920199501246,-0.0004743330516028439,
0.09236907730673316,0.016702816323644912,
0.09241895261845387,0.0017859161734402832,
0.09246882793017457,0.004099261165436071,
0.09251870324189526,0.01743767816533583,
0.09256857855361596,0.017191172602979934,
0.09261845386533665,0.0021885501717884195,
0.09266832917705736,-0.0005746751110341716,
0.09271820448877806,0.005321782007254126,
0.09276807980049875,-0.0013468058473568752,
0.09281795511221945,-0.003773855963525365,
0.09286783042394015,0.026247515210370487,
0.09291770573566084,-0.003355243812992143,
0.09296758104738155,0.02818870140777705,
0.09301745635910225,0.00633602056951387,
0.09306733167082294,0.028216860504390526,
0.09311720698254364,-0.016935353648462555,
0.09316708229426433,0.014673020820450584,
0.09321695760598504,0.016848787841820947,
0.09326683291770574,0.01993725550385992,
0.09331670822942643,0.025823805918867758,
0.09336658354114713,0.0026352391008337616,
0.09341645885286783,0.019653021688521188,
0.09346633416458854,0.0058942250025082795,
0.09351620947630923,-0.003219071159506202,
0.09356608478802993,0.014044419301121673,
0.09361596009975062,0.022847870244351098,
0.09366583541147132,0.018450613894572594,
0.09371571072319201,-0.002456320733640829,
0.09376558603491272,0.024788889541345123,
0.09381546134663342,0.002972307728221344,
0.09386533665835411,-0.0010592489192086927,
0.09391521197007481,0.026945323723329296,
0.0939650872817955,-0.000370346199011437,
0.09401496259351622,0.01997169099759536,
0.09406483790523691,0.017028965936872316,
0.09411471321695761,-0.01603414373896676,
0.0941645885286783,0.018076365124596278,
0.094214463840399,-0.015267157314808747,
0.0942643391521197,0.010187016637018188,
0.0943142144638404,0.0017410898501187292,
0.0943640897755611,-0.011265399388111181,
0.0944139650872818,0.014345972703755663,
0.09446384039900249,-0.017842172746896645,
0.09451371571072319,-0.00907727229661482,
0.0945635910224439,-0.029799465568629925,
0.09461346633416459,0.005556663394838889,
0.09466334164588529,0.020753436555132423,
0.09471321695760598,0.0063784320826097045,
0.09476309226932668,0.009602778158247192,
0.09481296758104737,-0.015401789448698782,
0.09486284289276808,-0.03609446338150281,
0.09491271820448878,-0.010006829286047975,
0.09496259351620948,-0.0010618553179335237,
0.09501246882793017,0.02621691123400993,
0.09506234413965087,-0.016234560762197286,
0.09511221945137158,0.01478760018327099,
0.09516209476309227,-0.0008542207237047083,
0.09521197007481297,-0.019085337984991346,
0.09526184538653366,0.006039087347443242,
0.09531172069825436,-0.014667261714690169,
0.09536159600997507,-0.025814143883425532,
0.09541147132169576,-0.009806069682385987,
0.09546134663341646,0.002259210645474006,
0.09551122194513716,-0.02412313205339738,
0.09556109725685785,-0.004202779767686297,
0.09561097256857855,-0.0014403784565148068,
0.09566084788029926,-0.008433873170043635,
0.09571072319201995,-0.006311438041994983,
0.09576059850374065,-0.03227094687646802,
0.09581047381546134,-0.029001914358989637,
0.09586034912718204,-0.030694153440989927,
0.09591022443890275,-0.005181914229178087,
0.09596009975062345,0.006354454302385697,
0.09600997506234414,-0.0220181808829738,
0.09605985037406484,-0.019661624087795426,
0.09610972568578553,-0.02590471947382473,
0.09615960099750623,-0.037745378125290725,
0.09620947630922694,-0.01314212165408953,
0.09625935162094763,0.0024096413354393956,
0.09630922693266833,0.006721828318062317,
0.09635910224438902,0.0005301659317503461,
0.09640897755610972,0.02065090047500981,
0.09645885286783043,0.010087987443076474,
0.09650872817955113,0.0026290894599430726,
0.09655860349127182,-0.008911443854753858,
0.09660847880299252,-0.005376842955855735,
0.09665835411471321,-0.012422136526940535,
0.09670822942643391,-0.017980350439602565,
0.09675810473815462,-0.0295414236516705,
0.09680798004987531,-0.009223185534087398,
0.09685785536159601,-0.006986519075926815,
0.0969077306733167,-0.030828335194366674,
0.0969576059850374,-0.02404776824996445,
0.09700748129675811,-0.013427773386713986,
0.0970573566084788,0.011473797279050423,
0.0971072319201995,-0.021268545513111397,
0.0971571072319202,-0.010411820173226123,
0.0972069825436409,-0.022839130589095993,
0.09725685785536159,-0.043023689278923694,
0.0973067331670823,0.009071013141966696,
0.097356608478803,-0.004263027040911882,
0.09740648379052369,-0.032341033984516654,
0.09745635910224439,-0.008014899989529298,
0.09750623441396508,-0.017835540935133433,
0.09755610972568579,0.010857074040105313,
0.09760598503740649,-0.046528913897179336,
0.09765586034912718,-0.01673531733021867,
0.09770573566084788,0.004371117874929827,
0.09775561097256857,-0.0016579408102216035,
0.09780548628428928,-0.011709284245566132,
0.09785536159600998,-0.04159453953671423,
0.09790523690773068,-0.023821325035015457,
0.09795511221945137,-0.007619076024452465,
0.09800498753117207,-0.00435254166144748,
0.09805486284289276,-0.02435840637795804,
0.09810473815461347,-0.012303613135544643,
0.09815461346633417,-0.019398078837512274,
0.09820448877805486,-0.0010860468911789694,
0.09825436408977556,-0.01296294611341999,
0.09830423940149625,-0.033874566918738136,
0.09835411471321696,-0.02930735235351405,
0.09840399002493766,-0.023461768551584453,
0.09845386533665836,-0.023746659865840875,
0.09850374064837905,-0.026073396104451828,
0.09855361596009975,-0.015146730120806851,
0.09860349127182044,0.0034685257777570325,
0.09865336658354115,-0.015404950334253147,
0.09870324189526185,-0.007118290810273095,
0.09875311720698254,0.00998268299100872,
0.09880299251870324,0.001704704156692046,
0.09885286783042393,-0.011756384046110038,
0.09890274314214464,-0.017984280046510506,
0.09895261845386534,-0.005600851861056469,
0.09900249376558604,-0.008423970213308683,
0.09905236907730673,-0.0037302764382494205,
0.09910224438902743,0.022045158949682703,
0.09915211970074812,-0.003641253105462138,
0.09920199501246883,-0.02842733003455789,
0.09925187032418953,-0.015294762680061306,
0.09930174563591022,-0.005639428462841568,
0.09935162094763092,-0.012143192050876878,
0.09940149625935162,-0.006349144404562091,
0.09945137157107233,0.004142158556838178,
0.09950124688279302,-0.020257236476586234,
0.09955112219451372,0.004199276661919814,
0.09960099750623441,-0.013439588967475595,
0.09965087281795511,-0.011791633172631193,
0.0997007481296758,-0.017950668267442092,
0.09975062344139651,-0.012631637962942106,
0.09980049875311721,-0.003139205186756762,
0.0998503740648379,0.01702256690590389,
0.0999002493765586,-0.017901602883997197,
0.0999501246882793,0.00014958627538544378,
0.1,-0.006538003720131016,
0.1000498753117207,0.010082798914544546,
0.1000997506234414,-0.01842159672411916,
0.10014962593516209,-0.007687532876632948,
0.10019950124688279,-0.009453996545983553,
0.1002493765586035,0.0027253838711622583,
0.1002992518703242,-0.01085568620629855,
0.10034912718204489,-0.012776141896981107,
0.10039900249376559,-0.01595771482479378,
0.10044887780548628,0.0153417129153384,
0.10049875311720698,-0.01288461127117201,
0.10054862842892769,0.030638334743894727,
0.10059850374064838,-0.01020112916637424,
0.10064837905236908,-0.03261662245128862,
0.10069825436408977,-0.0024222125267224317,
0.10074812967581047,-0.020401470963849245,
0.10079800498753118,-0.0028008408531690937,
0.10084788029925187,-0.029320794245092967,
0.10089775561097257,-0.021387809910283766,
0.10094763092269327,-0.010031868618350964,
0.10099750623441396,-0.005661580788844966,
0.10104738154613466,-0.021193112946985174,
0.10109725685785537,0.0040150607769524685,
0.10114713216957606,0.022059079271556592,
0.10119700748129676,0.009314312178349559,
0.10124688279301745,0.004460290810052991,
0.10129675810473815,0.003230566005566221,
0.10134663341645886,-0.03221336853455911,
0.10139650872817955,-0.035923877021275565,
0.10144638403990025,-0.02285281074298251,
0.10149625935162095,0.010856014184903107,
0.10154613466334164,-0.006620525102006974,
0.10159600997506234,0.017879535049117996,
0.10164588528678305,-0.016777276028740424,
0.10169576059850374,0.018167884179855095,
0.10174563591022444,-0.017229107170797738,
0.10179551122194513,0.034720156775811396,
0.10184538653366583,-0.010396080762861148,
0.10189526184538654,0.010500177960624295,
0.10194513715710724,-0.016378411169410065,
0.10199501246882793,0.0012704310348766257,
0.10204488778054863,0.005179930762799616,
0.10209476309226932,-0.002567528857694964,
0.10214463840399003,0.00679140812537226,
0.10219451371571073,0.0006876564739374596,
0.10224438902743142,-0.0058398120390077786,
0.10229426433915212,0.0002210445818474154,
0.10234413965087281,-0.004371244950072118,
0.10239401496259351,-0.01193405285979683,
0.10244389027431422,0.04644930810095375,
0.10249376558603492,0.02009605029524673,
0.10254364089775561,-0.011004952957064575,
0.10259351620947631,0.009377957703857048,
0.102643391521197,0.036722973504266995,
0.10269326683291771,0.0291432449345396,
0.10274314214463841,-0.008310254581496854,
0.1027930174563591,0.018004843066683995,
0.1028428927680798,0.02169472878783142,
0.1028927680798005,-0.0023206679917719677,
0.10294264339152119,-0.0026293093188573856,
0.1029925187032419,0.039308579719949416,
0.1030423940149626,0.019421113806806153,
0.10309226932668329,0.009496727398968157,
0.10314214463840399,0.014161271678240987,
0.10319201995012468,0.020843322081980045,
0.10324189526184539,-0.008260994509701865,
0.10329177057356609,0.004088604011033853,
0.10334164588528678,0.016335882231694347,
0.10339152119700748,0.00724200383183031,
0.10344139650872818,0.0018956723673712109,
0.10349127182044887,0.05405806551694744,
0.10354114713216958,0.024417747015208238,
0.10359102244389028,-0.009611446448958835,
0.10364089775561097,0.026314620783313702,
0.10369077306733167,-0.0018800139163221308,
0.10374064837905236,-0.018144824193603713,
0.10379052369077307,0.021207792517854127,
0.10384039900249377,0.04431971594742158,
0.10389027431421446,0.027134410756564024,
0.10394014962593516,0.032969211010717196,
0.10399002493765586,0.0057347835146989365,
0.10403990024937655,0.00041849305351767535,
0.10408977556109726,0.01613512289448331,
0.10413965087281796,-0.014404277527838487,
0.10418952618453865,0.001559571321622542,
0.10423940149625935,0.011887937252347132,
0.10428927680798004,0.03833990807885279,
0.10433915211970075,0.02268268864059056,
0.10438902743142145,0.01412007452226233,
0.10443890274314215,0.014739578988544097,
0.10448877805486284,-0.011264731076086842,
0.10453865336658354,0.02115965280216174,
0.10458852867830425,-0.007242825787745932,
0.10463840399002494,0.008038784079703572,
0.10468827930174564,0.03589675413776031,
0.10473815461346633,0.007429956814473351,
0.10478802992518703,0.03698842478851114,
0.10483790523690772,-0.008244590842884217,
0.10488778054862843,0.010048080651910039,
0.10493765586034913,0.03997130286524701,
0.10498753117206983,-0.007841125083679065,
0.10503740648379052,0.01416628209339768,
0.10508728179551122,0.021024249788596294,
0.10513715710723193,0.03648015980705607,
0.10518703241895262,0.025074370678970552,
0.10523690773067332,0.030645525509802186,
0.10528678304239401,0.015948957669896603,
0.10533665835411471,0.01863227440718078,
0.1053865336658354,0.026912424874485544,
0.10543640897755611,0.022999878406853306,
0.10548628428927681,0.029401346939244496,
0.1055361596009975,0.03690525024586444,
0.1055860349127182,0.009904211713638414,
0.1056359102244389,0.0055229728955852285,
0.10568578553615961,0.032710706699163636,
0.1057356608478803,0.013889759409355187,
0.105785536159601,0.018950312886464937,
0.1058354114713217,0.01603841112616842,
0.10588528678304239,0.021827666438163865,
0.10593516209476309,0.02933900549925305,
0.1059850374064838,0.013934138978201154,
0.10603491271820449,0.019050549778068755,
0.10608478802992519,0.005888977356770325,
0.10613466334164588,0.02638598933330137,
0.10618453865336658,0.042078946379865326,
0.10623441396508729,0.03661576734368837,
0.10628428927680798,0.019864474781227076,
0.10633416458852868,0.020433940691434668,
0.10638403990024937,0.016011109212870314,
0.10643391521197007,0.03127057758530676,
0.10648379052369077,0.020332589994856272,
0.10653366583541148,0.017997830095446463,
0.10658354114713217,0.0363006998270375,
0.10663341645885287,0.0023662600656091277,
0.10668329177057356,0.006014031527656075,
0.10673316708229426,0.025921916709473657,
0.10678304239401497,0.04656198511811854,
0.10683291770573566,0.0016093952628143463,
0.10688279301745636,0.03553842407942657,
0.10693266832917706,0.031311533799224286,
0.10698254364089775,0.04165223354610288,
0.10703241895261846,-0.004265086204781214,
0.10708229426433916,0.025587526996685084,
0.10713216957605985,0.031350014343562604,
0.10718204488778055,0.06047088513610466,
0.10723192019950124,0.011264315131491183,
0.10728179551122194,0.02790577870355219,
0.10733167082294265,0.03879277804253746,
0.10738154613466334,0.025926460202810152,
0.10743142144638404,0.03331770117667125,
0.10748129675810474,0.039924003792046796,
0.10753117206982543,0.029486312214293094,
0.10758104738154614,0.024272700717925217,
0.10763092269326684,0.04998862191508752,
0.10768079800498753,0.03761951178276464,
0.10773067331670823,0.014230069524568425,
0.10778054862842892,0.022376587300140482,
0.10783042394014962,0.03042279159377127,
0.10788029925187033,0.014092387052104225,
0.10793017456359102,0.0031546131415796375,
0.10798004987531172,0.06349963663276798,
0.10802992518703242,0.009441324234357135,
0.10807980049875311,0.02532020823680413,
0.10812967581047382,0.02853603470304358,
0.10817955112219452,0.04052267470749895,
0.10822942643391521,0.025018627775451496,
0.10827930174563591,0.016820989396047398,
0.1083291770573566,0.03828418086000848,
0.1083790523690773,0.04228790797538942,
0.10842892768079801,0.0224470554603123,
0.1084788029925187,0.025603105648209848,
0.1085286783042394,0.036880629696078304,
0.1085785536159601,0.048021566665782,
0.10862842892768079,0.045788466305150474,
0.1086783042394015,0.028058943967405096,
0.1087281795511222,0.034955288607201346,
0.1087780548628429,0.013703944882828785,
0.10882793017456359,0.007624566902363631,
0.10887780548628428,0.01893898947034334,
0.108927680798005,0.034885497554709224,
0.10897755610972569,0.027600610598671454,
0.10902743142144639,0.028566672102543867,
0.10907730673316708,-0.0004427928411564058,
0.10912718204488778,0.026820135979430264,
0.10917705735660847,0.022245708516161485,
0.10922693266832918,0.017286522900937185,
0.10927680798004988,0.024723354995388233,
0.10932668329177057,0.034160954236667485,
0.10937655860349127,0.0292344060498811,
0.10942643391521197,0.03794585910511357,
0.10947630922693267,0.022154949489769746,
0.10952618453865337,0.028686380973083334,
0.10957605985037407,0.031651139487978194,
0.10962593516209476,0.03640342921572461,
0.10967581047381546,0.014401801172738512,
0.10972568578553615,0.07030672857413972,
0.10977556109725686,0.019433133645281913,
0.10982543640897756,0.018175392561084816,
0.10987531172069825,0.020629355562924532,
0.10992518703241895,0.015457945851257428,
0.10997506234413965,0.054518639814526294,
0.11002493765586036,0.047402492760674805,
0.11007481296758105,0.008805829636980497,
0.11012468827930175,0.03874557475073964,
0.11017456359102244,0.02216381754592671,
0.11022443890274314,0.03991345226034425,
0.11027431421446383,0.01688159693713171,
0.11032418952618454,0.007850302886068278,
0.11037406483790524,0.01947111401279137,
0.11042394014962593,0.034451309025643743,
0.11047381546134663,0.0376318258496289,
0.11052369077306733,0.006687479818179945,
0.11057356608478804,0.036698996190568975,
0.11062344139650873,0.043406116354024145,
0.11067331670822943,0.02569180076704972,
0.11072319201995012,0.003680923840705886,
0.11077306733167082,0.007375538654041877,
0.11082294264339151,0.020276596160480862,
0.11087281795511222,0.016948357583766532,
0.11092269326683292,0.007798807289526191,
0.11097256857855362,0.010531631903401076,
0.11102244389027431,0.0314973963290283,
0.111072319201995,0.017496833653585116,
0.11112219451371572,0.025356653322997056,
0.11117206982543641,0.009743411999954649,
0.11122194513715711,0.042306941603312595,
0.1112718204488778,0.031083136079442138,
0.1113216957605985,0.031522071659947734,
0.11137157107231921,-0.001763578580825001,
0.1114214463840399,0.012798476608687562,
0.1114713216957606,-0.0018090099552437108,
0.1115211970074813,0.02114650432266934,
0.11157107231920199,0.020066846596228975,
0.11162094763092269,-0.009303027689041132,
0.1116708229426434,0.014450157984483866,
0.11172069825436409,0.014016268071151267,
0.11177057356608479,0.015684265534434964,
0.11182044887780548,0.0021473216994435454,
0.11187032418952618,0.002679919314142685,
0.11192019950124689,0.0020024580486402,
0.11197007481296758,0.03595962116943529,
0.11201995012468828,0.0053720942670106055,
0.11206982543640898,0.009642301178180449,
0.11211970074812967,0.03991977454279477,
0.11216957605985037,0.006485194017271768,
0.11221945137157108,0.0475414747920231,
0.11226932668329177,0.021735261591808858,
0.11231920199501247,0.0189024956115903,
0.11236907730673316,0.013472124179095704,
0.11241895261845386,0.015277095283621422,
0.11246882793017457,0.0016145662669100457,
0.11251870324189527,-0.003750322601658399,
0.11256857855361596,0.013513907767826301,
0.11261845386533666,0.04987911743779433,
0.11266832917705735,-0.004165075052526904,
0.11271820448877805,0.033836532528941886,
0.11276807980049876,0.02029632959530424,
0.11281795511221945,-0.007949548235207932,
0.11286783042394015,0.008686227895861888,
0.11291770573566084,0.012623385869809423,
0.11296758104738154,0.010873762615814641,
0.11301745635910225,0.0150529016251199,
0.11306733167082295,0.023089207550059145,
0.11311720698254364,-0.006845190402652351,
0.11316708229426434,-0.016890992347478713,
0.11321695760598503,-0.0010984215355426385,
0.11326683291770574,0.013608527789266387,
0.11331670822942644,-0.008379967204479536,
0.11336658354114713,0.018037489867543586,
0.11341645885286783,-0.0012577769504540032,
0.11346633416458853,0.01932717156953062,
0.11351620947630922,0.007220410448871605,
0.11356608478802993,0.025556714143043106,
0.11361596009975063,0.008430783155580612,
0.11366583541147132,-0.0038006179256643334,
0.11371571072319202,0.022216350624431468,
0.11376558603491271,0.008834764775369305,
0.11381546134663342,0.00247724509279023,
0.11386533665835412,0.0021801110248555627,
0.11391521197007481,0.003780574620023071,
0.11396508728179551,0.01619894314207479,
0.1140149625935162,0.0035219214622167457,
0.1140648379052369,-0.0020694668250159655,
0.11411471321695761,0.008762657502489262,
0.1141645885286783,0.006545431914480854,
0.114214463840399,0.04166762420854384,
0.1142643391521197,-0.013490673567269634,
0.1143142144638404,-0.011587608556148786,
0.1143640897755611,0.02237212615735453,
0.1144139650872818,-0.004920145308989381,
0.1144638403990025,-0.005116737405839464,
0.11451371571072319,0.010688436840695226,
0.11456359102244389,-0.01902814433067292,
0.11461346633416458,-0.01664064915786196,
0.11466334164588529,0.004383614255580441,
0.11471321695760599,0.005768553976077135,
0.11476309226932668,-0.018564984957185345,
0.11481296758104738,-0.0276419920022392,
0.11486284289276807,0.0035693214088894087,
0.11491271820448878,0.011123551802454707,
0.11496259351620948,-0.00864980290957655,
0.11501246882793018,-0.002491041423725128,
0.11506234413965087,0.010898798770869668,
0.11511221945137157,-0.01600573065735482,
0.11516209476309226,0.00913103216127351,
0.11521197007481297,-0.00116179177507706,
0.11526184538653367,-0.0033859321591786025,
0.11531172069825436,-0.011883830967738589,
0.11536159600997506,0.02980951676461384,
0.11541147132169575,0.010262573334981248,
0.11546134663341646,-0.020454722583478795,
0.11551122194513716,-0.018090113595763246,
0.11556109725685786,0.01720145485425726,
0.11561097256857855,-0.007355774492668827,
0.11566084788029925,-0.030039589734809455,
0.11571072319201996,0.021876636086846077,
0.11576059850374065,0.004505582428647905,
0.11581047381546135,0.00529349314984226,
0.11586034912718204,-0.00644675445999677,
0.11591022443890274,0.026254436805823962,
0.11596009975062344,-0.04335062050568747,
0.11600997506234415,-0.00011581398506503669,
0.11605985037406484,0.0010222547106830335,
0.11610972568578554,-0.012390910161628948,
0.11615960099750623,-0.0022204815729632,
0.11620947630922693,-0.03468407981459179,
0.11625935162094764,0.004657622917695916,
0.11630922693266833,0.020843009593939463,
0.11635910224438903,-0.00997327407572092,
0.11640897755610972,-0.021421847089714265,
0.11645885286783042,0.005785625703858302,
0.11650872817955112,-0.00014929073360566217,
0.11655860349127183,-0.01803615050677696,
0.11660847880299252,-0.017332252215410526,
0.11665835411471322,-0.009262746161547469,
0.11670822942643391,0.009980238661097908,
0.11675810473815461,-0.004104033278922626,
0.11680798004987532,0.0144160403900712,
0.11685785536159601,-0.01786472234728302,
0.11690773067331671,-0.03578086355290833,
0.1169576059850374,0.0018788425405836546,
0.1170074812967581,-0.013613927666206171,
0.1170573566084788,0.0027349428817416994,
0.1171072319201995,0.007386697951931443,
0.1171571072319202,0.003574358114331202,
0.1172069825436409,0.003962320049212709,
0.1172568578553616,0.002491836587737958,
0.11730673316708229,0.01606453540884764,
0.117356608478803,-0.03861937145146399,
0.1174064837905237,0.0016264700644824034,
0.11745635910224439,0.013424494869874657,
0.11750623441396509,-0.005988233569351507,
0.11755610972568578,0.0038406907777165968,
0.11760598503740648,-0.04939924494483662,
0.11765586034912719,0.005479172517276419,
0.11770573566084788,-0.028663822386141614,
0.11775561097256858,-0.032742918039655976,
0.11780548628428927,-0.0019469006528527802,
0.11785536159600997,-0.012843789471370057,
0.11790523690773068,-0.02603934127011151,
0.11795511221945137,-0.011420847351254253,
0.11800498753117207,-0.023544916097245856,
0.11805486284289277,-0.011393110048162442,
0.11810473815461346,-0.023745013535401642,
0.11815461346633417,0.018781590065963534,
0.11820448877805487,-0.0002106442812482949,
0.11825436408977556,-0.04825325553703837,
0.11830423940149626,-0.009425279517724268,
0.11835411471321695,-0.021067260614528162,
0.11840399002493765,-0.027208607804943323,
0.11845386533665836,-0.004295736160399915,
0.11850374064837906,-0.01083602049814883,
0.11855361596009975,-0.016378565927521672,
0.11860349127182045,-0.006628672177887386,
0.11865336658354114,-0.02030630027799362,
0.11870324189526185,0.003950753577723995,
0.11875311720698255,-0.0033633723106212196,
0.11880299251870324,-0.0006804656656559903,
0.11885286783042394,-0.019788640683540703,
0.11890274314214463,-0.0003758196795147599,
0.11895261845386533,0.008352689956420476,
0.11900249376558604,-0.040236065667900625,
0.11905236907730674,-0.009822138000010045,
0.11910224438902743,-0.01193012792506069,
0.11915211970074813,0.008574219660332658,
0.11920199501246882,-0.045972168829176555,
0.11925187032418953,-0.024131117767240636,
0.11930174563591023,0.0027751159644889088,
0.11935162094763092,0.006602669012062126,
0.11940149625935162,0.005390561342434479,
0.11945137157107232,-0.019114629199006562,
0.11950124688279301,-0.024477579727701697,
0.11955112219451372,-0.019341069096243002,
0.11960099750623442,-0.010044889161548071,
0.11965087281795511,0.009271905184221389,
0.11970074812967581,-0.019771112915515806,
0.1197506234413965,-0.022389520995941957,
0.11980049875311721,-0.03283499246651215,
0.11985037406483791,0.007912704525585948,
0.1199002493765586,-0.01025276261724472,
0.1199501246882793,-0.010128942521198971,
0.12,-0.019814718044413784,
0.1200498753117207,-0.01789754552838521,
0.1200997506234414,-0.003949632187743403,
0.1201496259351621,-0.02205211144233303,
0.12019950124688279,0.002378121439545666,
0.12024937655860349,-0.002811689308818165,
0.12029925187032418,-0.007475018133420487,
0.1203491271820449,0.001319839802673541,
0.12039900249376559,0.011208622164301806,
0.12044887780548628,-0.043762305076291766,
0.12049875311720698,-0.0023110892823395212,
0.12054862842892768,-0.00618173488806246,
0.12059850374064839,-0.006041002859025275,
0.12064837905236908,-0.016805670171291996,
0.12069825436408978,-0.011313103655343097,
0.12074812967581047,-0.021749745964357033,
0.12079800498753117,-0.03127549083600645,
0.12084788029925186,-0.026035425884934366,
0.12089775561097257,-0.0191447780479412,
0.12094763092269327,0.0032132532094939657,
0.12099750623441397,0.007656820031171787,
0.12104738154613466,-0.017426627706226695,
0.12109725685785536,0.007386847048024928,
0.12114713216957607,-0.005890079716363243,
0.12119700748129676,0.0216435709309508,
0.12124688279301746,-0.007320335891826885,
0.12129675810473815,0.024966855516388876,
0.12134663341645885,0.013102039226457541,
0.12139650872817954,-0.013389522965278903,
0.12144638403990025,0.013398893692230757,
0.12149625935162095,-0.009635623142328369,
0.12154613466334165,-0.002141503952877949,
0.12159600997506234,-0.025977954250022216,
0.12164588528678304,-0.028531893060940845,
0.12169576059850375,0.00064560223065746,
0.12174563591022444,0.013637488656540927,
0.12179551122194514,0.009504355509680658,
0.12184538653366583,-0.022262057812539406,
0.12189526184538653,-0.01266978142800268,
0.12194513715710723,-0.012898027507990434,
0.12199501246882793,0.006005090524439578,
0.12204488778054863,0.005491005133437256,
0.12209476309226933,-0.003547745482873315,
0.12214463840399002,0.002528486812789792,
0.12219451371571072,-0.025416969241302916,
0.12224438902743143,0.007972872711630248,
0.12229426433915212,-0.010040078263299508,
0.12234413965087282,0.021651929727320766,
0.12239401496259351,0.006428622976249537,
0.12244389027431421,-0.012877675787530601,
0.12249376558603492,-0.0006521948554997076,
0.12254364089775562,-0.0038608419439581897,
0.12259351620947631,0.005333780859817535,
0.122643391521197,0.009829065841412332,
0.1226932668329177,0.0010740958932384847,
0.1227431421446384,0.018663571023464727,
0.12279301745635911,-0.003498976930455866,
0.1228428927680798,-0.0032825474098652826,
0.1228927680798005,0.005738500457831716,
0.1229426433915212,0.02246684264287828,
0.12299251870324189,-0.013561325565406908,
0.1230423940149626,0.0063965448432243,
0.1230922693266833,0.02259626046902471,
0.12314214463840399,0.027682316067300483,
0.12319201995012469,0.0039152036227665865,
0.12324189526184538,0.0181075493930172,
0.12329177057356608,0.0039669677275724164,
0.12334164588528679,0.0010354634499902173,
0.12339152119700748,0.015418212372941806,
0.12344139650872818,-0.014080225372391798,
0.12349127182044888,-0.0002106773956986243,
0.12354114713216957,-0.009008850059192258,
0.12359102244389028,0.004163334115470017,
0.12364089775561098,0.011377960488693578,
0.12369077306733167,0.007406370872309316,
0.12374064837905237,-0.010317554704857138,
0.12379052369077306,-0.00708018960382744,
0.12384039900249376,0.038913654492070515,
0.12389027431421447,-0.0013878013260635522,
0.12394014962593516,0.020279359324315425,
0.12399002493765586,0.006550309254193094,
0.12403990024937656,0.022388844945398865,
0.12408977556109725,0.03407993239224369,
0.12413965087281796,0.008456804804823128,
0.12418952618453866,0.03357084689879604,
0.12423940149625935,0.025469886890660688,
0.12428927680798005,0.022677988872368833,
0.12433915211970074,0.013549564143501846,
0.12438902743142144,0.0255360979229405,
0.12443890274314215,0.017415394447461274,
0.12448877805486284,0.042770892635599383,
0.12453865336658354,0.0306035494080494,
0.12458852867830424,-0.014941237687613542,
0.12463840399002493,0.008375022787535439,
0.12468827930174564,0.016513182619981092,
0.12473815461346634,0.00789731334096393,
0.12478802992518703,0.030186617053774394,
0.12483790523690773,-0.01748010352559448,
0.12488778054862842,-0.00791673228821075,
0.12493765586034913,0.004742832027113508,
0.12498753117206983,0.012965618667028549,
0.12503740648379053,0.025978651063618408,
0.12508728179551123,0.012254903413730669,
0.12513715710723192,0.0473457177592007,
0.12518703241895263,0.03838745321221317,
0.1252369077306733,0.05278409081072853,
0.12528678304239402,0.0030501782173956438,
0.1253366583541147,0.007295814676344752,
0.1253865336658354,0.014042613014104146,
0.12543640897755612,0.0542930108327283,
0.1254862842892768,0.036565808808861566,
0.1255361596009975,0.02547037284965387,
0.1255860349127182,-0.004477070511762882,
0.1256359102244389,0.02796329223272499,
0.1256857855361596,0.018036879720319275,
0.1257356608478803,0.06785562635982476,
0.125785536159601,0.04795869132259789,
0.12583541147132168,0.019260116121640428,
0.1258852867830424,0.01199786912647745,
0.1259351620947631,0.016382167555468577,
0.12598503740648379,0.03957535903001934,
0.1260349127182045,0.03644941701036576,
0.12608478802992518,0.05755124435363507,
0.1261346633416459,0.023146005728503796,
0.1261845386533666,0.024830031728544408,
0.12623441396508728,0.02110596905033573,
0.126284289276808,0.011413806599533673,
0.12633416458852867,0.006935186776081775,
0.12638403990024938,0.02252804955881641,
0.1264339152119701,0.029365880000177036,
0.12648379052369077,0.0240418278650238,
0.12653366583541148,0.03885447033229799,
0.12658354114713216,0.034056369153849284,
0.12663341645885287,0.0227846484587913,
0.12668329177057355,0.018437790885032553,
0.12673316708229426,0.03186179877392505,
0.12678304239401497,0.01916564326575436,
0.12683291770573565,0.03357077928315375,
0.12688279301745636,0.034054922418063786,
0.12693266832917705,0.011000835828625221,
0.12698254364089775,0.026036309974700363,
0.12703241895261846,0.0488591309121751,
0.12708229426433915,0.0033527123159390153,
0.12713216957605986,0.03299214392005778,
0.12718204488778054,0.0032870159678573714,
0.12723192019950125,0.026768751632056952,
0.12728179551122196,0.03900485466970562,
0.12733167082294264,0.02109600674800261,
0.12738154613466335,0.026868010061601444,
0.12743142144638403,0.03428934506981795,
0.12748129675810474,0.025046253331184574,
0.12753117206982545,0.011666423850501203,
0.12758104738154613,0.021321456699450153,
0.12763092269326684,0.047512679743510686,
0.12768079800498752,0.06583229982910149,
0.12773067331670823,0.05746885659868229,
0.1277805486284289,0.01905024420490086,
0.12783042394014962,0.025075582303278714,
0.12788029925187033,-0.0032135479864238946,
0.12793017456359101,0.0565654406453716,
0.12798004987531172,0.044454595876226945,
0.1280299251870324,0.030764706442104096,
0.12807980049875312,0.024334631534351475,
0.12812967581047383,0.011673449172314023,
0.1281795511221945,0.05124264437474181,
0.12822942643391522,0.03199542454672324,
0.1282793017456359,0.012238992428301725,
0.1283291770573566,0.03873416165960908,
0.12837905236907732,0.03766013227910812,
0.128428927680798,0.04512822844930173,
0.1284788029925187,0.04705254715422415,
0.1285286783042394,0.042591234311041844,
0.1285785536159601,0.04067688579735171,
0.1286284289276808,0.0496760780688615,
0.1286783042394015,0.0479384090359474,
0.1287281795511222,0.028763319061124285,
0.12877805486284288,0.032189545352669754,
0.1288279301745636,0.03661498909619737,
0.1288778054862843,0.003832311347596852,
0.12892768079800498,0.03245190429929159,
0.1289775561097257,0.0031634576540593325,
0.12902743142144638,0.010883066901765572,
0.12907730673316709,0.04992092576754804,
0.12912718204488777,0.03929450085511441,
0.12917705735660848,0.02620126016647119,
0.1292269326683292,0.03740003524601547,
0.12927680798004987,0.02642304045179787,
0.12932668329177058,0.015266772471503612,
0.12937655860349126,0.04068872176982357,
0.12942643391521197,0.027330343626512568,
0.12947630922693268,0.05398459950339918,
0.12952618453865336,0.04612242733252127,
0.12957605985037407,0.031269718372386374,
0.12962593516209475,0.025489554404585217,
0.12967581047381546,0.029515158996808386,
0.12972568578553617,0.027925909831393102,
0.12977556109725685,0.021991414057284477,
0.12982543640897756,0.016214589649926385,
0.12987531172069824,0.0035541152421163236,
0.12992518703241895,0.020847265926213283,
0.12997506234413966,0.03506896702150766,
0.13002493765586035,0.012547968366443547,
0.13007481296758105,0.034721354043282006,
0.13012468827930174,0.03069481212448072,
0.13017456359102245,0.029141078195288987,
0.13022443890274316,0.025767585295392477,
0.13027431421446384,0.039506383670424056,
0.13032418952618455,0.04170569505469009,
0.13037406483790523,0.05392430147933866,
0.13042394014962594,0.0030269340758317213,
0.13047381546134662,0.00559530595814562,
0.13052369077306733,0.02419656849315297,
0.13057356608478804,0.003949213569902278,
0.13062344139650872,0.02457360635695318,
0.13067331670822943,0.015134309041112797,
0.1307231920199501,0.03661400688905972,
0.13077306733167082,0.021226858797180177,
0.13082294264339153,0.002828841286402116,
0.13087281795511221,0.02724082926774905,
0.13092269326683292,0.026995303494026127,
0.1309725685785536,0.03312875687952505,
0.13102244389027431,0.017824682307845462,
0.13107231920199502,0.004516053406877583,
0.1311221945137157,0.021758859301096764,
0.13117206982543642,0.02066014433355208,
0.1312219451371571,0.03855677080445982,
0.1312718204488778,0.023516000952392025,
0.13132169576059852,0.04894682720443584,
0.1313715710723192,0.01938529383228588,
0.1314214463840399,0.021602396938304368,
0.1314713216957606,-0.0001926601373779327,
0.1315211970074813,0.006057427369823357,
0.13157107231920198,0.008501704545012125,
0.1316209476309227,0.030387685340659144,
0.1316708229426434,0.0333627044484937,
0.13172069825436408,0.014994088733380082,
0.1317705735660848,0.018592044051936027,
0.13182044887780547,0.020090115591888853,
0.13187032418952618,0.011028454320026622,
0.1319201995012469,0.035044509013545125,
0.13197007481296757,-0.009882203267529383,
0.13201995012468828,-0.012841430852667365,
0.13206982543640897,0.02328711116318288,
0.13211970074812968,0.008013746040478841,
0.13216957605985039,0.021660809022913972,
0.13221945137157107,0.015347382686237135,
0.13226932668329178,-0.012535022063133037,
0.13231920199501246,0.04814274524247557,
0.13236907730673317,0.009728075528525799,
0.13241895261845388,0.014530821993308959,
0.13246882793017456,-0.008392321368131186,
0.13251870324189527,0.008992115006980573,
0.13256857855361595,0.012193099079170428,
0.13261845386533666,0.013992610307517148,
0.13266832917705737,0.009149571350200749,
0.13271820448877805,0.009794499665133806,
0.13276807980049876,0.000232467671407598,
0.13281795511221944,-0.00806303022045973,
0.13286783042394015,0.046127787316614,
0.13291770573566083,0.001947920100853883,
0.13296758104738154,-0.01055221402536385,
0.13301745635910225,0.05007360715413936,
0.13306733167082294,-0.000557020257191846,
0.13311720698254365,0.02689568291855126,
0.13316708229426433,-0.01345539503150112,
0.13321695760598504,0.027634319988578362,
0.13326683291770575,-0.018897202544537438,
0.13331670822942643,0.011151493358085383,
0.13336658354114714,-0.005835364374904891,
0.13341645885286782,-0.016461676180229215,
0.13346633416458853,0.004890604820287255,
0.13351620947630924,0.028851614675022223,
0.13356608478802992,0.018353577585737642,
0.13361596009975063,0.010833867623565233,
0.1336658354114713,-0.0027374373473968592,
0.13371571072319202,0.014415420003765365,
0.13376558603491273,-0.0020517524747624,
0.1338154613466334,0.002928965885537623,
0.13386533665835412,0.008165093526511034,
0.1339152119700748,-0.010305502576304373,
0.13396508728179551,0.008656163855742326,
0.1340149625935162,-0.009823705754573381,
0.1340648379052369,0.026527379957843378,
0.13411471321695762,0.019102973555433167,
0.1341645885286783,0.0145251249822743,
0.134214463840399,0.008438857561849164,
0.1342643391521197,0.011810824135348832,
0.1343142144638404,-0.011990104089018017,
0.1343640897755611,0.003756688932972699,
0.1344139650872818,0.019831470154055435,
0.1344638403990025,-0.013220205828918813,
0.13451371571072318,-0.006065817088580117,
0.1345635910224439,0.004266108037098635,
0.1346134663341646,0.0017646434801923537,
0.13466334164588528,-0.0083403959971792,
0.134713216957606,0.013571823132161966,
0.13476309226932667,0.02659101883284146,
0.13481296758104738,-0.00014601809690932695,
0.1348628428927681,-0.014508125777281493,
0.13491271820448877,-0.005690213878366614,
0.13496259351620948,0.02006101501958421,
0.13501246882793017,-0.014024467748170079,
0.13506234413965088,-0.004099273191960183,
0.13511221945137158,-0.03204843350846008,
0.13516209476309227,-0.013714977948641278,
0.13521197007481298,-0.014538225933292747,
0.13526184538653366,-0.017353088907071466,
0.13531172069825437,-0.014095639834128797,
0.13536159600997505,0.009179051021981468,
0.13541147132169576,0.006544254590323295,
0.13546134663341647,-0.0058677458793884975,
0.13551122194513715,0.006622448358419273,
0.13556109725685786,0.0016120669425246127,
0.13561097256857854,-0.029123541605103345,
0.13566084788029925,-0.005959189443536586,
0.13571072319201996,0.005187677143576607,
0.13576059850374064,-0.005506441958599576,
0.13581047381546135,0.006395364520980098,
0.13586034912718203,-0.028406956882924106,
0.13591022443890274,-0.0026651331716518794,
0.13596009975062345,0.0015824268309874738,
0.13600997506234414,-0.01785147383682219,
0.13605985037406484,0.028609901338829048,
0.13610972568578553,-0.03951563315332694,
0.13615960099750624,0.0018829624249707515,
0.13620947630922695,-0.010254872866155926,
0.13625935162094763,0.014053952856926108,
0.13630922693266834,0.010144618106913162,
0.13635910224438902,0.0017971831940205175,
0.13640897755610973,-0.014545976500012145,
0.1364588528678304,-0.0004815428798164252,
0.13650872817955112,-0.0005804216287043857,
0.13655860349127183,-0.005564092828447591,
0.1366084788029925,-0.02014537134344569,
0.13665835411471322,-0.012085543730950886,
0.1367082294264339,-0.026335908746800342,
0.1367581047381546,-0.022729228925490674,
0.13680798004987532,-0.006440831099887068,
0.136857855361596,0.0013282431773693707,
0.1369077306733167,-0.0054593996176544295,
0.1369576059850374,-0.028353089405890874,
0.1370074812967581,-0.022862164394972594,
0.13705735660847881,0.00026449599710957027,
0.1371072319201995,-0.005336339920481534,
0.1371571072319202,-0.0001404820008280728,
0.1372069825436409,-0.005971485120171255,
0.1372568578553616,-0.0056953684435999685,
0.1373067331670823,-0.0031642775339111176,
0.137356608478803,-0.0038077819723117065,
0.1374064837905237,-0.028564701631181116,
0.13745635910224438,-0.01200148391698908,
0.1375062344139651,-0.0071924571169064205,
0.1375561097256858,-0.002234588657151794,
0.13760598503740648,0.017928444547103954,
0.1376558603491272,-0.015012875713689394,
0.13770573566084787,-0.015911432065824405,
0.13775561097256858,-0.03253670337048261,
0.13780548628428926,0.0033888094121274255,
0.13785536159600997,0.010310255399717857,
0.13790523690773068,-0.0413586400356952,
0.13795511221945136,-0.01967950519609777,
0.13800498753117207,0.02633330994055199,
0.13805486284289276,-0.00628332879415184,
0.13810473815461347,-0.007038162235607791,
0.13815461346633418,0.011054873239746564,
0.13820448877805486,-0.010893511011265926,
0.13825436408977557,0.001809403298625445,
0.13830423940149625,0.005709545431958169,
0.13835411471321696,0.012619739552764613,
0.13840399002493767,-0.01921961542346328,
0.13845386533665835,-0.009050618048491903,
0.13850374064837906,-0.04136985122840771,
0.13855361596009974,-0.027223163582539237,
0.13860349127182045,-0.004522836860122104,
0.13865336658354116,-0.003728530710378761,
0.13870324189526184,-0.006680955061943277,
0.13875311720698255,0.015274547916713354,
0.13880299251870323,-0.03397284429911624,
0.13885286783042394,-0.018008807973354184,
0.13890274314214462,-0.007879506424638649,
0.13895261845386533,0.005492551010050072,
0.13900249376558604,-0.011133746289171569,
0.13905236907730673,0.005412121629417453,
0.13910224438902744,-0.018819249557880138,
0.13915211970074812,0.007751644268773377,
0.13920199501246883,-0.009291817734536495,
0.13925187032418954,0.0029782581042243246,
0.13930174563591022,0.024643505059069253,
0.13935162094763093,-0.0287631744071388,
0.1394014962593516,-0.0022339771000453694,
0.13945137157107232,-0.03394967400368162,
0.13950124688279303,-0.009086574982884068,
0.1395511221945137,0.008156387218809033,
0.13960099750623442,0.009211067788059968,
0.1396508728179551,-0.0089522501220799,
0.1397007481296758,0.0008919570499108121,
0.13975062344139652,0.027735992849209603,
0.1398004987531172,-0.028538402788355153,
0.1398503740648379,-0.0016272437324102267,
0.1399002493765586,-0.0019258015737161384,
0.1399501246882793,0.007705034855819469,
0.14,0.002860128447459139,
0.1400498753117207,-0.00906582053728361,
0.1400997506234414,-0.011336227814769406,
0.1401496259351621,-0.011656311942976467,
0.1401995012468828,0.004635327395374363,
0.14024937655860348,-0.011047176924646507,
0.1402992518703242,-0.027389587085588474,
0.1403491271820449,0.011174484324235267,
0.14039900249376558,0.006173997057453095,
0.1404488778054863,0.02819447172061187,
0.14049875311720697,0.01148065360715259,
0.14054862842892768,-0.0024077152113882224,
0.1405985037406484,-0.012956349640857028,
0.14064837905236907,-0.007994705681568973,
0.14069825436408978,0.010910548360677346,
0.14074812967581046,-0.007876344190528989,
0.14079800498753117,-0.012710125303615783,
0.14084788029925188,0.013633589985965838,
0.14089775561097256,0.008248302028625393,
0.14094763092269327,-0.020196493921915866,
0.14099750623441396,-0.019270106457954572,
0.14104738154613466,0.007585708417153525,
0.14109725685785537,0.0020416944025969156,
0.14114713216957606,0.02414513205180787,
0.14119700748129677,-0.000548636088106171,
0.14124688279301745,0.007240365139070064,
0.14129675810473816,-0.014107546131426112,
0.14134663341645887,-0.010143663596576662,
