time,amplitude,label
0.0,-0.014346355585825758,
4.987531172069826e-05,-0.01526230973741186,
9.975062344139652e-05,-0.030800395512500352,
0.00014962593516209475,-0.003423757136949661,
0.00019950124688279303,-0.010594835215713288,
0.00024937655860349125,-0.003430409394551524,
0.0002992518703241895,-0.012388977143264755,
0.00034912718204488776,0.0033394787626046807,
0.00039900249376558606,0.009057749415167245,
0.0004488778054862843,-0.016830037379421153,
0.0004987531172069825,-0.01647874177309336,
0.0005486284289276808,-0.006251466526631232,
0.000598503740648379,-0.02330644698142176,
0.0006483790523690773,-0.020262326884463694,
0.0006982543640897755,-0.02964890186328094,
0.0007481296758104738,0.009179122417749732,
0.0007980049875311721,-0.0007114778177239912,
0.0008478802992518703,-0.01345849957495384,
0.0008977556109725686,-0.025301129904351512,
0.0009476309226932668,0.017940065372913743,
0.000997506234413965,-0.025997684197980563,
0.0010473815461346633,-0.04060371117541493,
0.0010972568578553616,-0.025846127333236213,
0.00114713216957606,-0.019781906480579436,
0.001197007481296758,-0.014452632924825142,
0.0012468827930174563,-0.004690604744032628,
0.0012967581047381546,-0.02825945796864351,
0.001346633416458853,0.009968148242198265,
0.001396508728179551,-0.00992008528674113,
0.0014463840399002493,-0.03890577988010656,
0.0014962593516209476,-0.005442585432286762,
0.001546134663341646,-0.0344435758030341,
0.0015960099750623442,-0.02630922918408288,
0.0016458852867830423,-0.031074665776348973,
0.0016957605985037406,-0.043774064131986416,
0.001745635910224439,0.0036860105549864006,
0.0017955112219451373,-0.03376621214476519,
0.0018453865336658353,-0.0016698369342878112,
0.0018952618453865336,-0.012435007554192601,
0.001945137157107232,-0.03088289413520516,
0.00199501246882793,-0.0005202991830633961,
0.0020448877805486283,-0.017504413275811054,
0.0020947630922693266,-0.019813063910680627,
0.002144638403990025,-0.015114267354855859,
0.0021945137157107233,-0.04789936269121583,
0.0022443890274314216,-5.889230990132471e-05,
0.00229426433915212,-0.018261212941253685,
0.0023441396508728177,-0.01800757556601202,
0.002394014962593516,-0.01863190277625625,
0.0024438902743142144,-0.04394585337716313,
0.0024937655860349127,0.002475831224152795,
0.002543640897755611,-0.033656858588735496,
0.0025935162094763093,-0.020821894473801443,
0.0026433915211970076,-0.033039913699123305,
0.002693266832917706,-0.00524106252341835,
0.002743142144638404,-0.0008649304437345386,
0.002793017456359102,-0.025130573557330255,
0.0028428927680798004,-0.012087263790252913,
0.0028927680798004987,-0.02806665899307961,
0.002942643391521197,-0.03290413085359216,
0.0029925187032418953,-0.01884624060923691,
0.0030423940149625936,-0.020376594198827043,
0.003092269326683292,-0.0001894514703351946,
0.00314214463840399,-0.045823390919821294,
0.0031920199501246885,-0.025781178090496383,
0.0032418952618453864,-0.01738954458665117,
0.0032917705735660847,-0.03714124329610263,
0.003341645885286783,-0.022410601290164832,
0.0033915211970074813,-0.019914718911325777,
0.0034413965087281796,-0.0004995759461618975,
0.003491271820448878,0.000982529547829479,
0.003541147132169576,-0.038817918463730956,
0.0035910224438902745,-0.010598494977909798,
0.0036408977556109724,-0.03886855963635319,
0.0036907730673316707,-0.027157222567531933,
0.003740648379052369,-0.02489676272857412,
0.0037905236907730673,-0.0019213014129408797,
0.0038403990024937656,-0.013641139416164618,
0.003890274314214464,-0.015983127398311127,
0.003940149625935162,0.001734500181049068,
0.00399002493765586,-0.005970213905965185,
0.004039900249376558,-0.0005319402361993256,
0.004089775561097257,-0.017572228993608142,
0.004139650872817955,-0.018836697964090102,
0.004189526184538653,-0.016447182098836142,
0.004239401496259352,-0.0019045966481404508,
0.00428927680798005,0.0036473965291002174,
0.004339152119700748,-0.007618463478635383,
0.0043890274314214465,-0.04436440834159549,
0.004438902743142145,-0.02602574481039573,
0.004488778054862843,0.00016678872584685242,
0.004538653366583541,-0.04549663609080407,
0.00458852867830424,-0.028661352723365056,
0.004638403990024938,-0.014507175535022041,
0.0046882793017456355,0.01663693995654844,
0.004738154613466334,-0.020777398538714194,
0.004788029925187032,0.00663230062519966,
0.00483790523690773,-0.019258453679653315,
0.004887780548628429,-0.039574190944803626,
0.004937655860349127,-0.034279037273886356,
0.004987531172069825,0.005540273671995166,
0.005037406483790524,-0.01123341856325308,
0.005087281795511222,-0.0157845777900881,
0.00513715710723192,-0.0011564438490636667,
0.0051870324189526185,-0.010195446352764863,
0.005236907730673317,-0.018029953310610015,
0.005286783042394015,-0.04090549629929923,
0.0053366583541147134,-0.02682434914619191,
0.005386533665835412,-0.012504799206654224,
0.00543640897755611,-0.014761455054880142,
0.005486284289276808,-0.023906567431891103,
0.005536159600997507,0.0014060214569610735,
0.005586034912718204,0.0016377813722319428,
0.005635910224438902,-0.01731842657640381,
0.005685785536159601,-2.359565476317549e-05,
0.005735660847880299,0.00619077190445614,
0.005785536159600997,-0.01208710222130421,
0.005835411471321696,-0.002789218721778325,
0.005885286783042394,-0.00963130523316116,
0.005935162094763092,-0.010057358855065712,
0.0059850374064837905,-0.02093635826965823,
0.006034912718204489,0.013088047648715928,
0.006084788029925187,-0.005418325031054071,
0.0061346633416458855,0.021267588302297715,
0.006184538653366584,0.015193355856676641,
0.006234413965087282,0.010404750558382303,
0.00628428927680798,-0.03301919941354599,
0.006334164588528679,-0.011467642782569388,
0.006384039900249377,-0.01022754385330724,
0.006433915211970074,-0.0070686293354347346,
0.006483790523690773,-0.030149850711417868,
0.006533665835411471,0.0029292652627374975,
0.006583541147132169,-0.0005859923291125653,
0.006633416458852868,-0.016531266937985324,
0.006683291770573566,0.00885590262560508,
0.006733167082294264,-0.018114466688006405,
0.0067830423940149626,0.005252431972502324,
0.006832917705735661,0.004964593775258333,
0.006882793017456359,-0.017010012202903588,
0.0069326683291770575,0.016801514595032135,
0.006982543640897756,0.01694002789456625,
0.007032418952618454,-0.018187705348306393,
0.007082294264339152,0.021902953087503244,
0.007132169576059851,0.014113463311227566,
0.007182044887780549,-0.0169727179076367,
0.007231920199501247,0.0026258751385214553,
0.007281795511221945,0.009788552178371728,
0.007331670822942643,0.016227300741248393,
0.007381546134663341,0.0017148031652558001,
0.00743142144638404,-0.016413035366319384,
0.007481296758104738,0.031504422802929186,
0.007531172069825436,-0.017212484629407627,
0.007581047381546135,-0.0018787315035724292,
0.007630922693266833,0.008322117604253883,
0.007680798004987531,-0.002740439774563494,
0.0077306733167082295,-0.006494296577713425,
0.007780548628428928,0.0006779160430693534,
0.007830423940149626,0.0012234226334580248,
0.007880299251870324,-0.0010595058210472862,
0.007930174563591023,-0.004093383584417611,
0.00798004987531172,0.02118646776353305,
0.00802992518703242,0.003840158339056811,
0.008079800498753117,0.017367292651435502,
0.008129675810473816,0.014396068257184638,
0.008179551122194513,0.02685893761259856,
0.008229426433915213,0.0234311273265256,
0.00827930174563591,0.024007155915738508,
0.00832917705735661,-0.01201604769000301,
0.008379052369077307,0.006126640349391565,
0.008428927680798006,-0.0016572415848540977,
0.008478802992518703,0.002830670770846565,
0.0085286783042394,0.018492826718919348,
0.0085785536159601,0.002657087611216107,
0.008628428927680797,-0.006149472143938595,
0.008678304239401496,-0.004056693030347185,
0.008728179551122194,0.013897084189242149,
0.008778054862842893,0.011740458098348436,
0.00882793017456359,0.004410569561715926,
0.00887780548628429,0.024885996976810702,
0.008927680798004987,0.017071708078935564,
0.008977556109725686,-0.02301078359243198,
0.009027431421446384,-0.0180658078279734,
0.009077306733167083,0.021479440497971868,
0.00912718204488778,0.024826289531327816,
0.00917705735660848,-0.005812531909329727,
0.009226932668329177,0.025477568632164528,
0.009276807980049876,0.018877586680260367,
0.009326683291770574,-0.010558823500886163,
0.009376558603491271,0.011260732593850645,
0.00942643391521197,0.018038220223387996,
0.009476309226932668,0.016695700617820504,
0.009526184538653367,0.02436941430900046,
0.009576059850374064,0.015030330201950597,
0.009625935162094763,0.023001009651732365,
0.00967581047381546,0.00861388798465184,
0.00972568578553616,0.02003959077643689,
0.009775561097256857,0.03002871466900278,
0.009825436408977557,0.014374024893490678,
0.009875311720698254,0.01091603279030549,
0.009925187032418953,0.01626214737809503,
0.00997506234413965,0.0009434100810162098,
0.01002493765586035,0.003288533647883415,
0.010074812967581047,0.023295448294639268,
0.010124688279301746,-0.010383852325202388,
0.010174563591022444,-0.0007951917459606654,
0.010224438902743141,0.01639241964186678,
0.01027431421446384,0.0113711103492528,
0.010324189526184538,0.023678722652791702,
0.010374064837905237,-0.005226513086265375,
0.010423940149625935,-0.007728865047749368,
0.010473815461346634,0.007783270314716784,
0.010523690773067331,0.020759593720218652,
0.01057356608478803,0.02809943216879266,
0.010623441396508728,0.029534818042029794,
0.010673316708229427,0.034766410010485055,
0.010723192019950124,0.0149761270459565,
0.010773067331670824,0.003088958185515144,
0.010822942643391521,0.024693512561730385,
0.01087281795511222,0.022475874173388075,
0.010922693266832918,0.017446756410773773,
0.010972568578553617,0.013395908536321827,
0.011022443890274314,0.01784322099553768,
0.011072319201995013,0.0036750251000259963,
0.01112219451371571,0.06532189704960131,
0.011172069825436408,0.022226437936217733,
0.011221945137157107,0.030881573758577634,
0.011271820448877805,-0.0025121268290473724,
0.011321695760598504,0.025514853968064365,
0.011371571072319201,0.027009133520698198,
0.0114214463840399,0.008051222167248167,
0.011471321695760598,0.007057784092833657,
0.011521197007481297,0.024495460457820195,
0.011571072319201995,0.020638036667283526,
0.011620947630922694,-0.00360569690969674,
0.011670822942643391,0.04805410501764666,
0.01172069825436409,0.029241036768698832,
0.011770573566084788,0.019604911428559215,
0.011820448877805487,0.026721153021315596,
0.011870324189526184,0.01419170783254423,
0.011920199501246884,0.030425434198743564,
0.011970074812967581,0.002091988847542397,
0.012019950124688279,0.039835635713003845,
0.012069825436408978,0.035455434496251735,
0.012119700748129675,0.025037308917339567,
0.012169576059850374,0.032237332718390584,
0.012219451371571072,0.02724974156629103,
0.012269326683291771,-0.005609361673759326,
0.012319201995012468,0.027064441954097667,
0.012369077306733168,0.005405986109453335,
0.012418952618453865,0.029176071766381963,
0.012468827930174564,0.022245374703728612,
0.012518703241895262,0.005019499569586552,
0.01256857855361596,0.013674290095961135,
0.012618453865336658,0.058571046957074525,
0.012668329177057357,0.030630504217446137,
0.012718204488778055,0.047266160744740285,
0.012768079800498754,0.01997612986349916,
0.012817955112219451,0.015378495529816788,
0.012867830423940149,0.01757618083627295,
0.012917705735660848,0.020173145995671875,
0.012967581047381545,0.021370725610456536,
0.013017456359102245,0.018380455398169248,
0.013067331670822942,0.0026641599847304943,
0.013117206982543641,0.01537214492810739,
0.013167082294264339,0.0046380720003745025,
0.013216957605985038,0.025777786631758434,
0.013266832917705735,0.013217477276847137,
0.013316708229426434,0.0022529189022176266,
0.013366583541147132,0.03403428848433097,
0.013416458852867831,0.020448868378907817,
0.013466334164588529,0.04068446266532541,
0.013516209476309228,0.007618311347328578,
0.013566084788029925,0.022440876313611302,
0.013615960099750624,0.0202876020137071,
0.013665835411471322,0.0034079829820065355,
0.01371571072319202,0.013442969861453095,
0.013765586034912718,0.012508701136367206,
0.013815461346633416,0.035250892202090926,
0.013865336658354115,-0.001614125150299059,
0.013915211970074812,-0.0013467825063978763,
0.013965087281795512,0.02093858482037869,
0.014014962593516209,0.0241811115217613,
0.014064837905236908,0.00479008917875599,
0.014114713216957606,0.028419053647703675,
0.014164588528678305,0.022453975931076918,
0.014214463840399002,-0.017791051976694994,
0.014264339152119701,0.04125741879641949,
0.014314214463840399,0.012364681211519428,
0.014364089775561098,0.006378801363522963,
0.014413965087281795,-0.012312865159551711,
0.014463840399002495,0.025423269356019493,
0.014513715710723192,0.01767263331972559,
0.01456359102244389,-0.0107395938948286,
0.014613466334164589,0.010779950242841705,
0.014663341645885286,0.04119115412660165,
0.014713216957605985,0.03340385440382883,
0.014763092269326683,0.042128941518397564,
0.014812967581047382,0.02292683697376027,
0.01486284289276808,0.015447077184630521,
0.014912718204488778,-0.00012000332132228522,
0.014962593516209476,0.014276841247519332,
0.015012468827930175,-0.012186832119966818,
0.015062344139650873,0.027778693774098227,
0.015112219451371572,0.016813466075524225,
0.01516209476309227,0.004051506274550101,
0.015211970074812968,-0.017776873898586242,
0.015261845386533666,0.007529292825895729,
0.015311720698254365,0.0398865114892958,
0.015361596009975062,-0.0013608767438701881,
0.01541147132169576,0.0018329845295331926,
0.015461346633416459,0.01571078276169566,
0.015511221945137156,0.00910393795301617,
0.015561097256857856,0.011843790338222155,
0.015610972568578553,0.018718702292627995,
0.015660847880299252,-0.017137231635993184,
0.01571072319201995,-0.0004088914572048588,
0.015760598503740647,0.01281492900175626,
0.015810473815461346,-0.007397760495002258,
0.015860349127182045,-0.010539418331124331,
0.015910224438902745,-0.009967539920539056,
0.01596009975062344,0.028971203319626708,
0.01600997506234414,0.00348426095951915,
0.01605985037406484,0.023441830726824292,
0.016109725685785538,0.014532219798315529,
0.016159600997506234,0.030435681705462524,
0.016209476309226933,0.01606336689149233,
0.016259351620947632,-0.0035483717186746153,
0.016309226932668328,0.0006129471856087185,
0.016359102244389027,0.00988421864774439,
0.016408977556109726,-0.016650747813516113,
0.016458852867830425,0.019940153917165707,
0.01650872817955112,0.012152971555532707,
0.01655860349127182,0.018727815776038437,
0.01660847880299252,-0.014929360052638115,
0.01665835411471322,0.021998895001684185,
0.016708229426433914,-0.0055189928777440375,
0.016758104738154613,0.011292363635613901,
0.016807980049875312,-0.0037970375336912766,
0.01685785536159601,-0.002073384037947109,
0.016907730673316707,-0.0023779159977780112,
0.016957605985037406,0.0046430282251420565,
0.017007481296758106,-0.00015182941777266566,
0.0170573566084788,0.004806300394898012,
0.0171072319201995,-0.01055168140146216,
0.0171571072319202,-0.012248542433845024,
0.0172069825436409,-0.015286113315681854,
0.017256857855361595,0.025983179142175294,
0.017306733167082294,-0.026515058572074028,
0.017356608478802993,0.0037564168257368086,
0.017406483790523692,0.00957916379060448,
0.017456359102244388,-0.033007084938034,
0.017506234413965087,0.011519863905302241,
0.017556109725685786,-0.0015594579665320486,
0.017605985037406485,-0.00012259335613863664,
0.01765586034912718,0.005364616823217429,
0.01770573566084788,-0.0007119872233226953,
0.01775561097256858,0.025358421944627018,
0.01780548628428928,0.0008607742837225137,
0.017855361596009974,-0.0028734717673952067,
0.017905236907730673,0.002395970263887502,
0.017955112219451373,-0.029676860118624266,
0.018004987531172068,-0.008229868307195808,
0.018054862842892767,-0.005007301300011339,
0.018104738154613467,0.005446402455060355,
0.018154613466334166,0.005720920853957777,
0.01820448877805486,0.01759593961924732,
0.01825436408977556,-0.014313079634716853,
0.01830423940149626,0.01814650816397725,
0.01835411471321696,-0.017583496754415576,
0.018403990024937655,-0.0019888920487529035,
0.018453865336658354,-0.019003842948565757,
0.018503740648379053,0.03062356507769163,
0.018553615960099752,0.00976494461502535,
0.018603491271820448,-0.028217477704518316,
0.018653366583541147,-0.0034171703902835552,
0.018703241895261846,-0.004910950316779659,
0.018753117206982542,-0.02580070571444179,
0.01880299251870324,0.005670306498821092,
0.01885286783042394,-0.01745191369768148,
0.01890274314214464,-0.004369689773368969,
0.018952618453865335,0.006302413371547886,
0.019002493765586034,0.01760318811208606,
0.019052369077306733,-0.013599376533386826,
0.019102244389027433,-0.0041331647619538715,
0.01915211970074813,-0.004680115715939547,
0.019201995012468828,0.0012402021509144937,
0.019251870324189527,-0.010990150670771654,
0.019301745635910226,0.00010496926768681705,
0.01935162094763092,-0.005914576067781735,
0.01940149625935162,-0.037983000061290004,
0.01945137157107232,0.0039242630561386015,
0.01950124688279302,-0.012675107623325415,
0.019551122194513715,-0.0006113693354198521,
0.019600997506234414,-0.028149523379910862,
0.019650872817955113,-0.02069658834137325,
0.01970074812967581,-0.011509926387434165,
0.019750623441396508,-0.023806677185701324,
0.019800498753117207,-8.10362950730871e-05,
0.019850374064837906,-0.008202690399463657,
0.019900249376558602,-0.025178232283228116,
0.0199501246882793,-0.03645159721612945,
0.02,-0.02777045310851395,
0.0200498753117207,-0.028050475319515,
0.020099750623441395,-0.029465887353473188,
0.020149625935162094,-0.03977393039472527,
0.020199501246882794,-0.01534607253690571,
0.020249376558603493,-0.017466663060010136,
0.02029925187032419,-0.02495805757654985,
0.020349127182044888,-0.024351871630503383,
0.020399002493765587,-0.0015388385368713432,
0.020448877805486283,-0.005774052506778713,
0.02049875311720698,-0.0008073722096218153,
0.02054862842892768,-0.017319930274307876,
0.02059850374064838,-0.039007309328647335,
0.020648379052369076,-0.019667536933963004,
0.020698254364089775,-0.0032289934587343087,
0.020748129675810474,-0.006591077085344432,
0.020798004987531173,-0.018684651176813245,
0.02084788029925187,-0.02640779521565291,
0.020897755610972568,-0.019142369324384328,
0.020947630922693267,-0.008934787942872224,
0.020997506234413967,-0.008881266049095652,
0.021047381546134662,-0.030526702467701144,
0.02109725685785536,-0.013919249688889157,
0.02114713216957606,-0.013852864787770426,
0.02119700748129676,-0.020160763119630144,
0.021246882793017455,-0.023151979932048778,
0.021296758104738155,-0.012703109102532943,
0.021346633416458854,-0.019343654173885144,
0.02139650872817955,-0.038112297897660415,
0.02144638403990025,-0.02925379087244947,
0.021496259351620948,-0.038877315247081434,
0.021546134663341647,-0.027275137458498536,
0.021596009975062343,-0.03068465564030214,
0.021645885286783042,-0.029492283651311287,
0.02169576059850374,-0.016099578317757428,
0.02174563591022444,-0.0003952030495677286,
0.021795511221945136,0.0013824870231505283,
0.021845386533665835,-0.02213252855957325,
0.021895261845386534,-0.015423535720907523,
0.021945137157107233,-0.013768964084050948,
0.02199501246882793,-0.031191157423788536,
0.02204488778054863,-0.0195502759481387,
0.022094763092269327,-0.024414500165595696,
0.022144638403990027,-0.005898663112395484,
0.022194513715710722,-0.008423196393197543,
0.02224438902743142,-0.009779171090187456,
0.02229426433915212,-0.058432192363442846,
0.022344139650872816,-0.031847168236322124,
0.022394014962593516,-0.03243773380990473,
0.022443890274314215,-0.028577247059929204,
0.022493765586034914,-0.011635663718963529,
0.02254364089775561,0.000376615223056688,
0.02259351620947631,-0.023698783297430602,
0.022643391521197008,-0.024430325253073426,
0.022693266832917707,0.013899417513032235,
0.022743142144638403,0.012667175958569591,
0.022793017456359102,-0.033293159423690794,
0.0228428927680798,-0.0072551814777592205,
0.0228927680798005,-0.03396385887345579,
0.022942643391521196,-0.01139378717659773,
0.022992518703241895,-0.0007468520137497194,
0.023042394014962594,-0.01571573021625311,
0.02309226932668329,-0.043057153838342674,
0.02314214463840399,-0.010629200807673421,
0.02319201995012469,-0.03284923439688352,
0.023241895261845388,-0.022854878448671727,
0.023291770573566083,-0.020919904574819945,
0.023341645885286783,-0.014499702274011731,
0.02339152119700748,-0.03943856257200963,
0.02344139650872818,-0.009324260951545553,
0.023491271820448877,-0.00977120362527732,
0.023541147132169576,-0.002360930380448068,
0.023591022443890275,-0.040434698187900554,
0.023640897755610974,-0.001666714129590149,
0.02369077306733167,-0.01380267937835631,
0.02374064837905237,-0.01616282543155842,
0.023790523690773068,-0.020323250194389526,
0.023840399002493767,-0.024656150391279004,
0.023890274314214463,-0.018739902177167485,
0.023940149625935162,-0.007857681124258652,
0.02399002493765586,-0.023387281445910485,
0.024039900249376557,-0.018522170589146708,
0.024089775561097256,-0.029918195679775182,
0.024139650872817955,-0.030778751425499913,
0.024189526184538655,0.003725448311861706,
0.02423940149625935,0.0015221669519055476,
0.02428927680798005,-0.025189056497012235,
0.02433915211970075,-0.01301493726041066,
0.024389027431421448,0.004849927312817196,
0.024438902743142144,-0.0038212760749699575,
0.024488778054862843,-0.04626224878508653,
0.024538653366583542,0.001690164175861382,
0.02458852867830424,-0.012857391854932324,
0.024638403990024937,0.0032528918892226737,
0.024688279301745636,0.03575414850645153,
0.024738154613466335,-0.02304583953924045,
0.02478802992518703,-0.009341017644284005,
0.02483790523690773,-0.030030307441520368,
0.02488778054862843,-0.01810682646924914,
0.02493765586034913,0.016612017382242102,
0.024987531172069824,-0.0137805346297363,
0.025037406483790523,-0.03360410341640489,
0.025087281795511222,-0.0026775814603131366,
0.02513715710723192,-0.03358149046383685,
0.025187032418952617,-0.019780040757668378,
0.025236907730673316,-0.010128776085418593,
0.025286783042394016,0.0024064611449913405,
0.025336658354114715,-0.024605829132665034,
0.02538653366583541,-0.005344864237334988,
0.02543640897755611,0.01818350201682771,
0.02548628428927681,-0.039196695843522374,
0.025536159600997508,-0.027888635233995086,
0.025586034912718204,-0.010976417618407399,
0.025635910224438903,-0.004308145271324847,
0.025685785536159602,-0.016983524587947694,
0.025735660847880298,-0.03061753224564665,
0.025785536159600997,-0.014178065185802068,
0.025835411471321696,-0.004312675029890287,
0.025885286783042395,0.00016766274795734434,
0.02593516209476309,-0.03024936439480489,
0.02598503740648379,-0.018705309670199614,
0.02603491271820449,0.0031281178996669518,
0.02608478802992519,0.02926666973593959,
0.026134663341645884,0.0059857774249851645,
0.026184538653366583,0.006011317608128485,
0.026234413965087282,-0.003569730311321981,
0.02628428927680798,0.009832005000436104,
0.026334164588528677,-0.005907680176455508,
0.026384039900249377,-0.010385195881420436,
0.026433915211970076,0.009345898248642327,
0.02648379052369077,0.00885527256737844,
0.02653366583541147,-0.016662415601577184,
0.02658354114713217,0.005936283199780521,
0.02663341645885287,0.003036668012795896,
0.026683291770573565,-0.01693652253123927,
0.026733167082294264,-0.016432314211323233,
0.026783042394014963,-0.005549824407937696,
0.026832917705735662,-0.01167648706253459,
0.026882793017456358,-0.015104939866619576,
0.026932668329177057,0.000376601371851457,
0.026982543640897756,0.0027473990147992805,
0.027032418952618455,0.0059206128387619015,
0.02708229426433915,-0.006258096994930678,
0.02713216957605985,0.023435924760166153,
0.02718204488778055,0.02039053052110139,
0.02723192019950125,0.004545691665895309,
0.027281795511221944,0.006723028169473004,
0.027331670822942643,-3.546026136400267e-05,
0.027381546134663343,-0.00043728485190008565,
0.02743142144638404,-0.01288096473334424,
0.027481296758104738,-0.013863744380798805,
0.027531172069825437,0.0032511155050561377,
0.027581047381546136,-0.006561780114677355,
0.02763092269326683,-0.017183829208093207,
0.02768079800498753,0.02048604831480321,
0.02773067331670823,0.025550432835039615,
0.02778054862842893,-0.010519951776019701,
0.027830423940149625,0.03371715067871157,
0.027880299251870324,0.0026257339004867744,
0.027930174563591023,0.015580075935220955,
0.027980049875311722,0.01313265450273673,
0.028029925187032418,0.010814523382512141,
0.028079800498753117,0.0010949255102515494,
0.028129675810473816,0.008916386381292427,
0.028179551122194512,0.009756690668832913,
0.02822942643391521,-0.001690733841738408,
0.02827930174563591,-0.0035899733839103182,
0.02832917705735661,-0.010067569248170984,
0.028379052369077305,0.017445357591062926,
0.028428927680798004,0.0018507686706125941,
0.028478802992518704,-0.042076050429313866,
0.028528678304239403,0.008949923446793418,
0.0285785536159601,-0.0006832365534752451,
0.028628428927680798,0.0048954695710256456,
0.028678304239401497,0.02592971221643658,
0.028728179551122196,0.004125582436681784,
0.02877805486284289,-0.00971225273686062,
0.02882793017456359,0.008696385728775598,
0.02887780548628429,-0.008105935271684434,
0.02892768079800499,0.015314041396101,
0.028977556109725685,0.038487981092904744,
0.029027431421446384,0.029005584135503953,
0.029077306733167083,-0.004324714118548661,
0.02912718204488778,0.027410640567394857,
0.029177057356608478,0.019733931329379856,
0.029226932668329177,0.033710592386287805,
0.029276807980049877,0.010658988005187995,
0.029326683291770572,0.006836957526034724,
0.02937655860349127,0.034819386423903975,
0.02942643391521197,0.028561747555248596,
0.02947630922693267,0.008415994949361795,
0.029526184538653365,0.015001127768341328,
0.029576059850374065,0.01628064918171959,
0.029625935162094764,0.03467636879710623,
0.029675810473815463,0.04834902411447635,
0.02972568578553616,0.0047305471119039825,
0.029775561097256858,0.006543872344794239,
0.029825436408977557,0.03497157648448829,
0.029875311720698253,0.005271430519323328,
0.029925187032418952,0.024248488781578207,
0.02997506234413965,-0.006125475195854969,
0.03002493765586035,0.03162695104678674,
0.030074812967581046,0.03366157116122284,
0.030124688279301745,0.00795434536859732,
0.030174563591022444,0.027152937205388094,
0.030224438902743143,0.020526261990483494,
0.03027431421446384,0.03407195077629112,
0.03032418952618454,0.039971991309925264,
0.030374064837905237,0.02208856059285869,
0.030423940149625937,0.026612760214707484,
0.030473815461346632,0.015332120827522045,
0.03052369077306733,0.040332062439712595,
0.03057356608478803,0.019454648020083672,
0.03062344139650873,0.03827226643678925,
0.030673316708229426,0.04282301241777558,
0.030723192019950125,0.02567907939633382,
0.030773067331670824,0.033115567151028466,
0.03082294264339152,0.01627721152641561,
0.03087281795511222,0.028434128799449412,
0.030922693266832918,0.009191259246956504,
0.030972568578553617,0.012964907235628587,
0.031022443890274313,0.014312708224743733,
0.031072319201995012,-0.008448197704837995,
0.03112219451371571,0.04889849300966187,
0.03117206982543641,0.04187038195677145,
0.031221945137157106,0.011651973312378406,
0.03127182044887781,0.0364649501288535,
0.031321695760598504,-0.002584965321806708,
0.0313715710723192,0.029610792984083163,
0.0314214463840399,0.016349323475516923,
0.0314713216957606,0.03986565741023859,
0.031521197007481294,0.03793886742196196,
0.031571072319202,0.03274492742354523,
0.03162094763092269,0.02674800159889275,
0.03167082294264339,0.008755013275522375,
0.03172069825436409,0.0242674451539505,
0.03177057356608479,0.03562591487208612,
0.03182044887780549,0.00772529552336557,
0.031870324189526185,0.004204123804636854,
0.03192019950124688,0.0009909504748612241,
0.03197007481296758,0.03134062651610845,
0.03201995012468828,-0.006035603750601644,
0.032069825436408975,0.04122240928165697,
0.03211970074812968,-0.0019898064102203857,
0.03216957605985037,0.025131351924990348,
0.032219451371571076,0.040235279223265516,
0.03226932668329177,0.013259660366508537,
0.03231920199501247,0.011159858255592247,
0.03236907730673317,-0.004196232679366384,
0.032418952618453865,0.029634058851628207,
0.03246882793017456,0.006124314674253253,
0.032518703241895264,0.03327356533344464,
0.03256857855361596,0.024067294363440964,
0.032618453865336655,0.03616069407720579,
0.03266832917705736,0.031875649738548284,
0.032718204488778053,0.025349798602277228,
0.032768079800498756,0.02910575260327439,
0.03281795511221945,0.004255846056037595,
0.03286783042394015,0.018786647195560578,
0.03291770573566085,0.01286205836101225,
0.032967581047381546,0.03921805578522485,
0.03301745635910224,0.0064337031368222435,
0.033067331670822944,0.020064775014621106,
0.03311720698254364,0.00570104638236903,
0.03316708229426434,0.0013350883899571238,
0.03321695760598504,-0.007915256462517235,
0.033266832917705734,0.0026089781850877,
0.03331670822942644,0.010576621425710043,
0.03336658354114713,0.0222021340129967,
0.03341645885286783,0.03659019125170973,
0.03346633416458853,0.0330281047181797,
0.033516209476309226,0.043392919263881946,
0.03356608478802992,0.02401969173306473,
0.033615960099750625,0.03448240448969702,
0.03366583541147132,-0.00953954974037493,
0.03371571072319202,0.05748438276178589,
0.03376558603491272,-0.005709952826068804,
0.033815461346633414,0.046275120560889504,
0.03386533665835412,0.02464445996291465,
0.03391521197007481,0.027047323426894983,
0.03396508728179551,0.020053388734012235,
0.03401496259351621,0.010997814210724726,
0.03406483790523691,0.02104900246128147,
0.0341147132169576,0.01666610998018628,
0.034164588528678305,0.0023710433075341784,
0.034214463840399,0.02466394141510449,
0.034264339152119704,-0.007524336768482066,
0.0343142144638404,0.01897880242480468,
0.034364089775561095,-0.0006987201867688191,
0.0344139650872818,0.04941483830260234,
0.03446384039900249,0.0006200358749573406,
0.03451371571072319,0.026858561314845486,
0.03456359102244389,0.0033664869503329583,
0.03461346633416459,-0.004663924467477081,
0.03466334164588529,0.015539553288145422,
0.034713216957605986,-0.0018355910504362569,
0.03476309226932668,0.016871225622367345,
0.034812967581047384,0.03432485436568187,
0.03486284289276808,0.021169835744936888,
0.034912718204488775,0.02194625260725427,
0.03496259351620948,0.0008616850835169425,
0.035012468827930174,0.01958147077305683,
0.03506234413965087,0.011823532331917509,
0.03511221945137157,0.017468239397674303,
0.03516209476309227,0.013794662016736072,
0.03521197007481297,-0.0045048266613132645,
0.035261845386533666,0.0024777448193869893,
0.03531172069825436,0.027197747168962463,
0.035361596009975065,0.013551404942345583,
0.03541147132169576,0.007209039962576839,
0.035461346633416456,0.031780063116087345,
0.03551122194513716,-0.005315305488129186,
0.035561097256857854,0.03147148216788734,
0.03561097256857856,0.03566048870443471,
0.03566084788029925,0.025321295616854374,
0.03571072319201995,0.02317401160200641,
0.03576059850374065,0.030943705111707503,
0.03581047381546135,0.024821309300167977,
0.03586034912718204,-0.01636351781200775,
0.035910224438902745,0.006637780815613637,
0.03596009975062344,0.0042509038697493865,
0.036009975062344136,0.0027043327250974554,
0.03605985037406484,-0.0006963689263386717,
0.036109725685785535,-0.0062574466188816,
0.03615960099750624,-0.017422543619121225,
0.03620947630922693,0.009666070881342902,
0.03625935162094763,0.011918283711525045,
0.03630922693266833,0.007833702202264384,
0.03635910224438903,0.007174209076138115,
0.03640897755610972,-0.006045263831257009,
0.036458852867830426,-0.022466463497691443,
0.03650872817955112,0.004783268326668305,
0.036558603491271824,0.019976166379910763,
0.03660847880299252,0.009016362211017523,
0.036658354114713215,0.004342133759402967,
0.03670822942643392,0.0003001345154563422,
0.036758104738154614,-0.006304322977338104,
0.03680798004987531,0.00550864322022612,
0.03685785536159601,-0.005888256660257199,
0.03690773067331671,-0.02553061269792621,
0.0369576059850374,0.001801022636670324,
0.037007481296758106,0.002674429435306293,
0.0370573566084788,-0.029401482273550918,
0.037107231920199504,0.0018111994282208107,
0.0371571072319202,0.011318754098868953,
0.037206982543640896,-0.018253946243421647,
0.0372568578553616,0.015114318187626749,
0.037306733167082294,-0.013045720984322941,
0.03735660847880299,0.028901289006364926,
0.03740648379052369,0.017401497348333794,
0.03745635910224439,0.014760393117594275,
0.037506234413965084,-0.003795829418979463,
0.037556109725685786,0.0007767514555874293,
0.03760598503740648,0.01104201271452338,
0.037655860349127185,0.01803374533933584,
0.03770573566084788,-0.00916201551308956,
0.037755610972568576,-0.0029507168503775808,
0.03780548628428928,-0.0016806599201553635,
0.037855361596009975,-0.012735470273443203,
0.03790523690773067,-0.006895234410228409,
0.03795511221945137,-0.027594959391805955,
0.03800498753117207,0.008010758474449632,
0.03805486284289277,-0.014709285504119651,
0.03810473815461347,-0.024253680847815536,
0.03815461346633416,0.02661931113324321,
0.038204488778054865,0.0026223075496727543,
0.03825436408977556,-0.021280883889024573,
0.03830423940149626,-0.005480027075096722,
0.03835411471321696,0.004477223327265312,
0.038403990024937655,-0.001666235515028296,
0.03845386533665835,-0.008446031900187355,
0.03850374064837905,-0.0297782169067315,
0.03855361596009975,-2.4459057307864296e-05,
0.03860349127182045,-0.0347683579986991,
0.03865336658354115,-0.008969712976646789,
0.03870324189526184,-0.020605304892145432,
0.038753117206982546,-0.006959442651383821,
0.03880299251870324,-0.03660384126422945,
0.03885286783042394,-0.03341486017769062,
0.03890274314214464,-0.01730151411706341,
0.038952618453865336,-0.010848767352705851,
0.03900249376558604,-0.002547089039551846,
0.039052369077306734,-0.010667304439918604,
0.03910224438902743,0.002117290855112341,
0.03915211970074813,-0.01727320799864398,
0.03920199501246883,0.031150504883282006,
0.039251870324189524,-0.0002725778447788957,
0.039301745635910226,-0.03968281490082742,
0.03935162094763092,-0.02800450474983258,
0.03940149625935162,-0.013023276428938833,
0.03945137157107232,-0.022638134872053475,
0.039501246882793016,-0.0036955853369168793,
0.03955112219451372,0.009673621156413716,
0.039600997506234414,-0.0032625173750132457,
0.03965087281795511,-0.019517563182712302,
0.03970074812967581,-0.0225255982586813,
0.03975062344139651,-0.0089632172000906,
0.039800498753117204,-0.0062224588109291296,
0.03985037406483791,-0.0408678245611208,
0.0399002493765586,0.011373539014192614,
0.039950124688279305,-0.026220931880062588,
0.04,-0.012792392801221724,
0.0400498753117207,0.007662304725814015,
0.0400997506234414,-0.01705097438579724,
0.040149625935162095,-0.015060217963566241,
0.04019950124688279,0.0017358268164722659,
0.04024937655860349,-0.01423329631767765,
0.04029925187032419,0.012788295893473424,
0.040349127182044885,-0.03714685289705403,
0.04039900249376559,-0.021258954127185307,
0.04044887780548628,-0.01314392920295022,
0.040498753117206986,-0.004285512703175575,
0.04054862842892768,-0.028146853618610045,
0.04059850374064838,-0.011661364595591046,
0.04064837905236908,-0.007941765086179678,
0.040698254364089775,0.001658565420977618,
0.04074812967581047,-0.003136823775140721,
0.040798004987531174,-0.010705349972864417,
0.04084788029925187,-0.0006557059566746713,
0.040897755610972565,-0.01272041003587495,
0.04094763092269327,-0.02158135962375768,
0.04099750623441396,-0.03463493591876662,
0.041047381546134666,-0.02375364181364818,
0.04109725685785536,-0.01867397497832855,
0.04114713216957606,-0.007579444944596593,
0.04119700748129676,0.0011938429088710067,
0.041246882793017456,-0.011786343821806522,
0.04129675810473815,-0.0259833505662416,
0.041346633416458854,0.005111374119568676,
0.04139650872817955,-0.0012058691409879384,
0.04144638403990025,-0.01853485385843382,
0.04149625935162095,-0.022593442340343772,
0.041546134663341644,0.0018851862740698125,
0.04159600997506235,-0.021457407703363053,
0.04164588528678304,-0.01740374420753599,
0.04169576059850374,-0.011816470070121585,
0.04174563591022444,-0.005589562486403604,
0.041795511221945136,0.006492211505403217,
0.04184538653366583,-0.022875545530058244,
0.041895261845386535,-0.04069027083446355,
0.04194513715710723,0.010113494729879376,
0.04199501246882793,-0.016066536745709552,
0.04204488778054863,-0.039097242786959384,
0.042094763092269324,-0.0391615777927973,
0.04214463840399003,-0.042766745887685545,
0.04219451371571072,-0.021254126823835512,
0.04224438902743142,-0.03918146479826745,
0.04229426433915212,-0.017168666553469613,
0.04234413965087282,-0.03871690140676232,
0.04239401496259352,-0.013350293660158979,
0.042443890274314215,0.01297376287791889,
0.04249376558603491,-0.018817467719844178,
0.042543640897755614,-0.02265791733719529,
0.04259351620947631,-0.008318247213974516,
0.042643391521197005,-0.008126249095299213,
0.04269326683291771,-0.0391070861617185,
0.0427431421446384,-0.030481389606409684,
0.0427930174563591,-0.010759458643122872,
0.0428428927680798,0.0014534169181738242,
0.0428927680798005,-0.03042402373543298,
0.0429426433915212,-0.033949195703758844,
0.042992518703241896,-0.02273674803812291,
0.04304239401496259,-0.010505899831025692,
0.043092269326683294,-0.002667400855737384,
0.04314214463840399,-0.04605297366088541,
0.043192019950124685,-0.030048499371132874,
0.04324189526184539,-0.0052306588603481165,
0.043291770573566084,-0.01944986596514922,
0.043341645885286786,-0.01226794249823786,
0.04339152119700748,-0.03542780399304823,
0.04344139650872818,-0.018988548058991032,
0.04349127182044888,-0.0193830492446911,
0.043541147132169576,-0.00956608287829665,
0.04359102244389027,-0.0070351109017182355,
0.043640897755610975,-0.03181049061148544,
0.04369077306733167,0.004447293619415564,
0.043740648379052366,-0.023958129455436267,
0.04379052369077307,-0.005464211825201107,
0.043840399002493764,-0.02272881734190075,
0.04389027431421447,-0.021683791104003047,
0.04394014962593516,-0.018480546528008002,
0.04399002493765586,-0.011190391718017357,
0.04403990024937656,-0.01209614265502033,
0.04408977556109726,-0.0023097616450615047,
0.04413965087281795,-0.011047076576005909,
0.044189526184538655,-0.01563669699143227,
0.04423940149625935,-0.01534684134347336,
0.04428927680798005,-0.014034873848465454,
0.04433915211970075,-0.0064270542194084426,
0.044389027431421445,-0.041859326585429686,
0.04443890274314215,0.0020363789894329975,
0.04448877805486284,-0.023028056902821142,
0.04453865336658354,-0.03327588472217068,
0.04458852867830424,-0.00968554347872799,
0.04463840399002494,-0.006254050320142886,
0.04468827930174563,-0.005736861205573498,
0.044738154613466335,-0.016072810341898693,
0.04478802992518703,-0.014238669842127325,
0.044837905236907734,-0.030701581244137157,
0.04488778054862843,0.02122378014612568,
0.044937655860349125,0.007297765239482033,
0.04498753117206983,-0.03856526411929271,
0.045037406483790524,0.008114262702139535,
0.04508728179551122,-0.011613469065394585,
0.04513715710723192,-0.010448044582231196,
0.04518703241895262,-0.0016650131251343915,
0.04523690773067331,-0.017309369449166553,
0.045286783042394016,0.004545129672488405,
0.04533665835411471,0.01208293403134019,
0.045386533665835414,-0.0019182326813972084,
0.04543640897755611,-0.009011029475518044,
0.045486284289276806,-0.009198894260311985,
0.04553615960099751,-0.006319393688992066,
0.045586034912718204,0.03687433048635873,
0.0456359102244389,0.012038389500594262,
0.0456857855361596,-0.01699978798726455,
0.0457356608478803,-0.003152438403537971,
0.045785536159601,-0.007368021820539765,
0.045835411471321696,-0.011367303776501032,
0.04588528678304239,0.0017003909802729778,
0.045935162094763095,0.02163590988771672,
0.04598503740648379,0.007977754446283208,
0.046034912718204486,-0.021145851620183086,
0.04608478802992519,-0.012389818612410307,
0.046134663341645885,-0.015821061427885544,
0.04618453865336658,-0.008909701263817795,
0.04623441396508728,-0.016379131764913096,
0.04628428927680798,-0.008518070524383125,
0.04633416458852868,0.0038154305972072774,
0.04638403990024938,-0.004233171858977948,
0.04643391521197007,0.01801242044582443,
0.046483790523690775,-0.00890170825553297,
0.04653366583541147,-0.0006612188493190209,
0.04658354114713217,-0.0020743320252495077,
0.04663341645885287,0.003674712636711108,
0.046683291770573565,-0.01159830058470459,
0.04673316708229427,-0.008971508931213791,
0.04678304239401496,0.012357690484766166,
0.04683291770573566,-0.0029044239553274905,
0.04688279301745636,-2.8245010989301142e-05,
0.04693266832917706,0.01987338822515668,
0.04698254364089775,-0.016152489706926988,
0.047032418952618456,-0.01337797972780913,
0.04708229426433915,0.005604031487284991,
0.04713216957605985,-7.504385052182951e-05,
0.04718204488778055,0.013418829046480805,
0.047231920199501246,-0.017364167176686384,
0.04728179551122195,-0.003364974108671292,
0.047331670822942644,0.005246340449566258,
0.04738154613466334,-0.034747448378144405,
0.04743142144638404,0.013702291135348252,
0.04748129675810474,0.007126398052824621,
0.047531172069825434,-0.016239382829265618,
0.047581047381546136,0.0117067076029257,
0.04763092269326683,0.003087689573150922,
0.047680798004987535,0.04270983856021959,
0.04773067331670823,0.0064112333140205445,
0.047780548628428926,0.0020654231709046796,
0.04783042394014963,-0.0005748475314748761,
0.047880299251870324,0.022530793580654705,
0.04793017456359102,0.0031624867799433676,
0.04798004987531172,0.02361598314972231,
0.04802992518703242,0.0016740269710105848,
0.048079800498753114,-0.012587369782322324,
0.04812967581047382,-0.018419482650443568,
0.04817955112219451,0.013066748329090664,
0.048229426433915215,0.017932981322563442,
0.04827930174563591,0.005851065485625507,
0.048329177057356607,0.010815595953884729,
0.04837905236907731,-0.01097448552102877,
0.048428927680798005,0.02226170562733664,
0.0484788029925187,0.015322904510080516,
0.0485286783042394,0.028749530392384634,
0.0485785536159601,0.023876993499279336,
0.048628428927680795,0.01582071437525987,
0.0486783042394015,0.010468249918138108,
0.04872817955112219,0.03604378588010496,
0.048778054862842896,0.02349665034872221,
0.04882793017456359,0.028129364425929792,
0.04887780548628429,0.03288221848209102,
0.04892768079800499,0.03301089455704054,
0.048977556109725685,0.03982142707122054,
0.04902743142144638,0.011385106643589923,
0.049077306733167084,0.005412762382229912,
0.04912718204488778,0.02476517893894718,
0.04917705735660848,0.007374263594700432,
0.04922693266832918,0.0110472866831638,
0.04927680798004987,0.012857450408613743,
0.049326683291770576,-0.019454085320212127,
0.04937655860349127,0.02708561023400669,
0.04942643391521197,0.010372911453819616,
0.04947630922693267,0.012464567021909415,
0.049526184538653366,0.010080479318587224,
0.04957605985037406,0.03560310263856051,
0.049625935162094764,0.018352578260332632,
0.04967581047381546,0.04929117415963676,
0.04972568578553616,0.004886149710287337,
0.04977556109725686,0.003535449610984464,
0.049825436408977554,0.019055937408233862,
0.04987531172069826,0.01736509744982421,
0.04992518703241895,0.017054131706883708,
0.04997506234413965,0.013849800224782891,
0.05002493765586035,0.013446656431479194,
0.050074812967581046,0.016004224503264348,
0.05012468827930175,0.015494503233646314,
0.050174563591022445,0.02313092024480766,
0.05022443890274314,0.022176309470559936,
0.05027431421446384,0.016671252560385735,
0.05032418952618454,0.01222595983123428,
0.050374064837905234,0.01181894243162596,
0.05042394014962594,0.018349281364377197,
0.05047381546134663,0.029790446364379913,
0.05052369077306733,0.021766231169519156,
0.05057356608478803,0.000523475004172453,
0.05062344139650873,0.010062256950239053,
0.05067331670822943,0.0411733826092812,
0.050723192019950125,0.03848639106073655,
0.05077306733167082,0.019205847358789618,
0.050822942643391524,0.02239752340906219,
0.05087281795511222,0.01990710233203176,
0.050922693266832915,0.03435243954950172,
0.05097256857855362,0.0037359464793596357,
0.05102244389027431,0.042743175940683484,
0.051072319201995016,0.03944046669074548,
0.05112219451371571,8.309648788096605e-05,
0.05117206982543641,0.0046554063561592834,
0.05122194513715711,0.05098969476897072,
0.051271820448877806,0.015051423781888758,
0.0513216957605985,0.024947968225044775,
0.051371571072319204,0.007700657125510307,
0.0514214463840399,0.03386724156816138,
0.051471321695760595,0.01557355234399322,
0.0515211970074813,0.011854795702632568,
0.051571072319201994,0.019413215829952982,
0.051620947630922696,0.044159740145840544,
0.05167082294264339,0.0038961679537246573,
0.05172069825436409,0.001994765668652438,
0.05177057356608479,0.012251551926673808,
0.051820448877805486,0.028419370745332212,
0.05187032418952618,0.01683459251766033,
0.051920199501246884,0.027014872235403563,
0.05197007481296758,0.03858016835914124,
0.052019950124688276,0.015078184011554412,
0.05206982543640898,0.01525077938541211,
0.052119700748129674,0.016105470330406726,
0.05216957605985038,0.02082876555982437,
0.05221945137157107,0.0005521107835572102,
0.05226932668329177,0.008870508463277395,
0.05231920199501247,0.025752422570726866,
0.05236907730673317,0.02479929860451512,
0.05241895261845386,0.021610656785090342,
0.052468827930174565,0.019034813346700118,
0.05251870324189526,0.0118587336349681,
0.05256857855361596,0.018171197288948088,
0.05261845386533666,0.0586584024413794,
0.052668329177057355,0.01870464838432778,
0.05271820448877806,0.0383093743991775,
0.05276807980049875,0.02064195492746214,
0.05281795511221945,0.029931892042409772,
0.05286783042394015,0.03159784393199426,
0.05291770573566085,0.040902517464539094,
0.05296758104738154,0.027379909812074936,
0.053017456359102245,0.03504657443719557,
0.05306733167082294,0.007211391024637241,
0.053117206982543644,0.03159194648974214,
0.05316708229426434,0.015698826776912644,
0.053216957605985035,0.036063595699801915,
0.05326683291770574,0.020786727811675343,
0.053316708229426434,0.025660995627620007,
0.05336658354114713,0.001560067598509001,
0.05341645885286783,0.011701434178279093,
0.05346633416458853,0.014201116631291024,
0.05351620947630923,0.021591210896033438,
0.053566084788029926,-0.0036059957432623066,
0.05361596009975062,-0.006112327334037361,
0.053665835411471324,0.02967049287673118,
0.05371571072319202,0.026862433300195773,
0.053765586034912716,0.008392687041439183,
0.05381546134663342,0.013131155419302385,
0.053865336658354114,0.007512284787153059,
0.05391521197007481,0.021169648827652248,
0.05396508728179551,0.0051933132800986055,
0.05401496259351621,0.023057774851592435,
0.05406483790523691,0.02605947807105252,
0.054114713216957606,0.04198110620143235,
0.0541645885286783,0.005116281507708941,
0.054214463840399005,0.013168535599855296,
0.0542643391521197,0.027327934231402798,
0.054314214463840396,0.027000310635110027,
0.0543640897755611,0.01847102531226873,
0.054413965087281795,0.017899998580898826,
0.0544638403990025,0.019170511451672166,
0.05451371571072319,0.033029196669914,
0.05456359102244389,0.035595054077188604,
0.05461346633416459,0.03050183949519205,
0.05466334164588529,0.025100224846707,
0.05471321695760598,0.028858956258788482,
0.054763092269326685,0.022308711595585513,
0.05481296758104738,0.03221056903246405,
0.05486284289276808,0.048501647127456055,
0.05491271820448878,0.01601119741844248,
0.054962593516209475,0.005850058694442687,
0.05501246882793018,0.029203422405614958,
0.05506234413965087,0.05370649752740863,
0.05511221945137157,0.03500577365196168,
0.05516209476309227,0.024730662083162082,
0.05521197007481297,0.0009640310995017946,
0.05526184538653366,0.021776406205169747,
0.055311720698254366,0.020367854560881374,
0.05536159600997506,0.020171100467167476,
0.05541147132169576,0.033569613518312544,
0.05546134663341646,0.03130651060177828,
0.055511221945137156,0.017289831857612608,
0.05556109725685786,-0.013842756755152605,
0.055610972568578554,0.028551922400119237,
0.05566084788029925,0.02815799319548641,
0.05571072319201995,0.03225797581958326,
0.05576059850374065,-0.011084857202361315,
0.055810473815461344,0.02884091472203492,
0.055860349127182046,0.013077931669931413,
0.05591022443890274,0.02469787200570322,
0.055960099750623445,0.016617146005342177,
0.05600997506234414,0.021300516686079903,
0.056059850374064836,0.03272889500252268,
0.05610972568578554,0.03214361211351593,
0.056159600997506234,0.004453517200673253,
0.05620947630922693,0.03211388392330262,
0.05625935162094763,0.011254077099148812,
0.05630922693266833,-0.01473208856907594,
0.056359102244389024,0.016595696666129867,
0.05640897755610973,0.02201879265749601,
0.05645885286783042,0.015525314304602418,
0.056508728179551125,0.015146258246055925,
0.05655860349127182,0.017530742316297615,
0.056608478802992516,0.0073610868847315365,
0.05665835411471322,0.001994934209184394,
0.056708229426433915,0.015934287158944935,
0.05675810473815461,0.025392385246708414,
0.05680798004987531,-0.01593255596796812,
0.05685785536159601,0.013438093535858996,
0.05690773067331671,0.022089459891586057,
0.05695760598503741,0.023279850893791653,
0.0570074812967581,0.014483318618619656,
0.057057356608478806,0.009369717662978491,
0.0571072319201995,-0.03396865960854507,
0.0571571072319202,-0.017246381131904697,
0.0572069825436409,0.023520645287121448,
0.057256857855361595,-0.010094650727828704,
0.05730673316708229,0.028181738039968894,
0.057356608478802994,-0.0015635249545920037,
0.05740648379052369,0.011656047625417247,
0.05745635910224439,0.0015907523485115414,
0.05750623441396509,-0.01131631723286038,
0.05755610972568578,0.0041929303006583854,
0.057605985037406486,-0.0076126891712902526,
0.05765586034912718,0.011506137372360017,
0.05770573566084788,0.013153512730071079,
0.05775561097256858,-0.006817080277765142,
0.057805486284289276,-0.0018283184335103268,
0.05785536159600998,-0.013547053409353194,
0.057905236907730674,-0.02151404343678898,
0.05795511221945137,0.004574234350172233,
0.05800498753117207,0.018779353356402045,
0.05805486284289277,0.025806280252020572,
0.058104738154613464,-0.006724901504203537,
0.05815461346633417,-0.020845315598567133,
0.05820448877805486,-0.012473018337016948,
0.05825436408977556,-0.002102194109945761,
0.05830423940149626,-0.0165462724306451,
0.058354114713216956,0.025276515188548523,
0.05840399002493766,0.026927904633223535,
0.058453865336658355,-0.007931862879020367,
0.05850374064837905,-0.020552535326450638,
0.05855361596009975,-0.015390558549090383,
0.05860349127182045,-0.002222295545207605,
0.058653366583541144,0.009615315008005828,
0.05870324189526185,0.010106871814929766,
0.05875311720698254,0.005607043306269522,
0.05880299251870324,0.009678312639594278,
0.05885286783042394,0.0009988159068725728,
0.05890274314214464,-0.004925548987062871,
0.05895261845386534,0.009320280214745071,
0.059002493765586035,0.0021764625172561777,
0.05905236907730673,-0.014010025111502723,
0.059102244389027433,-0.0009531681497246562,
0.05915211970074813,-0.014387039791731905,
0.059201995012468825,-0.027559550260820586,
0.05925187032418953,0.008976126925552927,
0.05930174563591022,-0.017167703904087853,
0.059351620947630926,-0.01674896054248797,
0.05940149625935162,-0.014326008358406382,
0.05945137157107232,-0.0470791205825012,
0.05950124688279302,0.000874948847759148,
0.059551122194513716,-0.04268606920245296,
0.05960099750623441,-0.0041215115671570015,
0.059650872817955114,-0.0009154733673916154,
0.05970074812967581,-0.008502823382140968,
0.059750623441396505,-0.02509465095879247,
0.05980049875311721,-0.04420873778836275,
0.059850374064837904,-0.02668746183933026,
0.059900249376558606,-0.006683509769548102,
0.0599501246882793,0.01919501023100547,
0.06,-0.013462725082995279,
0.0600498753117207,0.0073631031658267735,
0.060099750623441396,0.007857302340163519,
0.06014962593516209,-0.0020011089706149492,
0.060199501246882794,-0.010328891300920929,
0.06024937655860349,0.016220245676273497,
0.06029925187032419,-0.0010870054882904795,
0.06034912718204489,-0.011070068147332295,
0.060399002493765584,0.013278987488432564,
0.06044887780548629,-0.007783840833760194,
0.06049875311720698,-0.01886775939718475,
0.06054862842892768,-0.012235296781449124,
0.06059850374064838,-0.030970761443493207,
0.06064837905236908,-0.04142147556730381,
0.06069825436408977,-0.01161202399015604,
0.060748129675810475,-0.0039974287810616415,
0.06079800498753117,-0.005280474310839351,
0.06084788029925187,-0.019950612996226427,
0.06089775561097257,-0.046778977979089434,
0.060947630922693265,-0.01504103346627485,
0.06099750623441397,-0.037141589483144936,
0.06104738154613466,-0.019605198159571013,
0.06109725685785536,-0.014595447335296252,
0.06114713216957606,-0.038075762967065066,
0.06119700748129676,-0.027238453247561446,
0.06124688279301746,-0.028865592074273166,
0.061296758104738155,-0.00737697350845442,
0.06134663341645885,-0.02171564293666728,
0.061396508728179554,-0.020176349494447708,
0.06144638403990025,-0.01950701781712845,
0.061496259351620945,-0.03152085385167022,
0.06154613466334165,-0.03128463715165075,
0.061596009975062344,-0.03329333888651588,
0.06164588528678304,-0.01643941601513657,
0.06169576059850374,-0.00220722163086199,
0.06174563591022444,-0.0181850612685535,
0.06179551122194514,0.0072306270855239645,
0.061845386533665836,-0.022422453539265697,
0.06189526184538653,0.00664990255746503,
0.061945137157107234,-0.050532052030841344,
0.06199501246882793,-0.03890370625382625,
0.062044887780548626,-0.01035579751517892,
0.06209476309226933,-0.012395440666281518,
0.062144638403990024,-0.02563457224978192,
0.06219451371571072,-0.026170134261377348,
0.06224438902743142,-0.009149193767203296,
0.06229426433915212,0.00432602183731819,
0.06234413965087282,-0.0014055822151426596,
0.062394014962593516,0.009347103578827589,
0.06244389027431421,-0.013237009293988185,
0.062493765586034915,-0.024550473773801408,
0.06254364089775562,-0.012842252577339258,
0.06259351620947631,0.0057103063331009184,
0.06264339152119701,-0.01967078381844726,
0.0626932668329177,-0.012271939686778437,
0.0627431421446384,-0.020833443153933255,
0.0627930174563591,-0.03953200358442821,
0.0628428927680798,-0.029631279092385512,
0.0628927680798005,-0.008417786278490633,
0.0629426433915212,-0.033126757983015384,
0.06299251870324189,-0.030682344369431052,
0.06304239401496259,-0.01558956052324831,
0.0630922693266833,-0.007925533471101014,
0.063142144638404,0.007278697751653924,
0.06319201995012469,-0.03147453317660277,
0.06324189526184539,0.0027537311921174666,
0.06329177057356608,-0.016933705934932354,
0.06334164588528678,-0.01092961655297002,
0.06339152119700749,0.009137267603560113,
0.06344139650872818,0.012938511222388246,
0.06349127182044888,-0.008364518689074833,
0.06354114713216957,-0.013319801649472435,
0.06359102244389027,-0.03432262362945836,
0.06364089775561098,0.0011479177227938318,
0.06369077306733167,-0.007291480457648507,
0.06374064837905237,-0.010143901096725267,
0.06379052369077307,-0.018441279156048877,
0.06384039900249376,-0.008562389638338254,
0.06389027431421446,-0.003799633880503698,
0.06394014962593517,0.014084812627351196,
0.06399002493765586,-0.03187223697276185,
0.06403990024937656,-0.04996200799185592,
0.06408977556109725,-0.014634161134660257,
0.06413965087281795,0.007117317634923754,
0.06418952618453866,-0.014659932214093264,
0.06423940149625935,0.011213573917939921,
0.06428927680798005,-0.01885898254370568,
0.06433915211970075,-0.0015158998768022777,
0.06438902743142144,0.0031696567294512337,
0.06443890274314215,-0.0320167501117824,
0.06448877805486285,0.0013860553828495738,
0.06453865336658354,-0.0172492312611828,
0.06458852867830424,-0.003881533013583971,
0.06463840399002493,0.03179277913566755,
0.06468827930174563,-0.004662492735617327,
0.06473815461346634,-0.03357689064596344,
0.06478802992518704,0.003935881123806986,
0.06483790523690773,0.007193818324919828,
0.06488778054862843,-0.02393616913003098,
0.06493765586034912,-0.008128660252821688,
0.06498753117206983,-0.017039779491545483,
0.06503740648379053,-0.006452774495625037,
0.06508728179551122,-0.0014637033787531116,
0.06513715710723192,-0.007794317089343125,
0.06518703241895261,0.024266481752152062,
0.06523690773067331,0.003889402477819422,
0.06528678304239402,-0.0017908955713050656,
0.06533665835411472,-0.0027898293599267943,
0.06538653366583541,0.0013571968724247997,
0.06543640897755611,-0.0014093665779291984,
0.0654862842892768,0.00821709218585891,
0.06553615960099751,0.004738954368783519,
0.06558603491271821,-0.004538921002258885,
0.0656359102244389,-0.012739883140286774,
0.0656857855361596,-0.005301847047912563,
0.0657356608478803,0.009624918166456418,
0.06578553615960099,0.02112081023458144,
0.0658354114713217,-0.0145033436862654,
0.0658852867830424,-0.009869556614639192,
0.06593516209476309,-0.009552150496921288,
0.06598503740648379,0.020421380439626748,
0.06603491271820448,0.011836584602285809,
0.06608478802992519,0.023553242375295217,
0.06613466334164589,-0.02515747303422006,
0.06618453865336658,4.809168243373322e-05,
0.06623441396508728,0.01542486173597955,
0.06628428927680798,0.015563375359940474,
0.06633416458852869,0.004989377039959056,
0.06638403990024938,-0.029699620397976433,
0.06643391521197008,0.010150922627878436,
0.06648379052369077,0.012790344158163176,
0.06653366583541147,-0.0015395355484505136,
0.06658354114713216,0.01138484683023303,
0.06663341645885287,0.003906749043805682,
0.06668329177057357,-0.0221148366504771,
0.06673316708229426,-0.018641216108488366,
0.06678304239401496,0.018864059384924175,
0.06683291770573566,0.026569215931988764,
0.06688279301745637,0.02174456995299519,
0.06693266832917706,-0.011904076823076922,
0.06698254364089776,-0.005317339622872549,
0.06703241895261845,0.00045655448260029097,
0.06708229426433915,-0.0008588168744040935,
0.06713216957605984,-0.002008200928252206,
0.06718204488778055,0.025345985418809853,
0.06723192019950125,-0.003080367234708904,
0.06728179551122195,-0.0013024826906538481,
0.06733167082294264,-0.0035553859375163496,
0.06738154613466334,-0.0300261056778924,
0.06743142144638405,0.010337654812322112,
0.06748129675810474,0.018580530991508224,
0.06753117206982544,0.009503927749030411,
0.06758104738154613,-0.0007085640520809611,
0.06763092269326683,0.03362117180830308,
0.06768079800498752,-0.018124004410496497,
0.06773067331670823,-0.006313830322961978,
0.06778054862842893,0.0004635391553703856,
0.06783042394014963,0.022487669277885505,
0.06788029925187032,0.03127970957945162,
0.06793017456359102,-0.01591810191908304,
0.06798004987531173,0.02692128991050898,
0.06802992518703242,-0.012722237252891056,
0.06807980049875312,0.0005087008791342038,
0.06812967581047381,0.024837752664195085,
0.06817955112219451,0.023476526891574808,
0.0682294264339152,0.03444482431848668,
0.06827930174563591,-0.002333499208394166,
0.06832917705735661,0.04098349533064076,
0.0683790523690773,-0.0008663655698554588,
0.068428927680798,0.008939850631250721,
0.0684788029925187,0.0025729231342828777,
0.06852867830423941,0.0004034431661928267,
0.0685785536159601,0.0006298105749499641,
0.0686284289276808,0.017780502022447832,
0.0686783042394015,0.02136465069180322,
0.06872817955112219,0.035955116793389086,
0.0687780548628429,0.027434895133366048,
0.0688279301745636,0.014700546552987668,
0.06887780548628429,0.01721594833096606,
0.06892768079800499,-0.021976870614136577,
0.06897755610972568,0.028784211458341223,
0.06902743142144638,0.02896453482743675,
0.06907730673316709,0.016266325970200796,
0.06912718204488778,0.028652111576549982,
0.06917705735660848,0.03351300784126382,
0.06922693266832917,0.004618676367741548,
0.06927680798004987,0.022392085535813115,
0.06932668329177058,0.0436685391968866,
0.06937655860349128,0.03303876050008704,
0.06942643391521197,0.009327488950577036,
0.06947630922693267,0.024711062391119483,
0.06952618453865336,-0.011281354218019991,
0.06957605985037406,-0.003925144677225576,
0.06962593516209477,-0.0039006332230876566,
0.06967581047381546,-0.011791799979266444,
0.06972568578553616,0.022791286256066853,
0.06977556109725686,0.013238393673307525,
0.06982543640897755,0.03249530771502034,
0.06987531172069826,-0.003711220230374568,
0.06992518703241896,0.02487174537855482,
0.06997506234413965,-0.00014308557428558202,
0.07002493765586035,0.037292804072123764,
0.07007481296758104,-0.008422546579274666,
0.07012468827930174,0.018749101512965813,
0.07017456359102245,0.0370964120592773,
0.07022443890274314,0.016916566275247753,
0.07027431421446384,0.026116888207466743,
0.07032418952618454,0.034451115625951746,
0.07037406483790523,0.026116661163754266,
0.07042394014962594,0.0383671711770214,
0.07047381546134664,0.03508165770500953,
0.07052369077306733,0.010153462620615582,
0.07057356608478803,0.023338292852774965,
0.07062344139650872,0.03740584132997892,
0.07067331670822943,0.021014799536575667,
0.07072319201995013,0.020445179714657837,
0.07077306733167082,0.0624942727731613,
0.07082294264339152,0.010221128574477248,
0.07087281795511222,-0.003261204834267839,
0.07092269326683291,0.0004385749285006693,
0.07097256857855362,0.021827343345834034,
0.07102244389027432,0.012459337560279296,
0.07107231920199501,-0.005658432376795794,
0.07112219451371571,-0.0012286994312269428,
0.0711720698254364,0.012267680019376772,
0.07122194513715711,0.025830047840705826,
0.07127182044887781,0.0313190825398995,
0.0713216957605985,0.03417867164498588,
0.0713715710723192,0.019533880504251398,
0.0714214463840399,0.019435398562005556,
0.07147132169576059,0.00784400124208819,
0.0715211970074813,0.0008847931169383601,
0.071571072319202,0.0019586598619591757,
0.0716209476309227,0.038564930489128145,
0.07167082294264339,0.023659598748865352,
0.07172069825436408,0.0199198572936456,
0.0717705735660848,0.018365510103553095,
0.07182044887780549,0.03773467711227223,
0.07187032418952619,0.028243785282496357,
0.07192019950124688,0.04617391818595332,
0.07197007481296758,0.03037006984551957,
0.07201995012468827,0.05230038960029086,
0.07206982543640898,0.023326169031799356,
0.07211970074812968,-0.027663330408366885,
0.07216957605985037,0.0465717937185816,
0.07221945137157107,0.01513074249141978,
0.07226932668329177,0.03359607452910506,
0.07231920199501247,0.024913889988117846,
0.07236907730673317,0.026149939423506033,
0.07241895261845387,0.021326325304522848,
0.07246882793017456,0.03329114573152055,
0.07251870324189526,0.014757143252454655,
0.07256857855361595,0.05026068314394788,
0.07261845386533666,0.00940481660033229,
0.07266832917705736,0.04131353259633819,
0.07271820448877805,0.04778460956537282,
0.07276807980049875,0.0214393038459186,
0.07281795511221945,0.0005755338437562797,
0.07286783042394016,0.04138708199722969,
0.07291770573566085,0.02455039152290082,
0.07296758104738155,0.02049395716126053,
0.07301745635910224,0.017002019713520042,
0.07306733167082294,0.045046776264397695,
0.07311720698254365,0.0012970037219746794,
0.07316708229426434,0.048657988494023585,
0.07321695760598504,0.02404034679986148,
0.07326683291770573,0.049931226815912055,
0.07331670822942643,0.0016341742639374643,
0.07336658354114713,0.010691976495556992,
0.07341645885286784,0.0014452470715569515,
0.07346633416458853,0.02686393645200561,
0.07351620947630923,0.031060790157410745,
0.07356608478802992,0.009184980835583084,
0.07361596009975062,0.015699502705950736,
0.07366583541147133,-0.0011714843256639164,
0.07371571072319202,0.015182123616394667,
0.07376558603491272,0.0361974655034399,
0.07381546134663342,0.03332901773455474,
0.07386533665835411,0.008574089163972827,
0.0739152119700748,0.03677779656580595,
0.07396508728179552,0.019934282906978365,
0.07401496259351621,0.006102657843533355,
0.07406483790523691,0.028198304045154398,
0.0741147132169576,0.003407615843853483,
0.0741645885286783,0.016279763458222213,
0.07421446384039901,0.00845361227224504,
0.0742643391521197,0.013460014396917273,
0.0743142144638404,-0.0007620815828752528,
0.0743640897755611,0.03296259796610038,
0.07441396508728179,0.006649575114015961,
0.07446384039900249,-0.011214484678307074,
0.0745137157107232,-0.0034311919602257462,
0.07456359102244389,0.01670422662063288,
0.07461346633416459,-0.005435318116346545,
0.07466334164588528,0.025501277560420733,
0.07471321695760598,-0.00521778932283232,
0.07476309226932669,0.026887340815166798,
0.07481296758104738,0.007431357349757748,
0.07486284289276808,0.02591286727769089,
0.07491271820448878,0.0559397556118367,
0.07496259351620947,0.01235856442102623,
0.07501246882793017,0.015530631360276681,
0.07506234413965088,0.005445630794734299,
0.07511221945137157,-0.006637912841574587,
0.07516209476309227,-0.010869275529125328,
0.07521197007481296,0.02198122680300746,
0.07526184538653366,0.024258159843873302,
0.07531172069825437,0.026323035794564353,
0.07536159600997507,0.05397030664622948,
0.07541147132169576,0.026647480279507328,
0.07546134663341646,0.02140985007251636,
0.07551122194513715,0.018366718029386355,
0.07556109725685786,0.013599681951688723,
0.07561097256857856,0.02702633386240228,
0.07566084788029925,0.007234478245182606,
0.07571072319201995,-0.0020090761234391914,
0.07576059850374064,-0.004581456538435273,
0.07581047381546134,0.016821133901953937,
0.07586034912718205,0.009306471961340417,
0.07591022443890275,-0.010753824032376263,
0.07596009975062344,0.005402032393611408,
0.07600997506234414,-0.0041518894761336175,
0.07605985037406483,-0.003894221254089076,
0.07610972568578554,0.0041259363070797715,
0.07615960099750624,-0.002791631479780711,
0.07620947630922693,-0.006919898524092215,
0.07625935162094763,-0.007399260789034589,
0.07630922693266833,0.023832086992714708,
0.07635910224438902,-0.04213795454432759,
0.07640897755610973,0.012439942463336216,
0.07645885286783043,0.018777991753552752,
0.07650872817955112,0.015739807109050524,
0.07655860349127182,0.021763861536501505,
0.07660847880299251,0.032102305000564546,
0.07665835411471322,0.011304510188610279,
0.07670822942643392,-2.8615949616462785e-05,
0.07675810473815461,0.009181268459886713,
0.07680798004987531,0.00797511801713181,
0.076857855361596,-0.017275461809736773,
0.0769077306733167,0.011620479806055184,
0.07695760598503741,0.012497885333367337,
0.0770074812967581,0.015084262265249166,
0.0770573566084788,-0.002876654676248809,
0.0771072319201995,0.0006514199681446628,
0.0771571072319202,0.008543078042951771,
0.0772069825436409,-0.00036586151183012113,
0.0772568578553616,0.015549895232359424,
0.0773067331670823,0.0016348353577181145,
0.07735660847880299,0.018790479212100426,
0.07740648379052369,-0.014793170089074843,
0.0774563591022444,0.023506954740139224,
0.07750623441396509,-0.002076450260416325,
0.07755610972568579,-0.0022157652715920784,
0.07760598503740648,-0.00955617823792478,
0.07765586034912718,-0.008345026434375414,
0.07770573566084787,0.0007630236243929803,
0.07775561097256858,0.012034442410793003,
0.07780548628428928,-0.0009864802958008166,
0.07785536159600998,-0.006792135168443082,
0.07790523690773067,-0.0023745606836490015,
0.07795511221945137,0.007929471211817956,
0.07800498753117208,-0.013079954467480849,
0.07805486284289277,-0.005884620787739763,
0.07810473815461347,0.025099054502155327,
0.07815461346633416,0.015172031362756341,
0.07820448877805486,0.012061691643102751,
0.07825436408977555,-0.02578477202518114,
0.07830423940149626,0.016785135636534106,
0.07835411471321696,0.03014580116796725,
0.07840399002493766,-0.004571604047211039,
0.07845386533665835,0.0013750786716654612,
0.07850374064837905,0.01596975076187809,
0.07855361596009976,0.0023333636139607943,
0.07860349127182045,0.006416325501453784,
0.07865336658354115,-0.017195305168456146,
0.07870324189526184,0.0070710754916729745,
0.07875311720698254,0.008206142091489938,
0.07880299251870324,-0.033208007295233655,
0.07885286783042394,-0.006194488791510893,
0.07890274314214464,0.015391275283519273,
0.07895261845386534,0.006088000929222685,
0.07900249376558603,0.00376323984033969,
0.07905236907730673,-0.008929781966487672,
0.07910224438902744,0.008599117721184265,
0.07915211970074813,0.0003536217964126929,
0.07920199501246883,0.0035714143588582445,
0.07925187032418952,-0.012264132419599292,
0.07930174563591022,-0.013353852121829863,
0.07935162094763092,-0.0017530511003743584,
0.07940149625935163,0.00603987185536363,
0.07945137157107232,-0.030992073420636545,
0.07950124688279302,-0.008866126989726532,
0.07955112219451371,0.009189372081517527,
0.07960099750623441,0.001145285640191512,
0.07965087281795512,-0.03616149288225705,
0.07970074812967581,-0.02617196286173075,
0.07975062344139651,-0.005612014395643848,
0.0798004987531172,-0.012789691093223898,
0.0798503740648379,-0.0178650199474614,
0.07990024937655861,-0.03246184149392163,
0.0799501246882793,0.005710734731352552,
0.08,-0.009481703342579497,
0.0800498753117207,-0.008870543200132842,
0.0800997506234414,-0.01710648854578667,
0.08014962593516209,0.01930724642415678,
0.0801995012468828,0.001585512998049406,
0.0802493765586035,0.006591113703931348,
0.08029925187032419,0.0012965764873825638,
0.08034912718204489,-0.020754490861138366,
0.08039900249376558,-0.009956988588249513,
0.08044887780548629,-0.00979258561905912,
0.08049875311720699,-0.007681159598749146,
0.08054862842892768,-0.024022250472768906,
0.08059850374064838,-0.013384417017082014,
0.08064837905236907,0.014001485880436421,
0.08069825436408977,0.008198782794794211,
0.08074812967581048,-0.004015058014175199,
0.08079800498753117,-0.03411325824867777,
0.08084788029925187,0.024975793730392985,
0.08089775561097257,-0.006868773492102151,
0.08094763092269326,0.001683977060219475,
0.08099750623441397,-0.047387653795287615,
0.08104738154613467,-0.012732351804482485,
0.08109725685785536,-0.008190017661814271,
0.08114713216957606,-0.03152127876646258,
0.08119700748129675,-0.006573061956046291,
0.08124688279301745,0.0019857615614430474,
0.08129675810473816,-0.007903464431470955,
0.08134663341645886,-0.033874377570937565,
0.08139650872817955,-0.009967644612687525,
0.08144638403990025,-0.023682694283539703,
0.08149625935162094,0.01511395523201349,
0.08154613466334165,-0.04873608029216156,
0.08159600997506235,-0.0022658900269065876,
0.08164588528678304,-0.013565539865623576,
0.08169576059850374,-0.01870651518659032,
0.08174563591022443,-0.024084256062159325,
0.08179551122194513,-0.017637299820640127,
0.08184538653366584,-0.009953123871603424,
0.08189526184538654,-0.004812483103764628,
0.08194513715710723,-0.02628769528052244,
0.08199501246882793,-0.016186932676853588,
0.08204488778054862,-0.0023954775637188685,
0.08209476309226933,0.017044442155222057,
0.08214463840399003,-0.01511797405434807,
0.08219451371571072,-0.010290921266684443,
0.08224438902743142,-0.01139197928361414,
0.08229426433915212,-0.01384886487460225,
0.08234413965087282,-0.02925101035912149,
0.08239401496259352,-0.028345834756044033,
0.08244389027431422,-0.0021598878364738356,
0.08249376558603491,-0.022028782122512965,
0.08254364089775561,-0.018383644941179035,
0.0825935162094763,-0.02992800214968119,
0.08264339152119701,0.03054190072831022,
0.08269326683291771,-0.024340898304551425,
0.0827431421446384,0.0003483935693747789,
0.0827930174563591,0.014898284885834431,
0.0828428927680798,-0.02592427238527776,
0.0828927680798005,-0.009060726375912462,
0.0829426433915212,-0.008827718819043933,
0.0829925187032419,0.012657982945018206,
0.08304239401496259,-0.013457134961697011,
0.08309226932668329,-0.025588954898158954,
0.08314214463840398,-0.0231752833054322,
0.0831920199501247,-0.02294742897720678,
0.08324189526184539,-0.01479563024903631,
0.08329177057356608,0.01300495239828767,
0.08334164588528678,-0.017767802096062307,
0.08339152119700748,-0.042005405958959546,
0.08344139650872819,-0.011651691260267289,
0.08349127182044888,-0.025711299986759854,
0.08354114713216958,-0.018238105772389254,
0.08359102244389027,-0.04409724168985259,
0.08364089775561097,-0.009703820346426927,
0.08369077306733166,-0.005106675533675108,
0.08374064837905237,-0.03451778039383004,
0.08379052369077307,0.018508143194352577,
0.08384039900249377,-0.03298245994169953,
0.08389027431421446,-0.0008575786636670375,
0.08394014962593516,-0.02547907339013291,
0.08399002493765587,-0.019219647318784977,
0.08403990024937656,-0.017632842702075872,
0.08408977556109726,-0.002114389312788437,
0.08413965087281795,-0.01663641823194206,
0.08418952618453865,0.0029053523977883317,
0.08423940149625936,-0.008760469509342225,
0.08428927680798005,-0.03028044857574786,
0.08433915211970075,-0.006335624716350248,
0.08438902743142145,0.019122419701033757,
0.08443890274314214,-0.017388625008368984,
0.08448877805486284,0.004811723762527056,
0.08453865336658355,-0.034613328665022404,
0.08458852867830424,-0.01232292143263606,
0.08463840399002494,-0.008979172249276522,
0.08468827930174563,-0.0069298365832545245,
0.08473815461346633,-0.015392783443919335,
0.08478802992518704,0.00044673001430773924,
0.08483790523690773,-0.004067567482849943,
0.08488778054862843,-0.001657522263650013,
0.08493765586034913,0.006645283073382972,
0.08498753117206982,-0.008907789004873986,
0.08503740648379052,-0.01149027079938726,
0.08508728179551123,0.007036812694888418,
0.08513715710723192,-0.0017358866776785034,
0.08518703241895262,-0.007228605942763507,
0.08523690773067331,0.0116656191320137,
0.08528678304239401,0.007711209471510593,
0.08533665835411472,-0.01626247232290083,
0.08538653366583542,0.013297312178691928,
0.08543640897755611,-0.012112948517224807,
0.0854862842892768,-0.02673032026704053,
0.0855361596009975,-0.0003185984259715998,
0.0855860349127182,-0.013459559395036813,
0.08563591022443891,0.007451802010522558,
0.0856857855361596,-0.02705803181942209,
0.0857356608478803,0.004656327022966004,
0.085785536159601,0.0010598982555159462,
0.08583541147132169,-0.007806409352203616,
0.0858852867830424,-0.015316999276809611,
0.0859351620947631,-0.011129302914168844,
0.08598503740648379,0.005838844976410983,
0.08603491271820449,-0.0077714117389713665,
0.08608478802992518,0.012268142502825898,
0.08613466334164588,-0.004167830023484571,
0.08618453865336659,-0.018868534081159655,
0.08623441396508728,-0.006970379562046543,
0.08628428927680798,-0.0002778431462665187,
0.08633416458852868,-0.023775743660786906,
0.08638403990024937,-0.010223226120746644,
0.08643391521197008,-0.0297273345904425,
0.08648379052369078,-0.016160897823316017,
0.08653366583541147,0.004640481999622419,
0.08658354114713217,-0.0029657887581842892,
0.08663341645885286,0.016394577951735084,
0.08668329177057357,0.00018841834072730584,
0.08673316708229427,0.009528629063863403,
0.08678304239401496,0.010966364098138039,
0.08683291770573566,0.019657831309360007,
0.08688279301745636,-0.030430894852902103,
0.08693266832917705,0.020078241141025376,
0.08698254364089776,0.0037216656424621337,
0.08703241895261846,0.01654771022910075,
0.08708229426433915,-0.00635687646149053,
0.08713216957605985,0.024158803277304512,
0.08718204488778054,0.02080961931446035,
0.08723192019950125,0.01763539916743377,
0.08728179551122195,-0.010028177822937677,
0.08733167082294264,0.02080801102125836,
0.08738154613466334,0.023196058469434518,
0.08743142144638404,-0.008041126874232498,
0.08748129675810473,-0.005489731924137075,
0.08753117206982544,0.009124984407931603,
0.08758104738154614,-0.016168629318661015,
0.08763092269326683,0.009078164833058481,
0.08768079800498753,0.0009474548329244884,
0.08773067331670822,0.015774636588036954,
0.08778054862842893,0.00035731620755106996,
0.08783042394014963,-0.012843171260803754,
0.08788029925187033,0.0048234097731502355,
0.08793017456359102,0.039910857826988784,
0.08798004987531172,0.01177152492208303,
0.08802992518703241,0.030545952689521053,
0.08807980049875312,0.000717655355964103,
0.08812967581047382,0.015894155084495338,
0.08817955112219451,0.013114968685562965,
0.08822942643391521,0.003758475139203018,
0.0882793017456359,-0.003099279891471504,
0.08832917705735661,0.016237235135200267,
0.08837905236907731,0.021825864648106374,
0.088428927680798,0.0028103394657811136,
0.0884788029925187,0.014807692188360385,
0.0885286783042394,0.001137613553927365,
0.0885785536159601,0.011791499699045993,
0.0886284289276808,0.01460922673552037,
0.0886783042394015,0.020931224147459744,
0.0887281795511222,0.03179899123898073,
0.08877805486284289,0.011159989424735917,
0.08882793017456359,-0.005450542373446436,
0.0888778054862843,-0.013345267562122416,
0.08892768079800499,0.0166892124235898,
0.08897755610972569,0.02371229413837254,
0.08902743142144638,0.007901158005878652,
0.08907730673316708,0.04742394397485031,
0.08912718204488779,0.03432505151880109,
0.08917705735660848,0.011160091917823085,
0.08922693266832918,0.002813162340708053,
0.08927680798004987,0.008188284205528298,
0.08932668329177057,0.03782003317265731,
0.08937655860349127,0.01316267727848059,
0.08942643391521198,-0.008936994407698226,
0.08947630922693267,0.02114581248027991,
0.08952618453865337,0.005804775836242278,
0.08957605985037406,0.027810059810980427,
0.08962593516209476,0.01571670668443626,
0.08967581047381547,0.022236743388993254,
0.08972568578553616,0.03000808441453301,
0.08977556109725686,0.03363560003610096,
0.08982543640897755,0.058869875394260175,
0.08987531172069825,0.022617207491031334,
0.08992518703241895,0.004467379563322667,
0.08997506234413966,0.02922697067359292,
0.09002493765586035,0.01899334019731744,
0.09007481296758105,-0.007234685964384483,
0.09012468827930174,0.016853885119600957,
0.09017456359102244,-0.005776331537514303,
0.09022443890274315,0.032911481759819006,
0.09027431421446384,-0.0010285563250147442,
0.09032418952618454,0.02449861708156983,
0.09037406483790524,0.005427664585307655,
0.09042394014962593,0.03476850243395451,
0.09047381546134663,0.0245272703016719,
0.09052369077306734,0.01758029285508643,
0.09057356608478803,0.034005351445082196,
0.09062344139650873,0.02180320312806528,
0.09067331670822942,0.05473953001024472,
0.09072319201995012,0.05208663338331108,
0.09077306733167083,0.04157123732239412,
0.09082294264339152,0.02489625320853882,
0.09087281795511222,0.024808348784448615,
0.09092269326683292,0.025319651119017076,
0.09097256857855361,0.03518012617030288,
0.09102244389027432,0.014568467899884687,
0.09107231920199502,0.02300540848739057,
0.09112219451371571,0.03112181179503216,
0.09117206982543641,0.04218579235063363,
0.0912219451371571,0.03961667549555576,
0.0912718204488778,0.010275631535494562,
0.09132169576059851,0.02939289475346083,
0.0913715710723192,-0.008800442982627131,
0.0914214463840399,0.009455885883078021,
0.0914713216957606,-0.00198498710234344,
0.09152119700748129,0.034903663832835385,
0.091571072319202,0.05250544233767343,
0.0916209476309227,0.05228145596992377,
0.09167082294264339,-0.001393020283578083,
0.09172069825436409,0.03899956987700133,
0.09177057356608478,0.025585695632493324,
0.09182044887780548,0.021645717044020497,
0.09187032418952619,0.04158015526177162,
0.09192019950124689,0.038801464147351125,
0.09197007481296758,0.018605084633382975,
0.09201995012468828,0.050361317101534984,
0.09206982543640897,0.07034699815773124,
0.09211970074812968,0.00392887003688009,
0.09216957605985038,0.03442377010545759,
0.09221945137157107,0.03888642767672464,
0.09226932668329177,0.021748506823181774,
0.09231920199501246,0.04367363999542993,
0.09236907730673316,0.026624204836731533,
0.09241895261845387,0.014112116004886504,
0.09246882793017457,0.04459412464974631,
0.09251870324189526,0.022627519015733615,
0.09256857855361596,0.027682136628295367,
0.09261845386533665,0.040902598041819026,
0.09266832917705736,0.026264217554329734,
0.09271820448877806,0.03405250248793334,
0.09276807980049875,0.031289586415786545,
0.09281795511221945,0.030562855592945658,
0.09286783042394015,0.043887034570343916,
0.09291770573566084,0.0001332584566884759,
0.09296758104738155,0.011433518722615587,
0.09301745635910225,0.026865650698291645,
0.09306733167082294,0.016795042610400462,
0.09311720698254364,0.017940079104885966,
0.09316708229426433,0.036924152956647666,
0.09321695760598504,0.04429413642060821,
0.09326683291770574,0.01868355789032302,
0.09331670822942643,0.024415854664931895,
0.09336658354114713,0.025090932322478395,
0.09341645885286783,0.035956759592881256,
0.09346633416458854,0.029490111582677617,
0.09351620947630923,0.03647452393848959,
0.09356608478802993,0.029802813154114753,
0.09361596009975062,0.012086355560668479,
0.09366583541147132,0.01803720698421526,
0.09371571072319201,0.024412559599090077,
0.09376558603491272,0.004943526873273825,
0.09381546134663342,0.013886698812488376,
0.09386533665835411,0.031612315766674816,
0.09391521197007481,0.04487931346815542,
0.0939650872817955,0.012377535924054734,
0.09401496259351622,0.024508962553093604,
0.09406483790523691,0.02376704415524224,
0.09411471321695761,0.023215684355998318,
0.0941645885286783,0.025094252038013194,
0.094214463840399,0.015746339184447712,
0.0942643391521197,0.014485801735053861,
0.0943142144638404,0.02101447514166673,
0.0943640897755611,0.03383856099785526,
0.0944139650872818,0.029786937683293966,
0.09446384039900249,0.0030618051590993144,
0.09451371571072319,0.030809448190251124,
0.0945635910224439,0.02055782423579428,
0.09461346633416459,0.012890741434172048,
0.09466334164588529,0.019826910245779893,
0.09471321695760598,-0.0051138952802627195,
0.09476309226932668,0.027731541069325984,
0.09481296758104737,-0.004374542767719317,
0.09486284289276808,0.0093266003815255,
0.09491271820448878,0.05475707757884549,
0.09496259351620948,0.028845213181263055,
0.09501246882793017,0.02217126922018736,
0.09506234413965087,0.04480514571318229,
0.09511221945137158,-0.008968407847391554,
0.09516209476309227,0.02646990040271277,
0.09521197007481297,0.023186202686941326,
0.09526184538653366,-0.027091520118086618,
0.09531172069825436,0.037783621935668185,
0.09536159600997507,0.023693615385850422,
0.09541147132169576,0.04392922127956572,
0.09546134663341646,0.03201943070008616,
0.09551122194513716,0.025226213246826563,
0.09556109725685785,-0.002176938812739365,
0.09561097256857855,0.016977629219141397,
0.09566084788029926,-0.005066108803079703,
0.09571072319201995,0.025694528435771562,
0.09576059850374065,0.012754835938551501,
0.09581047381546134,0.009049320662667717,
0.09586034912718204,0.029074539983225144,
0.09591022443890275,0.01206648324260477,
0.09596009975062345,0.005688497786151785,
0.09600997506234414,0.0335689615536189,
0.09605985037406484,0.0507249378820404,
0.09610972568578553,0.01659857793454666,
0.09615960099750623,0.011733147608667453,
0.09620947630922694,-0.004157136184665369,
0.09625935162094763,0.031429547118857606,
0.09630922693266833,0.01627133029551946,
0.09635910224438902,0.03967777062298215,
0.09640897755610972,-0.004666874716117698,
0.09645885286783043,-0.01031001435969476,
0.09650872817955113,-0.0064446873080174025,
0.09655860349127182,0.01333838840218577,
0.09660847880299252,0.0005204550735258672,
0.09665835411471321,0.0013707547003954622,
0.09670822942643391,0.030669931556056136,
0.09675810473815462,-0.003891787397399654,
0.09680798004987531,0.015525361304307195,
0.09685785536159601,0.023643141841481696,
0.0969077306733167,0.005386925087466065,
0.0969576059850374,-0.012905606018413045,
0.09700748129675811,0.032677541558032,
0.0970573566084788,-0.0185699703992674,
0.0971072319201995,0.0020625710757296734,
0.0971571072319202,-0.03712813318878664,
0.0972069825436409,-0.013896692583632759,
0.09725685785536159,-0.0253849314110184,
0.0973067331670823,0.01068169738921172,
0.097356608478803,0.002936803874015269,
0.09740648379052369,0.01588084264687358,
0.09745635910224439,0.017859211426550822,
0.09750623441396508,0.01331571866986523,
0.09755610972568579,0.027709111404505368,
0.09760598503740649,0.00880284354377657,
0.09765586034912718,0.007034452986430928,
0.09770573566084788,0.015470188096178816,
0.09775561097256857,-0.00336062014167893,
0.09780548628428928,0.021681970401872915,
0.09785536159600998,-0.03212163641717621,
0.09790523690773068,0.017290912996776472,
0.09795511221945137,-0.0014809436661896939,
0.09800498753117207,0.0002841216711368462,
0.09805486284289276,-0.02752306127002623,
0.09810473815461347,-0.011311631262420123,
0.09815461346633417,0.016711061926122334,
0.09820448877805486,0.005271292257041724,
0.09825436408977556,0.002912583458629405,
0.09830423940149625,0.0005144838227097124,
0.09835411471321696,-0.004480300388595558,
0.09840399002493766,0.005393685943937009,
0.09845386533665836,-0.020379411839899546,
0.09850374064837905,-0.017007850262214054,
0.09855361596009975,-0.009108746859525741,
0.09860349127182044,-0.016458571082067806,
0.09865336658354115,-0.01422083471036511,
0.09870324189526185,0.020263538307942093,
0.09875311720698254,-0.0335559297667203,
0.09880299251870324,-0.002781634329793782,
0.09885286783042393,-0.038750528177744166,
0.09890274314214464,-0.006021250017895077,
0.09895261845386534,0.014258641194524151,
0.09900249376558604,-0.004999596587861023,
0.09905236907730673,0.022385775086970525,
0.09910224438902743,0.002652111380855203,
0.09915211970074812,0.003920695349433094,
0.09920199501246883,0.007635594317996241,
0.09925187032418953,-0.009971920796898976,
0.09930174563591022,0.009794975606387214,
0.09935162094763092,0.021038308429594293,
0.09940149625935162,-0.013065426518172874,
0.09945137157107233,0.02612010801610148,
0.09950124688279302,0.010093616515962123,
0.09955112219451372,-0.008792141483308254,
0.09960099750623441,-0.015979796456781603,
0.09965087281795511,-0.009581455955547056,
0.0997007481296758,-0.009750554192542296,
0.09975062344139651,-0.005480331345587246,
0.09980049875311721,0.009742427695943742,
0.0998503740648379,-0.01431535143155474,
0.0999002493765586,-0.01969130612488728,
0.0999501246882793,-0.00633301316197804,
0.1,-0.010330582496373588,
0.1000498753117207,-0.026123822788725472,
0.1000997506234414,-0.00027534553734893767,
0.10014962593516209,-0.009580325105664075,
0.10019950124688279,-0.0011885431307240048,
0.1002493765586035,-0.026070543302488335,
0.1002992518703242,-0.003271360782455427,
0.10034912718204489,-0.012098459753094027,
0.10039900249376559,0.014201948039988543,
0.10044887780548628,-0.023229653024289993,
0.10049875311720698,-0.02547084301332929,
0.10054862842892769,0.0007414175663725577,
0.10059850374064838,-0.013773613024762965,
0.10064837905236908,-0.02390400610150431,
0.10069825436408977,-0.022735054883098307,
0.10074812967581047,-0.007869850674398212,
0.10079800498753118,-0.007291598477127011,
0.10084788029925187,0.007672707173799604,
0.10089775561097257,-0.012774586657046668,
0.10094763092269327,-0.004045411772760475,
0.10099750623441396,-0.013097354872207005,
0.10104738154613466,-0.013875463787951178,
0.10109725685785537,-0.0020132918977858235,
0.10114713216957606,-0.008609180783122014,
0.10119700748129676,-0.002883461798431462,
0.10124688279301745,-0.03194792949525512,
0.10129675810473815,-0.025149881378772797,
0.10134663341645886,-0.029874911838810577,
0.10139650872817955,-0.01559009445516895,
0.10144638403990025,-0.00010093583609791824,
0.10149625935162095,-0.055861035348554314,
0.10154613466334164,-0.001531824602363483,
0.10159600997506234,-0.003409941024415211,
0.10164588528678305,-0.00582927508417177,
0.10169576059850374,-0.01429093733163819,
0.10174563591022444,-0.020437588951651896,
0.10179551122194513,-0.01833902459999207,
0.10184538653366583,0.012101740616656514,
0.10189526184538654,-0.015953906426180418,
0.10194513715710724,-0.006166400115558754,
0.10199501246882793,-0.0385436092581309,
0.10204488778054863,-0.018795049903344116,
0.10209476309226932,-0.02336823181004037,
0.10214463840399003,-0.003913498489817535,
0.10219451371571073,-0.034557273253025225,
0.10224438902743142,-0.006075091904817456,
0.10229426433915212,0.009737469289583071,
0.10234413965087281,-0.01702822162508887,
0.10239401496259351,-0.01851644478601335,
0.10244389027431422,0.034114813356608154,
0.10249376558603492,-0.02035747357063423,
0.10254364089775561,-0.009624683527308204,
0.10259351620947631,-0.0214147257120802,
0.102643391521197,-0.0023281245742735775,
0.10269326683291771,-0.007403495882088486,
0.10274314214463841,0.004914525090015906,
0.1027930174563591,-0.012904078191257981,
0.1028428927680798,-0.01325468988402971,
0.1028927680798005,-0.007877983535974858,
0.10294264339152119,-0.01805143565769656,
0.1029925187032419,0.005639514134190796,
0.1030423940149626,-0.028207738473158047,
0.10309226932668329,-0.0198127182580198,
0.10314214463840399,0.011525480164074908,
0.10319201995012468,-0.009820249853624854,
0.10324189526184539,-0.007380240002409463,
0.10329177057356609,-0.022868615323587523,
0.10334164588528678,-0.011279943242927264,
0.10339152119700748,-0.005317345453431028,
0.10344139650872818,0.005318939753836807,
0.10349127182044887,-0.027630521515327827,
0.10354114713216958,-0.025423569478490095,
0.10359102244389028,-0.017057228681620865,
0.10364089775561097,-0.022844425815083225,
0.10369077306733167,0.000565649976390933,
0.10374064837905236,-0.008505372615919658,
0.10379052369077307,-0.007325869440631775,
0.10384039900249377,0.010049426413547537,
0.10389027431421446,0.0083924916674398,
0.10394014962593516,-0.0017402488279922535,
0.10399002493765586,-0.030039115594200746,
0.10403990024937655,-0.030223399205642397,
0.10408977556109726,-0.0026896556709752875,
0.10413965087281796,0.012565482497596526,
0.10418952618453865,0.004332802589659802,
0.10423940149625935,-0.004544943556883169,
0.10428927680798004,-0.017697610503841797,
0.10433915211970075,-0.028703767777773642,
0.10438902743142145,-0.014818963428048995,
0.10443890274314215,-0.04687089897183892,
0.10448877805486284,-0.020542385850236433,
0.10453865336658354,-0.010217282877455637,
0.10458852867830425,-0.033128325061953054,
0.10463840399002494,-0.04465312035521127,
0.10468827930174564,-0.016269737214382997,
0.10473815461346633,0.006328632563296958,
0.10478802992518703,-0.024512833428774885,
0.10483790523690772,0.0016249769751902551,
0.10488778054862843,0.009375150028038754,
0.10493765586034913,-0.0020512328533971447,
0.10498753117206983,-0.023304623172470784,
0.10503740648379052,-0.012483791039084499,
0.10508728179551122,-0.0003181564488495127,
0.10513715710723193,-0.02312703411006157,
0.10518703241895262,-0.0022116417312520397,
0.10523690773067332,-0.0071350729456465395,
0.10528678304239401,-0.005061869679399153,
0.10533665835411471,0.003748788783198268,
0.1053865336658354,-0.003867666240211453,
0.10543640897755611,0.011732768714710141,
0.10548628428927681,-0.02928658194505849,
0.1055361596009975,0.010969991458000893,
0.1055860349127182,-0.008882968517100766,
0.1056359102244389,0.00016377746145024232,
0.10568578553615961,-0.006495634617078559,
0.1057356608478803,0.0017136784031447552,
0.105785536159601,-0.01692042388819586,
0.1058354114713217,-0.025089676706759573,
0.10588528678304239,0.0134205496823438,
0.10593516209476309,0.006612215685009686,
0.1059850374064838,0.013874669317957977,
0.10603491271820449,-0.016386209790185065,
0.10608478802992519,-0.004982848441155446,
0.10613466334164588,-0.015415980714098564,
0.10618453865336658,-0.015703098971109188,
0.10623441396508729,0.019141417718398016,
0.10628428927680798,-0.00025697313361035647,
0.10633416458852868,0.0015573431745074709,
0.10638403990024937,-0.008509231654711891,
0.10643391521197007,0.0074565947539858585,
0.10648379052369077,0.002284647056152215,
0.10653366583541148,0.005680222932407894,
0.10658354114713217,0.017308197404920917,
0.10663341645885287,0.0033819724237170445,
0.10668329177057356,0.013631567625111599,
0.10673316708229426,0.01194878591830095,
0.10678304239401497,0.022105712007295088,
0.10683291770573566,-0.00916098236440683,
0.10688279301745636,0.04197983168235197,
0.10693266832917706,0.0050780787174121,
0.10698254364089775,-0.010752768421204859,
0.10703241895261846,-0.00786060683060455,
0.10708229426433916,0.01654708622805348,
0.10713216957605985,0.026264542536143833,
0.10718204488778055,-0.014747772192818866,
0.10723192019950124,0.03642407354493926,
0.10728179551122194,-0.008494649385139847,
0.10733167082294265,-0.01590871039961145,
0.10738154613466334,-0.006986716127708055,
0.10743142144638404,-0.004575826509130581,
0.10748129675810474,-0.008763303904021712,
0.10753117206982543,-0.007567398424520998,
0.10758104738154614,0.008893570622483526,
0.10763092269326684,0.010844689581856798,
0.10768079800498753,0.007453603508635956,
0.10773067331670823,-0.008334213975247935,
0.10778054862842892,0.01188507901395719,
0.10783042394014962,0.010383658777408886,
0.10788029925187033,0.0033603388597940546,
0.10793017456359102,0.022563959989549888,
0.10798004987531172,0.0019490719322880108,
0.10802992518703242,-0.006030542117029216,
0.10807980049875311,-0.001346396545783609,
0.10812967581047382,-0.004377953293903614,
0.10817955112219452,0.021497374668007392,
0.10822942643391521,0.003168442242635138,
0.10827930174563591,0.007837068603817464,
0.1083291770573566,0.013767880694071085,
0.1083790523690773,0.01356482576993008,
0.10842892768079801,0.0029928223640761,
0.1084788029925187,-0.008726087850884301,
0.1085286783042394,0.00825612635718282,
0.1085785536159601,0.039792697747596875,
0.10862842892768079,-0.008052030661075613,
0.1086783042394015,0.0263388365112881,
0.1087281795511222,0.0004378255999358954,
0.1087780548628429,0.016507097147837605,
0.10882793017456359,0.017698599186918622,
0.10887780548628428,0.017748063949480888,
0.108927680798005,0.001962795123417165,
0.10897755610972569,0.026582555768155634,
0.10902743142144639,0.010862809272825536,
0.10907730673316708,0.026138096002299036,
0.10912718204488778,0.011427591724083369,
0.10917705735660847,0.0005643035738419726,
0.10922693266832918,0.015959929282073727,
0.10927680798004988,0.027170615954432986,
0.10932668329177057,0.009378771700944291,
0.10937655860349127,0.040864963737794927,
0.10942643391521197,0.017329297871282547,
0.10947630922693267,0.03448932171933619,
0.10952618453865337,0.029923540823382742,
0.10957605985037407,0.0007424496058870377,
0.10962593516209476,0.01099019353705449,
0.10967581047381546,0.04532275901731858,
0.10972568578553615,0.026434808496418424,
0.10977556109725686,-0.011785924932316373,
0.10982543640897756,0.029924098200962375,
0.10987531172069825,0.009671810592414568,
0.10992518703241895,0.0008948151723835833,
0.10997506234413965,0.015747944194630645,
0.11002493765586036,0.029127067314308717,
0.11007481296758105,0.00896208450134098,
0.11012468827930175,0.04353805103105771,
0.11017456359102244,0.01715774676713203,
0.11022443890274314,0.015092801731604053,
0.11027431421446383,0.032756093478471464,
0.11032418952618454,0.0422437831654303,
0.11037406483790524,0.0036284826855517496,
0.11042394014962593,-0.0024366549948286152,
0.11047381546134663,0.03123136597890474,
0.11052369077306733,0.009027623549626766,
0.11057356608478804,0.02752843761655391,
0.11062344139650873,0.05794413052119719,
0.11067331670822943,0.011705680246591417,
0.11072319201995012,0.015600590241702648,
0.11077306733167082,0.017972124439653077,
0.11082294264339151,0.03039709694373343,
0.11087281795511222,0.019386735744713203,
0.11092269326683292,0.031428642514246506,
0.11097256857855362,-0.010615345264959858,
0.11102244389027431,0.018294451680570038,
0.111072319201995,0.012767120068728615,
0.11112219451371572,0.015378775446078515,
0.11117206982543641,0.05318498311083466,
0.11122194513715711,0.019823639821896298,
0.1112718204488778,0.022360135319427522,
0.1113216957605985,0.00785984132862658,
0.11137157107231921,0.027516501918732523,
0.1114214463840399,0.04873194753258938,
0.1114713216957606,0.020250828813643634,
0.1115211970074813,0.023854716756981323,
0.11157107231920199,0.04104782679387176,
0.11162094763092269,0.03108051719390228,
0.1116708229426434,0.009680944617297887,
0.11172069825436409,0.02922658913537358,
0.11177057356608479,0.03212326371185215,
0.11182044887780548,0.036101696596206524,
0.11187032418952618,-0.0032354398393784206,
0.11192019950124689,0.02918366407615388,
0.11197007481296758,0.015341774164761707,
0.11201995012468828,0.03070198945822981,
0.11206982543640898,0.03240478631788351,
0.11211970074812967,0.03338128330702335,
0.11216957605985037,0.04450742892608467,
0.11221945137157108,0.00046690370074165335,
0.11226932668329177,0.06747950491873339,
0.11231920199501247,0.03381210877642585,
0.11236907730673316,0.02831277895397261,
0.11241895261845386,0.053967397546550167,
0.11246882793017457,0.03349230011830531,
0.11251870324189527,0.007986876097003662,
0.11256857855361596,0.0341888270727464,
0.11261845386533666,0.02501328342884917,
0.11266832917705735,0.011689343062754987,
0.11271820448877805,0.0015812361570409182,
0.11276807980049876,0.02589342138053487,
0.11281795511221945,0.00961431724960915,
0.11286783042394015,0.01656765815961537,
0.11291770573566084,0.04281857427109926,
0.11296758104738154,0.041600364184144895,
0.11301745635910225,0.05235033953862165,
0.11306733167082295,0.031014798735584097,
0.11311720698254364,0.020391555882558306,
0.11316708229426434,0.04801361470867138,
0.11321695760598503,0.02485653305767238,
0.11326683291770574,0.02990464327559685,
0.11331670822942644,0.014452267904902132,
0.11336658354114713,0.03907644213414632,
0.11341645885286783,0.03361706804916582,
0.11346633416458853,0.020638921449567964,
0.11351620947630922,0.03301243769610751,
0.11356608478802993,0.009790763377422948,
0.11361596009975063,0.028517175362577578,
0.11366583541147132,-0.001854345261896817,
0.11371571072319202,0.010206859646432743,
0.11376558603491271,-0.01084856795808535,
0.11381546134663342,0.030924476010010447,
0.11386533665835412,0.0334421800064965,
0.11391521197007481,0.032562573191977785,
0.11396508728179551,0.024378033568733422,
0.1140149625935162,0.06388628902632844,
0.1140648379052369,0.01208552564675947,
0.11411471321695761,0.010877877552837456,
0.1141645885286783,0.030383896740501824,
0.114214463840399,0.016749356445116867,
0.1142643391521197,-0.011327597015058807,
0.1143142144638404,0.01438208779842326,
0.1143640897755611,0.031260805525579104,
0.1144139650872818,0.021660296385387058,
0.1144638403990025,0.020975196860205665,
0.11451371571072319,0.02111046924160594,
0.11456359102244389,0.01118546810714163,
0.11461346633416458,0.004167941551851052,
0.11466334164588529,0.008889576289765373,
0.11471321695760599,0.03151804614866968,
0.11476309226932668,0.04287992770096792,
0.11481296758104738,0.03731060009221519,
0.11486284289276807,0.011230206555627956,
0.11491271820448878,0.012727878296330495,
0.11496259351620948,0.015155171064301571,
0.11501246882793018,0.02654935665418362,
0.11506234413965087,0.022935530318198706,
0.11511221945137157,0.01826566971404177,
0.11516209476309226,0.036518533655787444,
0.11521197007481297,0.024446714704727448,
0.11526184538653367,0.020191083930846933,
0.11531172069825436,0.028747297579610958,
0.11536159600997506,0.010928400576218621,
0.11541147132169575,0.021208282465357435,
0.11546134663341646,0.002604319269685556,
0.11551122194513716,0.010029741675276874,
0.11556109725685786,0.012526555854026568,
0.11561097256857855,-0.0019064923856440819,
0.11566084788029925,0.043116693413330326,
0.11571072319201996,-0.007668051359969178,
0.11576059850374065,0.016716707921093223,
0.11581047381546135,0.0070078032475961675,
0.11586034912718204,0.009869797430919532,
0.11591022443890274,0.006798814120175276,
0.11596009975062344,0.006384324732870988,
0.11600997506234415,0.018486124368609476,
0.11605985037406484,0.01144084570828353,
0.11610972568578554,0.01328370922474305,
0.11615960099750623,0.01220474810673349,
0.11620947630922693,0.006658954278502073,
0.11625935162094764,0.019097854617512417,
0.11630922693266833,0.004739612809190455,
0.11635910224438903,0.007563185586757586,
0.11640897755610972,0.004374062299454872,
0.11645885286783042,0.01655699557590357,
0.11650872817955112,0.00909150847346781,
0.11655860349127183,0.0054508306241663465,
0.11660847880299252,0.025392534311615127,
0.11665835411471322,0.0018653799264265435,
0.11670822942643391,0.02616739131683509,
0.11675810473815461,0.01726052337513206,
0.11680798004987532,-0.006224727505384695,
0.11685785536159601,0.0017039732654922733,
0.11690773067331671,0.011082180040605703,
0.1169576059850374,0.03338324281610674,
0.1170074812967581,-0.010038270276707074,
0.1170573566084788,0.007050743734900108,
0.1171072319201995,-0.007440222601834374,
0.1171571072319202,0.006534779360137506,
0.1172069825436409,0.021840156762919033,
0.1172568578553616,-0.012864609942155523,
0.11730673316708229,0.0100781510586501,
0.117356608478803,0.013581778741528928,
0.1174064837905237,-0.00035590457998321313,
0.11745635910224439,0.01668518674074089,
0.11750623441396509,0.004726712260932594,
0.11755610972568578,0.028255066879925173,
0.11760598503740648,0.00905125408099422,
0.11765586034912719,0.002411274298989719,
0.11770573566084788,0.006385565917780868,
0.11775561097256858,0.012265982098260504,
0.11780548628428927,0.025859538218211787,
0.11785536159600997,-0.01554859362616276,
0.11790523690773068,-0.026657797658776065,
0.11795511221945137,0.0016768100215530009,
0.11800498753117207,-0.01035055862406258,
0.11805486284289277,0.009581837309971253,
0.11810473815461346,-0.030589750229725238,
0.11815461346633417,0.009509686746694782,
0.11820448877805487,0.01827748900441213,
0.11825436408977556,0.014644176582021596,
0.11830423940149626,0.006677971741793066,
0.11835411471321695,-0.012514052696926233,
0.11840399002493765,0.006988156077223866,
0.11845386533665836,2.736152253620056e-05,
0.11850374064837906,0.007004741338999012,
0.11855361596009975,0.0038180736542410445,
0.11860349127182045,-0.008762188081005807,
0.11865336658354114,-0.02124072239146135,
0.11870324189526185,-0.028561864454547132,
0.11875311720698255,-0.0062162018927280965,
0.11880299251870324,0.02539473422177986,
0.11885286783042394,0.014308875163689587,
0.11890274314214463,-0.006365320180148662,
0.11895261845386533,0.011420614944744398,
0.11900249376558604,-0.011491194117113827,
0.11905236907730674,-0.023620115563290606,
0.11910224438902743,0.001803042073110538,
0.11915211970074813,-0.006919763513432089,
0.11920199501246882,0.003224939692457113,
0.11925187032418953,-0.009975791908431245,
0.11930174563591023,-0.017219035108624707,
0.11935162094763092,0.004656882352559948,
0.11940149625935162,-0.019455789239978358,
0.11945137157107232,0.008565703031374964,
0.11950124688279301,0.008113868871931763,
0.11955112219451372,-0.002169324989784889,
0.11960099750623442,-0.018731173275576954,
0.11965087281795511,0.0077188218595112355,
0.11970074812967581,0.005109253873372353,
0.1197506234413965,-0.012684481328574984,
0.11980049875311721,0.013441260784746032,
0.11985037406483791,0.0005898154053345598,
0.1199002493765586,0.0006358780324575274,
0.1199501246882793,-0.009428896075595489,
0.12,0.006866150613524103,
0.1200498753117207,-0.009661848030343909,
0.1200997506234414,-0.009272919404465556,
0.1201496259351621,0.012607444825909279,
0.12019950124688279,-0.010303277348052042,
0.12024937655860349,-0.04727285976101156,
0.12029925187032418,-0.011964107196761924,
0.1203491271820449,0.02138149980687458,
0.12039900249376559,-0.0287119053225308,
0.12044887780548628,-0.015560426347599255,
0.12049875311720698,0.006991091964951629,
0.12054862842892768,-0.01867820203012537,
0.12059850374064839,-0.008337023536898063,
0.12064837905236908,-0.00634593163317723,
0.12069825436408978,-0.011458770426312173,
0.12074812967581047,-0.03433304155342937,
0.12079800498753117,-0.026739920749975533,
0.12084788029925186,-0.004379216567082763,
0.12089775561097257,-0.012411089992361077,
0.12094763092269327,0.007792868666313898,
0.12099750623441397,-0.009456986023729564,
0.12104738154613466,-0.01821748021484383,
0.12109725685785536,0.0001593964390900742,
0.12114713216957607,-0.03272644502171061,
0.12119700748129676,0.017507291349286386,
0.12124688279301746,0.009756305467033639,
0.12129675810473815,0.002406106324801623,
0.12134663341645885,-0.016515067021065855,
0.12139650872817954,0.006429849886559836,
0.12144638403990025,-0.018125910740917038,
0.12149625935162095,-0.0019670154933859093,
0.12154613466334165,-0.020563155851503548,
0.12159600997506234,-0.01832398220827617,
0.12164588528678304,-0.018273900509930968,
0.12169576059850375,-0.008814037413024051,
0.12174563591022444,-0.016243487642995987,
0.12179551122194514,0.00974470478287405,
0.12184538653366583,-0.008498614609009851,
0.12189526184538653,0.010384194418538986,
0.12194513715710723,7.332484699805984e-05,
0.12199501246882793,-0.02177636455981765,
0.12204488778054863,-0.022850588045818437,
0.12209476309226933,0.004886851388134966,
0.12214463840399002,-0.027535335247022435,
0.12219451371571072,-0.011702524901599915,
0.12224438902743143,-0.013213433900947535,
0.12229426433915212,0.0013269361179746326,
0.12234413965087282,0.0050515359131218796,
0.12239401496259351,-0.033151057060715874,
0.12244389027431421,-0.0031718497167680946,
0.12249376558603492,0.006067889431555331,
0.12254364089775562,0.005531315334408791,
0.12259351620947631,-0.02195008132745518,
0.122643391521197,0.011897549482462697,
0.1226932668329177,-0.01796390131341672,
0.1227431421446384,-0.033624303312802764,
0.12279301745635911,-0.007267550353037075,
0.1228428927680798,-0.024075396673903696,
0.1228927680798005,-0.0032500420107468763,
0.1229426433915212,-0.011651166941727069,
0.12299251870324189,-0.007672148645783515,
0.1230423940149626,0.005275173492790117,
0.1230922693266833,-0.011358831556139105,
0.12314214463840399,-0.019747055147478893,
0.12319201995012469,-0.011983637414410168,
0.12324189526184538,-0.0040215259623611185,
0.12329177057356608,-0.005811554195748985,
0.12334164588528679,0.0060922251828941665,
0.12339152119700748,0.003030874931337142,
0.12344139650872818,-0.02590648765920845,
0.12349127182044888,-0.005972841151327326,
0.12354114713216957,-0.016521214679346908,
0.12359102244389028,-0.015793855844276474,
0.12364089775561098,-0.022640889573932153,
0.12369077306733167,-0.0232577129494055,
0.12374064837905237,-0.016991293015051385,
0.12379052369077306,-0.02322966069543495,
0.12384039900249376,0.0008949317409190638,
0.12389027431421447,-0.0017904514214831064,
0.12394014962593516,-0.004149486399381045,
0.12399002493765586,-0.022414287440551857,
0.12403990024937656,0.008196660850747804,
0.12408977556109725,0.008820165371464133,
0.12413965087281796,-0.00856007801890654,
0.12418952618453866,0.0066248658096912695,
0.12423940149625935,-0.012466396816754651,
0.12428927680798005,-0.012294896644573564,
0.12433915211970074,0.017903737618317372,
0.12438902743142144,-0.001162782692306674,
0.12443890274314215,-0.011616890640019667,
0.12448877805486284,-0.011700897115441299,
0.12453865336658354,0.008097335975135865,
0.12458852867830424,-0.015079130804118294,
0.12463840399002493,-0.005775076164035807,
0.12468827930174564,0.014262244680711132,
0.12473815461346634,-0.015839067077602555,
0.12478802992518703,0.0061544474144586345,
0.12483790523690773,-0.014778313193650274,
0.12488778054862842,-0.01264756651430618,
0.12493765586034913,-0.02159597350807779,
0.12498753117206983,-0.012278410422125519,
0.12503740648379053,-0.04373519161203798,
0.12508728179551123,0.0036950658268943117,
0.12513715710723192,-0.009559858102936615,
0.12518703241895263,-0.009998976178218882,
0.1252369077306733,0.011628174422397556,
0.12528678304239402,0.010521976854656372,
0.1253366583541147,-0.012634211919987075,
0.1253865336658354,0.018398058428038152,
0.12543640897755612,-0.008508235886617355,
0.1254862842892768,-0.0158678160912687,
0.1255361596009975,0.0064037497997222375,
0.1255860349127182,-0.023692661704916476,
0.1256359102244389,-0.012327600596957514,
0.1256857855361596,0.02851969316919276,
0.1257356608478803,-0.014085876221967752,
0.125785536159601,-0.0014555402843297914,
0.12583541147132168,-0.005165816297381143,
0.1258852867830424,0.00466766120678156,
0.1259351620947631,-0.0014225927676337273,
0.12598503740648379,0.003812188124796307,
0.1260349127182045,-0.01591005840902376,
0.12608478802992518,0.030553958524067636,
0.1261346633416459,-0.011564609584361996,
0.1261845386533666,-0.008009501888199797,
0.12623441396508728,-0.013905880244285386,
0.126284289276808,0.0021401091961717827,
0.12633416458852867,-0.011758949896241338,
0.12638403990024938,0.01419979662586753,
0.1264339152119701,0.001172627449053167,
0.12648379052369077,0.006574329357608424,
0.12653366583541148,0.019106718636801127,
0.12658354114713216,0.01877437219290653,
0.12663341645885287,-0.01031289821024283,
0.12668329177057355,0.018388312959610714,
0.12673316708229426,-0.005314388813667635,
0.12678304239401497,0.0036838259250134334,
0.12683291770573565,0.0013947842179562447,
0.12688279301745636,-0.01584685089321584,
0.12693266832917705,-0.010738624107488045,
0.12698254364089775,-0.0030583705414305423,
0.12703241895261846,0.03267522668342228,
0.12708229426433915,-0.005790279246234275,
0.12713216957605986,-0.0017925803194115356,
0.12718204488778054,0.006585278850998688,
0.12723192019950125,-0.020305423813578433,
0.12728179551122196,0.028719986826804118,
0.12733167082294264,0.005374664946534959,
0.12738154613466335,-0.020571583073780174,
0.12743142144638403,0.0005008572503135446,
0.12748129675810474,0.004560432127821448,
0.12753117206982545,-0.013675033903745524,
0.12758104738154613,-0.0009693033063422184,
0.12763092269326684,0.003200567159706364,
0.12768079800498752,0.02453826883229265,
0.12773067331670823,0.013136066710179473,
0.1277805486284289,0.022825637871931207,
0.12783042394014962,0.01684688679355943,
0.12788029925187033,-0.012596929240504897,
0.12793017456359101,0.011223963060248468,
0.12798004987531172,0.0052268637790758455,
0.1280299251870324,-0.00898027677301214,
0.12807980049875312,0.0074630266205106665,
0.12812967581047383,0.006446744766761221,
0.1281795511221945,0.04014280433708879,
0.12822942643391522,0.04653916956120084,
0.1282793017456359,0.012063705023300508,
0.1283291770573566,0.011476010144045076,
0.12837905236907732,-0.016730399144765526,
0.128428927680798,-0.0035809696641615485,
0.1284788029925187,0.003596225422509274,
0.1285286783042394,0.024122227835036716,
0.1285785536159601,0.03837419963757354,
0.1286284289276808,0.02111308713673389,
0.1286783042394015,0.006791558112027887,
0.1287281795511222,0.032987662837497496,
0.12877805486284288,0.018564733613195272,
0.1288279301745636,0.01549880615045225,
0.1288778054862843,0.022748313339369285,
0.12892768079800498,-0.002497872560905834,
0.1289775561097257,0.0135702017858788,
0.12902743142144638,0.03461988388529794,
0.12907730673316709,0.04035000890323233,
0.12912718204488777,0.03244946048730171,
0.12917705735660848,-0.0010519237408190864,
0.1292269326683292,0.018877731856048612,
0.12927680798004987,0.009848202667861624,
0.12932668329177058,0.03456389928966338,
0.12937655860349126,0.020756034651487527,
0.12942643391521197,0.010864293885085282,
0.12947630922693268,0.043737227004757184,
0.12952618453865336,0.028239345681082145,
0.12957605985037407,0.03458305558060079,
0.12962593516209475,0.014118081925431108,
0.12967581047381546,0.032935134156561935,
0.12972568578553617,0.011313904225036277,
0.12977556109725685,0.011749635453165184,
0.12982543640897756,0.01568540585579246,
0.12987531172069824,0.03699529194011384,
0.12992518703241895,0.014795660852805398,
0.12997506234413966,0.03400425950658979,
0.13002493765586035,0.03771475361598553,
0.13007481296758105,0.031887446055673896,
0.13012468827930174,0.025029558126629742,
0.13017456359102245,0.0043572731719723964,
0.13022443890274316,0.03315931648072292,
0.13027431421446384,0.02039388717799725,
0.13032418952618455,0.005558236730473811,
0.13037406483790523,0.004012623673292387,
0.13042394014962594,0.035732769801833625,
0.13047381546134662,0.039543859426287846,
0.13052369077306733,0.043421166902679866,
0.13057356608478804,0.01738374316982188,
0.13062344139650872,0.006248850226800929,
0.13067331670822943,0.028573862003172978,
0.1307231920199501,0.026035241012931636,
0.13077306733167082,0.032351111652986146,
0.13082294264339153,0.028774234849338297,
0.13087281795511221,0.015941785124912095,
0.13092269326683292,0.04081026060208266,
0.1309725685785536,0.03283102777372864,
0.13102244389027431,0.01969041572225011,
0.13107231920199502,-0.005324447173117003,
0.1311221945137157,0.03754606872288453,
0.13117206982543642,0.029254085924223103,
0.1312219451371571,0.011112426477202494,
0.1312718204488778,0.021669703588551404,
0.13132169576059852,0.036911769132412134,
0.1313715710723192,0.029226536858572832,
0.1314214463840399,0.024009615468251037,
0.1314713216957606,0.008135111576472225,
0.1315211970074813,0.043340345056391165,
0.13157107231920198,-0.00379702573022319,
0.1316209476309227,0.011110753649377077,
0.1316708229426434,0.05156611479449083,
0.13172069825436408,0.007938362989704878,
0.1317705735660848,0.011593987038211517,
0.13182044887780547,0.05028345562876001,
0.13187032418952618,0.0021150981265466405,
0.1319201995012469,0.034691125484960145,
0.13197007481296757,0.03563660127246383,
0.13201995012468828,0.033406511378508544,
0.13206982543640897,0.033677905929137594,
0.13211970074812968,0.027422343466568688,
0.13216957605985039,0.022460721863236447,
0.13221945137157107,0.03829679260139086,
0.13226932668329178,0.026467173157621572,
0.13231920199501246,0.022587729802493857,
0.13236907730673317,0.012010015589074937,
0.13241895261845388,0.032224109239746605,
0.13246882793017456,0.04428114912835071,
0.13251870324189527,0.053754498905447055,
0.13256857855361595,0.033863578102160494,
0.13261845386533666,0.005702689202419873,
0.13266832917705737,-0.007024136550043188,
0.13271820448877805,0.054156883184327584,
0.13276807980049876,0.02297247048933449,
0.13281795511221944,0.046003084408722014,
0.13286783042394015,0.02258080425828756,
0.13291770573566083,0.039451490767991294,
0.13296758104738154,0.03434585079812181,
0.13301745635910225,0.004992232045500578,
0.13306733167082294,0.03223232259993194,
0.13311720698254365,0.037992720822000565,
0.13316708229426433,0.021102521633363958,
0.13321695760598504,0.017344187881475563,
0.13326683291770575,0.035831345235905386,
0.13331670822942643,0.024735344190074483,
0.13336658354114714,0.014899554119367185,
0.13341645885286782,0.009416204812730082,
0.13346633416458853,-0.01887431743941757,
0.13351620947630924,0.05804934078322338,
0.13356608478802992,0.050856844640900664,
0.13361596009975063,0.014276748288406261,
0.1336658354114713,0.041037517643342174,
0.13371571072319202,0.02673181474016876,
0.13376558603491273,0.013260872856215957,
0.1338154613466334,0.031157814240316266,
0.13386533665835412,0.012155758214000018,
0.1339152119700748,0.02629051445680653,
0.13396508728179551,0.03229392093202871,
0.1340149625935162,0.03879539223088642,
0.1340648379052369,0.036298785028565886,
0.13411471321695762,0.035315759846142596,
0.1341645885286783,0.02069603209215402,
0.134214463840399,0.021947870935321592,
0.1342643391521197,0.04806326178517857,
0.1343142144638404,0.0336284795218863,
0.1343640897755611,0.027349937262332404,
0.1344139650872818,0.03072189836984701,
0.1344638403990025,0.012112347570650814,
0.13451371571072318,0.011331180171620367,
0.1345635910224439,0.026161335301361763,
0.1346134663341646,0.0259603162218995,
0.13466334164588528,0.03291330830904758,
0.134713216957606,0.02284075934894832,
0.13476309226932667,0.016490048986857124,
0.13481296758104738,0.033504456065909946,
0.1348628428927681,0.029052912158780753,
0.13491271820448877,0.04591428223280147,
0.13496259351620948,0.027523201195446358,
0.13501246882793017,0.05026941597963969,
0.13506234413965088,0.03975015510765264,
0.13511221945137158,0.046380581529297256,
0.13516209476309227,0.006541790286063245,
0.13521197007481298,0.021387201220363333,
0.13526184538653366,0.013648784081359838,
0.13531172069825437,0.013880002547804013,
0.13536159600997505,0.010778554385323243,
0.13541147132169576,0.017648837267314796,
0.13546134663341647,0.0037053542405265406,
0.13551122194513715,-0.009567672021517544,
0.13556109725685786,0.041523205690779025,
0.13561097256857854,-0.011925212842293118,
0.13566084788029925,0.03021092055801676,
0.13571072319201996,-0.007728758107809649,
0.13576059850374064,0.012744638104045622,
0.13581047381546135,0.014501704566690747,
0.13586034912718203,0.015591842969879068,
0.13591022443890274,-0.0069828133345934545,
0.13596009975062345,0.002863639777164634,
0.13600997506234414,0.008475960362312273,
0.13605985037406484,0.021284715376200622,
0.13610972568578553,0.012268714379416831,
0.13615960099750624,0.037298178274257854,
0.13620947630922695,-0.0014328270382686498,
0.13625935162094763,0.039640369716256854,
0.13630922693266834,0.03231664026999543,
0.13635910224438902,0.039457359406835674,
0.13640897755610973,0.05585646871162661,
0.1364588528678304,0.03671024313793035,
0.13650872817955112,0.05324750098203629,
0.13655860349127183,-0.007582497021234761,
0.1366084788029925,-0.012699419025929378,
0.13665835411471322,0.028627450731197678,
0.1367082294264339,0.04922873526937066,
0.1367581047381546,0.033008373466572545,
0.13680798004987532,0.024398297201098033,
0.136857855361596,0.017490452694322013,
0.1369077306733167,-0.00040572895224549356,
0.1369576059850374,0.02849084933512619,
0.1370074812967581,0.008477531575259569,
0.13705735660847881,0.01896182961011485,
0.1371072319201995,0.024480134693595463,
0.1371571072319202,0.0013514076649759309,
0.1372069825436409,0.021920597694264046,
0.1372568578553616,-0.0008702516823579799,
0.1373067331670823,-0.004343071063888367,
0.137356608478803,0.010594144330832767,
0.1374064837905237,0.00723497963182637,
0.13745635910224438,0.016912903997203105,
0.1375062344139651,0.027919363805974495,
0.1375561097256858,0.02295712774876453,
0.13760598503740648,0.005707326812050273,
0.1376558603491272,0.02506727854525498,
0.13770573566084787,0.0037128481079530566,
0.13775561097256858,0.011655548357578288,
0.13780548628428926,-0.0021423799516388665,
0.13785536159600997,0.0021801982824619873,
0.13790523690773068,0.0008711878078335195,
0.13795511221945136,0.014774243543325346,
0.13800498753117207,-0.012642462486600323,
0.13805486284289276,0.01784794295045762,
0.13810473815461347,-0.001331957167511724,
0.13815461346633418,0.014450674475384333,
0.13820448877805486,0.0034823198230941803,
0.13825436408977557,-0.02098988772971104,
0.13830423940149625,-0.003488353238108626,
0.13835411471321696,-0.0013206438143889858,
0.13840399002493767,0.054804592969535174,
0.13845386533665835,-0.031118342081193018,
0.13850374064837906,-0.0036362312504536224,
0.13855361596009974,-0.0223102179553792,
0.13860349127182045,0.0020091386872617707,
0.13865336658354116,-0.0006440447388015365,
0.13870324189526184,0.0011967740181497797,
0.13875311720698255,-0.01522795441854791,
0.13880299251870323,-0.012568927369380707,
0.13885286783042394,0.011689932541544839,
0.13890274314214462,-0.014664178515499008,
0.13895261845386533,0.02494158253806219,
0.13900249376558604,0.01301583678072911,
0.13905236907730673,-0.025334681320578145,
0.13910224438902744,-0.01673118375789079,
0.13915211970074812,0.03158341365624863,
0.13920199501246883,0.010235893226225437,
0.13925187032418954,0.0086280256656219,
0.13930174563591022,-0.007567193742962132,
0.13935162094763093,0.007191555611357141,
0.1394014962593516,0.021714891078295558,
0.13945137157107232,0.004191535095654676,
0.13950124688279303,-0.011574529025921458,
0.1395511221945137,0.002696570741936173,
0.13960099750623442,0.004365035023757685,
0.1396508728179551,-0.007142739820466624,
0.1397007481296758,-0.0017358861592963776,
0.13975062344139652,0.004705807201047704,
0.1398004987531172,0.0029083381772776872,
0.1398503740648379,-0.00787420773920912,
0.1399002493765586,0.015444566224815905,
0.1399501246882793,-0.01482619341144578,
0.14,-0.022387938063012376,
0.1400498753117207,0.029256562149148013,
0.1400997506234414,-0.03870258219585546,
0.1401496259351621,-0.0011945683343952043,
0.1401995012468828,0.0036223597359420195,
0.14024937655860348,-0.004644762989489829,
0.1402992518703242,-0.008704916738018235,
0.1403491271820449,0.005675795613735034,
0.14039900249376558,-0.007119693584711074,
0.1404488778054863,-0.029091056894583064,
0.14049875311720697,0.00309918985395035,
0.14054862842892768,0.010424127208031042,
0.1405985037406484,-0.00010249246046068264,
0.14064837905236907,-0.019541120445893307,
0.14069825436408978,-0.023248565031899093,
0.14074812967581046,-0.00704896432501333,
0.14079800498753117,-0.017286537308866846,
0.14084788029925188,-0.01725538215786098,
0.14089775561097256,-0.030243703214624516,
0.14094763092269327,-0.026229179852730267,
0.14099750623441396,0.01215517154859928,
0.14104738154613466,-0.018941865773178475,
0.14109725685785537,0.006967214383030277,
0.14114713216957606,-0.019233698325031832,
0.14119700748129677,-0.006059484717679489,
0.14124688279301745,-0.04828694439615579,
