time,amplitude,label
0.0,0.0017160410021574667,
4.987531172069826e-05,0.008344174933757345,
9.975062344139652e-05,0.005155147458153449,
0.00014962593516209475,-0.018432053048490063,
0.00019950124688279303,0.023320626816853256,
0.00024937655860349125,0.023169452813354415,
0.0002992518703241895,0.03369133019070179,
0.00034912718204488776,0.010557779643184224,
0.00039900249376558606,0.020544970267628658,
0.0004488778054862843,0.02993243240692784,
0.0004987531172069825,0.025860548001822796,
0.0005486284289276808,0.03829322360165418,
0.000598503740648379,0.008420869958982169,
0.0006483790523690773,0.029483513091000876,
0.0006982543640897755,0.026042639891413893,
0.0007481296758104738,0.028741349986451024,
0.0007980049875311721,0.002362014147173753,
0.0008478802992518703,0.004377843850777661,
0.0008977556109725686,0.04378890576535757,
0.0009476309226932668,0.033402349875940276,
0.000997506234413965,0.010740557451423625,
0.0010473815461346633,0.010135337670945746,
0.0010972568578553616,0.006226590013147687,
0.00114713216957606,0.005517792176798084,
0.001197007481296758,0.02482886889634235,
0.0012468827930174563,-0.005223303738348249,
0.0012967581047381546,0.0010716699749467769,
0.001346633416458853,0.00909763227299953,
0.001396508728179551,0.006223264825692321,
0.0014463840399002493,0.02824697965353133,
0.0014962593516209476,-0.006464369387035509,
0.001546134663341646,0.010354716421307697,
0.0015960099750623442,0.030343465279439312,
0.0016458852867830423,0.008006451219896267,
0.0016957605985037406,0.017435412917373497,
0.001745635910224439,0.02135327387012219,
0.0017955112219451373,0.025489146729815015,
0.0018453865336658353,0.026832738174381116,
0.0018952618453865336,0.04767953871358577,
0.001945137157107232,-0.012375725203145903,
0.00199501246882793,0.03631721167375601,
0.0020448877805486283,0.03186103737241613,
0.0020947630922693266,0.03451847589361856,
0.002144638403990025,0.01714045390976217,
0.0021945137157107233,0.0016612094117371343,
0.0022443890274314216,0.032707010585596094,
0.00229426433915212,-0.021536516800645007,
0.0023441396508728177,0.02297391735380485,
0.002394014962593516,0.01289981275325728,
0.0024438902743142144,0.03647221276855019,
0.0024937655860349127,0.02844970276744868,
0.002543640897755611,0.04590781234440649,
0.0025935162094763093,0.032617942820281604,
0.0026433915211970076,0.03511217916130191,
0.002693266832917706,0.01814066402546995,
0.002743142144638404,-0.010949282618891686,
0.002793017456359102,0.020622103058273732,
0.0028428927680798004,-0.0039104735399159395,
0.0028927680798004987,0.02942481253260075,
0.002942643391521197,0.004736283021228549,
0.0029925187032418953,0.017218299578366677,
0.0030423940149625936,0.015557536327255605,
0.003092269326683292,0.03683227617642712,
0.00314214463840399,0.009969511833015405,
0.0031920199501246885,0.02659970324992904,
0.0032418952618453864,0.01255015930189126,
0.0032917705735660847,0.02634174676696461,
0.003341645885286783,0.028491744703678358,
0.0033915211970074813,0.01223842933232561,
0.0034413965087281796,-0.010795959941984044,
0.003491271820448878,-0.0005733981355559338,
0.003541147132169576,0.0016265663511157123,
0.0035910224438902745,0.005006075842231726,
0.0036408977556109724,0.0058074594863043085,
0.0036907730673316707,0.014848263124769643,
0.003740648379052369,0.002663659236776642,
0.0037905236907730673,-0.008848785160117306,
0.0038403990024937656,0.010226943213442625,
0.003890274314214464,0.014887670889838679,
0.003940149625935162,0.014431207191789384,
0.00399002493765586,0.018372124682751952,
0.004039900249376558,0.020431325288205595,
0.004089775561097257,0.038015647911865486,
0.004139650872817955,0.0011733257786857923,
0.004189526184538653,-0.007458767370265525,
0.004239401496259352,0.023595290179538014,
0.00428927680798005,0.020772327646997418,
0.004339152119700748,0.0020403963145926365,
0.0043890274314214465,0.04170877003726791,
0.004438902743142145,0.02990633580061857,
0.004488778054862843,-0.017983371996188026,
0.004538653366583541,0.014748850974005965,
0.00458852867830424,0.004278853900663092,
0.004638403990024938,0.0009129737565141474,
0.0046882793017456355,0.02092272407739326,
0.004738154613466334,0.025240415037612554,
0.004788029925187032,0.01890381543758608,
0.00483790523690773,0.012013647793363589,
0.004887780548628429,-0.0010186294286575436,
0.004937655860349127,0.031810513947865965,
0.004987531172069825,0.02726690145887524,
0.005037406483790524,0.03203232993232127,
0.005087281795511222,0.030327953419291762,
0.00513715710723192,0.01901284354729899,
0.0051870324189526185,0.03234557795039293,
0.005236907730673317,0.030335244981924518,
0.005286783042394015,0.005141151673615934,
0.0053366583541147134,0.01774602952468145,
0.005386533665835412,0.013796194326233012,
0.00543640897755611,0.024441294308054123,
0.005486284289276808,-0.0026225011519417363,
0.005536159600997507,0.038854325727301096,
0.005586034912718204,0.011298560448736525,
0.005635910224438902,0.017049761277637774,
0.005685785536159601,-0.001671042904771377,
0.005735660847880299,-0.013119362979044768,
0.005785536159600997,-0.011630113027193648,
0.005835411471321696,0.013684449794393769,
0.005885286783042394,0.007794646178275913,
0.005935162094763092,0.003443072407738711,
0.0059850374064837905,0.006837270134289263,
0.006034912718204489,0.006107071019701406,
0.006084788029925187,0.026548929084448086,
0.0061346633416458855,0.016455055488465334,
0.006184538653366584,0.012160290577084296,
0.006234413965087282,0.004174190640207113,
0.00628428927680798,-0.006232577165957641,
0.006334164588528679,-0.007124670136162286,
0.006384039900249377,-0.005074233810914142,
0.006433915211970074,-0.00018372033258020302,
0.006483790523690773,0.023670601495417273,
0.006533665835411471,0.017255085081044383,
0.006583541147132169,0.012282424538481987,
0.006633416458852868,-0.008978481689821656,
0.006683291770573566,-0.011536419540925512,
0.006733167082294264,0.02298121815826793,
0.0067830423940149626,0.005871333961862747,
0.006832917705735661,-0.018137128408785997,
0.006882793017456359,0.011626906762627382,
0.0069326683291770575,0.021127969187877904,
0.006982543640897756,0.001556933807535626,
0.007032418952618454,0.010112297878841492,
0.007082294264339152,0.021913812250299543,
0.007132169576059851,-0.005635628809958046,
0.007182044887780549,0.01688182625623967,
0.007231920199501247,0.003077135280596159,
0.007281795511221945,-0.0028503752674100833,
0.007331670822942643,0.018963433925776412,
0.007381546134663341,-0.005098059090298906,
0.00743142144638404,0.006312677468466602,
0.007481296758104738,0.014645129894506503,
0.007531172069825436,-0.010808870486551398,
0.007581047381546135,0.0010387652694825917,
0.007630922693266833,-0.010505511586867019,
0.007680798004987531,0.004072300947495898,
0.0077306733167082295,0.0035399106014496235,
0.007780548628428928,0.009171707275065145,
0.007830423940149626,0.00443904165753118,
0.007880299251870324,-0.006807448444928076,
0.007930174563591023,-0.009683870774644186,
0.00798004987531172,-0.009995714901371253,
0.00802992518703242,0.0023134241946055336,
0.008079800498753117,0.013103540150471316,
0.008129675810473816,0.008430811538060261,
0.008179551122194513,0.00018797581507496645,
0.008229426433915213,0.0094307441901199,
0.00827930174563591,0.00657376754497328,
0.00832917705735661,0.002103636343543127,
0.008379052369077307,0.01939060717321527,
0.008428927680798006,-0.01980385419773363,
0.008478802992518703,0.008570216694356559,
0.0085286783042394,0.014085427282641772,
0.0085785536159601,-0.013640214398262341,
0.008628428927680797,-0.006695204012256294,
0.008678304239401496,-0.010553414361068296,
0.008728179551122194,-0.016746929440901073,
0.008778054862842893,-0.020682806902919425,
0.00882793017456359,-0.01876770634725013,
0.00887780548628429,-0.01386250910896564,
0.008927680798004987,-0.0064426552350584695,
0.008977556109725686,-0.002225957558704095,
0.009027431421446384,0.006486966280181371,
0.009077306733167083,-0.011164744163792059,
0.00912718204488778,-0.005732386818993511,
0.00917705735660848,-0.010397859554457059,
0.009226932668329177,-0.0007502358577072083,
0.009276807980049876,0.017939911234738322,
0.009326683291770574,-0.00993506740360267,
0.009376558603491271,-0.038769980805866175,
0.00942643391521197,0.01291932844938472,
0.009476309226932668,0.0034553668058643072,
0.009526184538653367,0.011973096630017206,
0.009576059850374064,0.007214089811052916,
0.009625935162094763,-0.0197328293053623,
0.00967581047381546,-0.03146431609485464,
0.00972568578553616,-0.01640854520321049,
0.009775561097256857,-0.010018458512961764,
0.009825436408977557,-0.02649532394098527,
0.009875311720698254,0.000757259313731818,
0.009925187032418953,-0.012140941818236068,
0.00997506234413965,-0.012794464757301392,
0.01002493765586035,0.003283000954692262,
0.010074812967581047,-0.02409082838125695,
0.010124688279301746,0.003151621956344155,
0.010174563591022444,-0.00576279016706163,
0.010224438902743141,-0.018396205894367412,
0.01027431421446384,-0.02840099907683051,
0.010324189526184538,-0.005483330818313611,
0.010374064837905237,0.0009407736515447164,
0.010423940149625935,-0.010910629521768415,
0.010473815461346634,-0.02982303840773779,
0.010523690773067331,-0.012841372714129244,
0.01057356608478803,-0.035779526537340955,
0.010623441396508728,-0.03863189695119916,
0.010673316708229427,-0.028198551806658673,
0.010723192019950124,-0.025802967894698714,
0.010773067331670824,0.010488090790591502,
0.010822942643391521,0.01706470261983256,
0.01087281795511222,-0.020746299601310067,
0.010922693266832918,-0.0015927849759363333,
0.010972568578553617,-0.03180847705465527,
0.011022443890274314,-0.008442505332365458,
0.011072319201995013,-0.014335515909473837,
0.01112219451371571,0.00773576596840448,
0.011172069825436408,-0.013898040451662892,
0.011221945137157107,-0.019983109091394415,
0.011271820448877805,-0.013912689129016213,
0.011321695760598504,-0.02603860293689619,
0.011371571072319201,-0.014461409970573567,
0.0114214463840399,-0.0077061238833310754,
0.011471321695760598,-0.0003496448358810515,
0.011521197007481297,-0.0009485467876129729,
0.011571072319201995,-0.028409596702461355,
0.011620947630922694,-0.0019283300456978767,
0.011670822942643391,-0.013504360680534056,
0.01172069825436409,-0.02388052935280498,
0.011770573566084788,-0.003423829764727335,
0.011820448877805487,-0.008195783486534368,
0.011870324189526184,-0.03383471277916818,
0.011920199501246884,-0.010063618980576994,
0.011970074812967581,-0.016915864593071216,
0.012019950124688279,-0.007301866449593932,
0.012069825436408978,-0.01754856391502962,
0.012119700748129675,-0.026372953161952248,
0.012169576059850374,-0.02363073821918606,
0.012219451371571072,-0.00676420427934237,
0.012269326683291771,0.005643053259235205,
0.012319201995012468,-0.010567389230442984,
0.012369077306733168,-0.04119353387735547,
0.012418952618453865,-0.015679776340617756,
0.012468827930174564,-0.0009632459962618002,
0.012518703241895262,-0.026166252343052927,
0.01256857855361596,-0.0037870624240462347,
0.012618453865336658,-0.031326090726149884,
0.012668329177057357,-0.02300715659134026,
0.012718204488778055,-0.017660784166576834,
0.012768079800498754,-0.026803527100514507,
0.012817955112219451,-0.029233902787931823,
0.012867830423940149,-0.03091629025290509,
0.012917705735660848,-0.034460519460177905,
0.012967581047381545,-0.02362239886194487,
0.013017456359102245,0.01295746423470432,
0.013067331670822942,0.000966131234471198,
0.013117206982543641,-0.023875303116108318,
0.013167082294264339,-0.025071643100270713,
0.013216957605985038,-0.03201097256710849,
0.013266832917705735,-0.02061780710366809,
0.013316708229426434,-0.03188328299942294,
0.013366583541147132,0.0027057462277531447,
0.013416458852867831,-0.042229662877494925,
0.013466334164588529,-0.047893222858720726,
0.013516209476309228,-0.020253008047394702,
0.013566084788029925,-0.02397404204806462,
0.013615960099750624,-0.04532643153936532,
0.013665835411471322,-0.02070841896004367,
0.01371571072319202,-0.025919999165087842,
0.013765586034912718,-0.009316463093169094,
0.013815461346633416,-0.023806797053721625,
0.013865336658354115,-0.011377494046717538,
0.013915211970074812,0.0036506179980752562,
0.013965087281795512,-0.03484898113088902,
0.014014962593516209,-0.0097660981881424,
0.014064837905236908,-0.01108331184126812,
0.014114713216957606,-0.01245914254314684,
0.014164588528678305,-0.008383398926583564,
0.014214463840399002,-0.031226070943819417,
0.014264339152119701,-0.009747851102570058,
0.014314214463840399,-0.018493638375741396,
0.014364089775561098,-0.023043617928237767,
0.014413965087281795,-0.02766398986456777,
0.014463840399002495,0.002379720732810616,
0.014513715710723192,-0.01217564515269464,
0.01456359102244389,-0.013948256043530012,
0.014613466334164589,-0.028509949635459282,
0.014663341645885286,-0.000890949463804417,
0.014713216957605985,-0.04639022483358637,
0.014763092269326683,-0.019556835648547138,
0.014812967581047382,-0.021940596688169747,
0.01486284289276808,-0.01895387868620496,
0.014912718204488778,-0.0009701971219872284,
0.014962593516209476,0.0014499719233681367,
0.015012468827930175,-0.01609728350034725,
0.015062344139650873,-0.04727254934201093,
0.015112219451371572,0.0037379309890509804,
0.01516209476309227,0.01621967115298719,
0.015211970074812968,-0.015643134453527417,
0.015261845386533666,0.035844054145889044,
0.015311720698254365,-0.01635171913995171,
0.015361596009975062,-0.01797319550386434,
0.01541147132169576,-0.020649890861802477,
0.015461346633416459,-0.014732973186814775,
0.015511221945137156,0.0053247251283378184,
0.015561097256857856,-0.006352887983236361,
0.015610972568578553,-0.02844613388624284,
0.015660847880299252,0.00371956434248168,
0.01571072319201995,-0.04195237049575779,
0.015760598503740647,0.003456822831508914,
0.015810473815461346,-0.01732086650425083,
0.015860349127182045,-0.008254381024400834,
0.015910224438902745,-0.002454809926043626,
0.01596009975062344,-0.020005703507066472,
0.01600997506234414,0.009933236613083273,
0.01605985037406484,0.001334852868326939,
0.016109725685785538,-0.0034315533810582157,
0.016159600997506234,-0.032758961152187405,
0.016209476309226933,-0.004868466034005235,
0.016259351620947632,-0.018050757469127463,
0.016309226932668328,-0.020260459634727647,
0.016359102244389027,-0.00418476543356452,
0.016408977556109726,-0.018122548123028645,
0.016458852867830425,-0.005118249542305981,
0.01650872817955112,-0.017904868898276298,
0.01655860349127182,0.006210011062340695,
0.01660847880299252,-0.01800766775952681,
0.01665835411471322,-0.028369415457481915,
0.016708229426433914,0.002008014356562556,
0.016758104738154613,-0.013418976158842726,
0.016807980049875312,-0.011179537210681108,
0.01685785536159601,-0.00534380147355919,
0.016907730673316707,-0.002836835282672934,
0.016957605985037406,0.0015655129800824837,
0.017007481296758106,0.0015232243282742525,
0.0170573566084788,-0.01708923240608179,
0.0171072319201995,-0.010002386343475264,
0.0171571072319202,0.006125229633795594,
0.0172069825436409,0.02786881863135761,
0.017256857855361595,-0.013801945920503218,
0.017306733167082294,-0.006098471087573827,
0.017356608478802993,0.0028309117288801595,
0.017406483790523692,-0.0067439969455392376,
0.017456359102244388,-0.009228590957815776,
0.017506234413965087,-0.0019677567136854868,
0.017556109725685786,0.014715767286687623,
0.017605985037406485,-0.03488170198995322,
0.01765586034912718,-0.006243157168940938,
0.01770573566084788,8.165222773284992e-05,
0.01775561097256858,0.020104886026156957,
0.01780548628428928,-0.007508822689921542,
0.017855361596009974,0.02842679305978951,
0.017905236907730673,0.020048394868206615,
0.017955112219451373,-0.01801335082291565,
0.018004987531172068,0.0024524397723063246,
0.018054862842892767,0.04742028174300562,
0.018104738154613467,-0.015507105982123268,
0.018154613466334166,-0.011481244393666839,
0.01820448877805486,0.011273545733979543,
0.01825436408977556,0.004787085486703682,
0.01830423940149626,0.012484700427788964,
0.01835411471321696,-0.0027764309881072096,
0.018403990024937655,0.0030287537400916836,
0.018453865336658354,0.004751123403719358,
0.018503740648379053,0.027018016599354728,
0.018553615960099752,0.0073452658408665415,
0.018603491271820448,0.005422736026847539,
0.018653366583541147,0.013158385900747247,
0.018703241895261846,-0.0018146074184114515,
0.018753117206982542,0.0282840305545597,
0.01880299251870324,-0.024718135936773935,
0.01885286783042394,-0.009972256559168332,
0.01890274314214464,0.014715312423857388,
0.018952618453865335,-0.011737370443100047,
0.019002493765586034,-0.0037072263766252727,
0.019052369077306733,0.013783691860180875,
0.019102244389027433,-9.572845294683087e-05,
0.01915211970074813,-0.0009830426954256337,
0.019201995012468828,0.00970415507367186,
0.019251870324189527,0.02453680398944452,
0.019301745635910226,0.03619583506321697,
0.01935162094763092,0.010807859467489403,
0.01940149625935162,0.03311896146835357,
0.01945137157107232,0.017820914620673804,
0.01950124688279302,-0.0045737241656528226,
0.019551122194513715,0.006779661395953332,
0.019600997506234414,0.00014850025648295226,
0.019650872817955113,0.050526204262293734,
0.01970074812967581,0.01162825745123677,
0.019750623441396508,0.033873781734106226,
0.019800498753117207,-0.015294143485065994,
0.019850374064837906,0.00203106021639763,
0.019900249376558602,0.01125891479333734,
0.0199501246882793,-0.01970540894332224,
0.02,0.024247807959106145,
0.0200498753117207,0.027189372821795017,
0.020099750623441395,0.0306312955428506,
0.020149625935162094,0.00597942396252202,
0.020199501246882794,0.0012503468936510814,
0.020249376558603493,-0.003415370964346711,
0.02029925187032419,-0.0030724572426295386,
0.020349127182044888,0.01341613856512054,
0.020399002493765587,-0.0012814345948964634,
0.020448877805486283,0.010721491626789101,
0.02049875311720698,0.03440901636681121,
0.02054862842892768,-0.0203745598997079,
0.02059850374064838,0.04171602298612612,
0.020648379052369076,0.02003888395029363,
0.020698254364089775,0.02864592118783424,
0.020748129675810474,0.019025032498531498,
0.020798004987531173,0.0343958933109003,
0.02084788029925187,0.017788540702030023,
0.020897755610972568,0.037689508984304475,
0.020947630922693267,0.008064356141131459,
0.020997506234413967,0.01778037182383723,
0.021047381546134662,0.013082674411436105,
0.02109725685785536,0.01779525955007686,
0.02114713216957606,0.04372730911793231,
0.02119700748129676,0.004488609715384586,
0.021246882793017455,0.026357105870558145,
0.021296758104738155,-0.0039745584207545905,
0.021346633416458854,0.03640096360162247,
0.02139650872817955,-0.010478843125088205,
0.02144638403990025,0.038231343268285714,
0.021496259351620948,0.027724371544090375,
0.021546134663341647,0.015374489415342365,
0.021596009975062343,0.0033471282860319702,
0.021645885286783042,0.03408480793130153,
0.02169576059850374,-0.0016171248711807987,
0.02174563591022444,0.015333079507892595,
0.021795511221945136,0.021064533272538356,
0.021845386533665835,0.014483511102815608,
0.021895261845386534,0.03366497978606353,
0.021945137157107233,0.01359459848194871,
0.02199501246882793,0.01756330283708262,
0.02204488778054863,0.007279273759892929,
0.022094763092269327,0.007851074280350933,
0.022144638403990027,0.0026209266368776886,
0.022194513715710722,0.013643788196126794,
0.02224438902743142,0.04447438817213456,
0.02229426433915212,0.020228091051402143,
0.022344139650872816,0.005694910345248253,
0.022394014962593516,0.01558451041938862,
0.022443890274314215,0.013987935718139315,
0.022493765586034914,0.00981023617177508,
0.02254364089775561,0.01881441759199726,
0.02259351620947631,0.047511079567299275,
0.022643391521197008,0.05236549551831303,
0.022693266832917707,0.0006148849182060316,
0.022743142144638403,-0.001682869666674941,
0.022793017456359102,0.020517837434003365,
0.0228428927680798,0.01889626079632322,
0.0228927680798005,0.024359262869148128,
0.022942643391521196,0.01139329639130256,
0.022992518703241895,0.009361099987438724,
0.023042394014962594,0.020095952637616283,
0.02309226932668329,0.01183212809569158,
0.02314214463840399,0.008515693092331198,
0.02319201995012469,0.02688818434521594,
0.023241895261845388,0.015430998791915984,
0.023291770573566083,0.00860991320708858,
0.023341645885286783,0.008673259742590558,
0.02339152119700748,0.0229281543310891,
0.02344139650872818,0.03559781648029266,
0.023491271820448877,0.01662383202927186,
0.023541147132169576,-0.00010633417190566291,
0.023591022443890275,0.008647007770659665,
0.023640897755610974,0.011940442974274627,
0.02369077306733167,0.020583300277589475,
0.02374064837905237,0.019118647329730967,
0.023790523690773068,0.028691239776515737,
0.023840399002493767,0.03225557222308546,
0.023890274314214463,0.029302620135177544,
0.023940149625935162,0.027012631063674394,
0.02399002493765586,0.01794785940169686,
0.024039900249376557,0.019124608611345118,
0.024089775561097256,0.01526417844705886,
0.024139650872817955,0.031465193637373025,
0.024189526184538655,0.00715498935341299,
0.02423940149625935,0.02425654629847457,
0.02428927680798005,0.009497883685373647,
0.02433915211970075,0.03622195299659741,
0.024389027431421448,0.039142005489251896,
0.024438902743142144,0.022669210819723114,
0.024488778054862843,0.0438038175233125,
0.024538653366583542,0.024790437634271027,
0.02458852867830424,0.01128825721689142,
0.024638403990024937,0.0013802190207955166,
0.024688279301745636,0.035691698249020944,
0.024738154613466335,0.012100860235976507,
0.02478802992518703,0.011297458542749848,
0.02483790523690773,0.015591228940256387,
0.02488778054862843,-0.003837615848107139,
0.02493765586034913,0.029727425751007383,
0.024987531172069824,0.018429037657965386,
0.025037406483790523,0.025238402104585632,
0.025087281795511222,0.02018325759129547,
0.02513715710723192,0.024115433574760165,
0.025187032418952617,0.020806146884004267,
0.025236907730673316,0.01202299106066627,
0.025286783042394016,0.02047428985814069,
0.025336658354114715,0.0016315455715054349,
0.02538653366583541,0.011060745701208678,
0.02543640897755611,0.011154047441365547,
0.02548628428927681,0.027653028623080205,
0.025536159600997508,0.010681397611867548,
0.025586034912718204,0.00038103609723196333,
0.025635910224438903,0.02191557307368084,
0.025685785536159602,0.0277536526474306,
0.025735660847880298,0.029917939932679768,
0.025785536159600997,0.023834920196903607,
0.025835411471321696,0.01019176883940921,
0.025885286783042395,-0.005242909106643993,
0.02593516209476309,0.010282914801978106,
0.02598503740648379,0.003608379503799542,
0.02603491271820449,0.007150288781484016,
0.02608478802992519,0.008050827460879392,
0.026134663341645884,-0.00927313522861718,
0.026184538653366583,0.0299649178647148,
0.026234413965087282,0.03140708415704716,
0.02628428927680798,0.019823775047519483,
0.026334164588528677,-0.007440807452758286,
0.026384039900249377,0.02205584002085398,
0.026433915211970076,0.024713281469529967,
0.02648379052369077,0.02227698698862918,
0.02653366583541147,0.031313418527077516,
0.02658354114713217,0.01302452926296888,
0.02663341645885287,0.027898262204526608,
0.026683291770573565,0.007402839513511607,
0.026733167082294264,0.03409582060095788,
0.026783042394014963,0.038701075233291034,
0.026832917705735662,0.029126353508133324,
0.026882793017456358,-0.004284437156217373,
0.026932668329177057,0.01789249740745761,
0.026982543640897756,0.002138680929663731,
0.027032418952618455,0.009068274256865138,
0.02708229426433915,0.013963871312557266,
0.02713216957605985,-0.01482998136381473,
0.02718204488778055,0.039836306412865244,
0.02723192019950125,0.008321656413367169,
0.027281795511221944,-0.0009928838936559964,
0.027331670822942643,0.003614744106484069,
0.027381546134663343,-0.015487455269654135,
0.02743142144638404,0.021782067614141688,
0.027481296758104738,0.014551116299426169,
0.027531172069825437,-0.009260723566288199,
0.027581047381546136,-0.0007338644177676424,
0.02763092269326683,0.012940011964705189,
0.02768079800498753,0.006462468364334357,
0.02773067331670823,-0.0051311023468723765,
0.02778054862842893,0.027669497192549367,
0.027830423940149625,0.026410536350905893,
0.027880299251870324,0.010382017753609462,
0.027930174563591023,0.002539295955040268,
0.027980049875311722,0.008362884926961394,
0.028029925187032418,0.0067100553811222,
0.028079800498753117,-0.003932939830300599,
0.028129675810473816,0.010465773455753946,
0.028179551122194512,0.02144036746003913,
0.02822942643391521,0.018868660906886353,
0.02827930174563591,-0.013271357910561101,
0.02832917705735661,0.006535479365853475,
0.028379052369077305,-0.002260441235648089,
0.028428927680798004,0.003991949743719974,
0.028478802992518704,0.016491794635103387,
0.028528678304239403,0.007038424510875134,
0.0285785536159601,-0.02918636331625901,
0.028628428927680798,0.0025496086283008364,
0.028678304239401497,-0.008229303871225748,
0.028728179551122196,-0.0008939618140751009,
0.02877805486284289,0.0006818407594183563,
0.02882793017456359,0.0066631763001159805,
0.02887780548628429,0.01950535085023442,
0.02892768079800499,0.004718483779120415,
0.028977556109725685,0.011257165908442042,
0.029027431421446384,0.013814290906351627,
0.029077306733167083,0.023424843141435538,
0.02912718204488778,0.012447273598661972,
0.029177057356608478,-0.012415310604460831,
0.029226932668329177,-0.020507481577387902,
0.029276807980049877,-0.000336018801983173,
0.029326683291770572,-0.00035572955013389845,
0.02937655860349127,-0.00578789358631618,
0.02942643391521197,0.006859652139202506,
0.02947630922693267,0.0011232272307144476,
0.029526184538653365,-0.011065649711174689,
0.029576059850374065,-0.0010138078678867462,
0.029625935162094764,0.004751626207002323,
0.029675810473815463,0.0010703658362648527,
0.02972568578553616,-0.018652254980580582,
0.029775561097256858,0.0020160356757193167,
0.029825436408977557,-0.005291740979342328,
0.029875311720698253,0.010974262919054869,
0.029925187032418952,-0.0066534947521598685,
0.02997506234413965,-0.03258126926997333,
0.03002493765586035,-0.0026951996161029817,
0.030074812967581046,-0.011518900268966098,
0.030124688279301745,-0.01624619841771284,
0.030174563591022444,-0.00838648805846051,
0.030224438902743143,0.0027280938414938755,
0.03027431421446384,-0.028673184773039477,
0.03032418952618454,-0.01941776138609235,
0.030374064837905237,-0.012100846440214334,
0.030423940149625937,0.005487720365201482,
0.030473815461346632,-7.635935740463347e-05,
0.03052369077306733,-0.02496187412316606,
0.03057356608478803,0.0052014662163300356,
0.03062344139650873,-0.0062239253024232765,
0.030673316708229426,-0.023491767018439084,
0.030723192019950125,-0.017143319314732546,
0.030773067331670824,-0.03713606708870492,
0.03082294264339152,-0.011312163816208733,
0.03087281795511222,-0.01283803535254343,
0.030922693266832918,0.028827276459160195,
0.030972568578553617,-0.01001994752646767,
0.031022443890274313,-0.021923565564585745,
0.031072319201995012,-0.023318394809355873,
0.03112219451371571,0.009720729857638687,
0.03117206982543641,-0.01977483755033089,
0.031221945137157106,-0.023402039088364496,
0.03127182044887781,0.019510388039838962,
0.031321695760598504,-0.017630223658712252,
0.0313715710723192,-0.003492571626515383,
0.0314214463840399,-0.04228072294876116,
0.0314713216957606,-0.009681700402539805,
0.031521197007481294,0.009358019268906599,
0.031571072319202,-0.03581699814594752,
0.03162094763092269,-0.01878668117751899,
0.03167082294264339,-0.033764363692182595,
0.03172069825436409,-0.030859374669799523,
0.03177057356608479,-0.013708277939167623,
0.03182044887780549,-0.025336543143904294,
0.031870324189526185,-0.02162030969870454,
0.03192019950124688,-0.016797373652169812,
0.03197007481296758,-0.020289036187947702,
0.03201995012468828,-0.007183922661293264,
0.032069825436408975,-0.01490062996386806,
0.03211970074812968,-0.03212007004933275,
0.03216957605985037,-0.0030077949326961038,
0.032219451371571076,-0.0037415874972777305,
0.03226932668329177,-0.0355838483657919,
0.03231920199501247,-0.0022721624803725155,
0.03236907730673317,-0.011308101056094295,
0.032418952618453865,-0.021799938314553423,
0.03246882793017456,-0.04870600740781622,
0.032518703241895264,-0.01594743253214066,
0.03256857855361596,-0.02988468974525648,
0.032618453865336655,-0.008314126350917148,
0.03266832917705736,0.007702395320056468,
0.032718204488778053,-0.049695999454121315,
0.032768079800498756,-0.02141666168427321,
0.03281795511221945,-0.007737720547374007,
0.03286783042394015,-0.04100528044448201,
0.03291770573566085,-0.0356163140119182,
0.032967581047381546,-0.019652688795607023,
0.03301745635910224,-0.02266746886116801,
0.033067331670822944,-0.010913596538867757,
0.03311720698254364,-0.012346400628824814,
0.03316708229426434,-0.03905284672983568,
0.03321695760598504,-0.0312497785713879,
0.033266832917705734,0.016576233962729215,
0.03331670822942644,-0.027899471472927137,
0.03336658354114713,0.0008132493804641275,
0.03341645885286783,-0.03452993646609191,
0.03346633416458853,0.01025910094913629,
0.033516209476309226,-0.021930026563534363,
0.03356608478802992,-0.016956268539919484,
0.033615960099750625,-0.027186556641800086,
0.03366583541147132,-0.025730386439898178,
0.03371571072319202,-0.016558952567726187,
0.03376558603491272,-0.021199978494835736,
0.033815461346633414,-0.023895756732610088,
0.03386533665835412,-0.012078054579758201,
0.03391521197007481,-0.03119909334024308,
0.03396508728179551,-0.027627458754573165,
0.03401496259351621,-0.008558019172943408,
0.03406483790523691,-0.0061318903112618905,
0.0341147132169576,-0.048020823134139426,
0.034164588528678305,-0.024625062379294557,
0.034214463840399,-0.0042969337575231685,
0.034264339152119704,-0.004093699590761207,
0.0343142144638404,-0.03852513285943628,
0.034364089775561095,-0.009231159583658213,
0.0344139650872818,-0.004563416315624168,
0.03446384039900249,0.00970688480654467,
0.03451371571072319,-0.01629759145240299,
0.03456359102244389,-0.03971278766643582,
0.03461346633416459,-0.014221352613499966,
0.03466334164588529,-0.006526252897489395,
0.034713216957605986,-0.029340360389886466,
0.03476309226932668,-0.009662993616096599,
0.034812967581047384,-0.024070178286360572,
0.03486284289276808,-0.0041550297293635775,
0.034912718204488775,-0.026704290593063,
0.03496259351620948,-0.02005050507540738,
0.035012468827930174,-0.0038735233930055433,
0.03506234413965087,-0.012107013457312119,
0.03511221945137157,-0.03194554711470807,
0.03516209476309227,-0.025489665390054754,
0.03521197007481297,-0.010802369355413418,
0.035261845386533666,0.001305286377418561,
0.03531172069825436,-0.010223820022548966,
0.035361596009975065,0.008438865578597143,
0.03541147132169576,-0.005201546746777487,
0.035461346633416456,-0.008306756140650184,
0.03551122194513716,-0.023312592537343718,
0.035561097256857854,-0.013228972446422006,
0.03561097256857856,-0.020940182360781073,
0.03566084788029925,-0.0023949844916544907,
0.03571072319201995,0.01601996122640813,
0.03576059850374065,-0.006480506014846329,
0.03581047381546135,0.0060101274262672755,
0.03586034912718204,0.005176900095520628,
0.035910224438902745,-0.023173924614220916,
0.03596009975062344,-0.01633757459627306,
0.036009975062344136,-0.01000874168857308,
0.03605985037406484,0.009407606074743804,
0.036109725685785535,-0.004482868739111921,
0.03615960099750624,-0.01805644690919206,
0.03620947630922693,0.003376348357821005,
0.03625935162094763,-0.01611312537426266,
0.03630922693266833,-0.017736354583646266,
0.03635910224438903,-0.018134733267789582,
0.03640897755610972,-0.04200696062325185,
0.036458852867830426,0.005167194299232821,
0.03650872817955112,-0.0032564810028342687,
0.036558603491271824,-8.834972528361153e-05,
0.03660847880299252,-0.005112505707114897,
0.036658354114713215,-0.0037311735619878694,
0.03670822942643392,0.0029160152371438142,
0.036758104738154614,0.008492121552425609,
0.03680798004987531,0.009040411272771672,
0.03685785536159601,-0.004978945515511275,
0.03690773067331671,-0.0028272853479612494,
0.0369576059850374,-0.0059081439202017,
0.037007481296758106,0.014261522459918194,
0.0370573566084788,-0.015357837283302641,
0.037107231920199504,0.004239933304844395,
0.0371571072319202,-0.011021084294078318,
0.037206982543640896,-0.003247262651579516,
0.0372568578553616,-0.004428979879381484,
0.037306733167082294,0.0034926869615546103,
0.03735660847880299,-0.0015463259744210147,
0.03740648379052369,-0.0075238172753216166,
0.03745635910224439,-0.0001973378219366996,
0.037506234413965084,-0.0030700463833539995,
0.037556109725685786,-0.006249426915999963,
0.03760598503740648,0.02688096846332321,
0.037655860349127185,0.0004915653287937246,
0.03770573566084788,-0.004189916496912416,
0.037755610972568576,0.0036273131587423444,
0.03780548628428928,-0.00524444837706627,
0.037855361596009975,-0.021430665728511288,
0.03790523690773067,0.006195228685563121,
0.03795511221945137,-0.002245124834310331,
0.03800498753117207,0.0015306460973106585,
0.03805486284289277,0.008013488285226838,
0.03810473815461347,0.011238319508017845,
0.03815461346633416,0.006033217165749896,
0.038204488778054865,0.014410989639891231,
0.03825436408977556,-0.002077884957941785,
0.03830423940149626,0.004325344475765733,
0.03835411471321696,-0.026738843724650088,
0.038403990024937655,0.008030996703381744,
0.03845386533665835,-0.015117327173873056,
0.03850374064837905,-0.0150812342789973,
0.03855361596009975,0.015356952724331806,
0.03860349127182045,-0.0038995649441577428,
0.03865336658354115,0.015768361929391857,
0.03870324189526184,0.012296442175509851,
0.038753117206982546,0.03093124365337229,
0.03880299251870324,0.017585623600608842,
0.03885286783042394,-0.0005755293538186159,
0.03890274314214464,0.013792479729455645,
0.038952618453865336,0.016770116815803093,
0.03900249376558604,-0.01709714420038077,
0.039052369077306734,0.010150722372353767,
0.03910224438902743,0.021143540577448997,
0.03915211970074813,0.01259145294583038,
0.03920199501246883,0.025792223027364197,
0.039251870324189524,0.010253977394962421,
0.039301745635910226,0.013699371121307351,
0.03935162094763092,0.022752483397165853,
0.03940149625935162,0.03881004076013313,
0.03945137157107232,-0.009261600087360752,
0.039501246882793016,0.03127518490088439,
0.03955112219451372,0.008327832599002815,
0.039600997506234414,0.026493150655562934,
0.03965087281795511,0.03405099737058578,
0.03970074812967581,0.011284856310732002,
0.03975062344139651,0.03867248089289615,
0.039800498753117204,0.009626404787404196,
0.03985037406483791,-0.012272813375888276,
0.0399002493765586,0.00561073677075931,
0.039950124688279305,0.008732809741233735,
0.04,0.012916484402371782,
0.0400498753117207,0.013790571904731569,
0.0400997506234414,0.036676868805920304,
0.040149625935162095,-0.0031055884702074054,
0.04019950124688279,0.03485014175892184,
0.04024937655860349,0.005514305713521749,
0.04029925187032419,0.03452992563885944,
0.040349127182044885,0.03937022707558633,
0.04039900249376559,-0.02051996911722121,
0.04044887780548628,0.015926218564679854,
0.040498753117206986,-0.0033457563532997107,
0.04054862842892768,0.008179404187301188,
0.04059850374064838,0.021103859802634718,
0.04064837905236908,0.0026402435551356115,
0.040698254364089775,0.010445674371415192,
0.04074812967581047,0.011575877585462455,
0.040798004987531174,0.00947998129479944,
0.04084788029925187,0.02841239376445867,
0.040897755610972565,0.02520372138834228,
0.04094763092269327,0.027551954039582605,
0.04099750623441396,0.001069834710237999,
0.041047381546134666,-0.005050860530292023,
0.04109725685785536,-0.0010320911381023097,
0.04114713216957606,0.03052803886890497,
0.04119700748129676,0.03551041701169976,
0.041246882793017456,0.023650959728598906,
0.04129675810473815,0.019299183206911923,
0.041346633416458854,0.03733545896038376,
0.04139650872817955,0.018500049904156185,
0.04144638403990025,0.047359586727093006,
0.04149625935162095,-0.0050722984660587465,
0.041546134663341644,0.0018485197140537292,
0.04159600997506235,0.02223361732029653,
0.04164588528678304,0.008052708475240627,
0.04169576059850374,0.0320663766042786,
0.04174563591022444,0.057421510708592874,
0.041795511221945136,-0.0037601827312687026,
0.04184538653366583,0.01779166969650204,
0.041895261845386535,0.014416689532005016,
0.04194513715710723,0.0227256742376354,
0.04199501246882793,0.04041302946428911,
0.04204488778054863,0.021525439918087995,
0.042094763092269324,0.03644036802495481,
0.04214463840399003,0.0167757450320263,
0.04219451371571072,0.02173469778977067,
0.04224438902743142,0.027467784094198575,
0.04229426433915212,-0.0009215829907944888,
0.04234413965087282,0.036833662548720024,
0.04239401496259352,0.02682647019997665,
0.042443890274314215,0.023873059464956475,
0.04249376558603491,0.019186013621520576,
0.042543640897755614,0.03880671115038074,
0.04259351620947631,0.00674566391490888,
0.042643391521197005,0.027374847570259434,
0.04269326683291771,-0.008554146768597132,
0.0427431421446384,0.009212489865007936,
0.0427930174563591,0.012235788311861473,
0.0428428927680798,0.026378418572761943,
0.0428927680798005,0.0007176463185734235,
0.0429426433915212,0.014980184212423676,
0.042992518703241896,0.0011951733574292536,
0.04304239401496259,0.028713949421504244,
0.043092269326683294,-0.008631205547995097,
0.04314214463840399,0.03654050681934727,
0.043192019950124685,0.040954386892557204,
0.04324189526184539,0.033966059299029454,
0.043291770573566084,-0.013166137735401914,
0.043341645885286786,0.005119122172203679,
0.04339152119700748,0.01312011120782417,
0.04344139650872818,0.02491700717618314,
0.04349127182044888,0.02303406464193818,
0.043541147132169576,0.016027665721294257,
0.04359102244389027,0.03166420896387532,
0.043640897755610975,0.017403223867742075,
0.04369077306733167,0.03474532382454175,
0.043740648379052366,0.029090083762833358,
0.04379052369077307,0.007746479388264126,
0.043840399002493764,-0.006201064111471054,
0.04389027431421447,0.06758807776780072,
0.04394014962593516,-0.005214494585566755,
0.04399002493765586,0.01505723592149271,
0.04403990024937656,0.02390006031174388,
0.04408977556109726,0.037779819123982955,
0.04413965087281795,0.03396269799702431,
0.044189526184538655,0.04148870320704302,
0.04423940149625935,0.043445531942597836,
0.04428927680798005,0.0008813377800799584,
0.04433915211970075,0.010994865465117742,
0.044389027431421445,0.025497417849938815,
0.04443890274314215,0.008778199608616727,
0.04448877805486284,0.03393457452005621,
0.04453865336658354,0.023497588589146207,
0.04458852867830424,0.004853649142387,
0.04463840399002494,0.01655249265193771,
0.04468827930174563,0.029834937581319575,
0.044738154613466335,0.021466003543065465,
0.04478802992518703,0.02572888135444725,
0.044837905236907734,0.0027956812942963177,
0.04488778054862843,0.02496729569523897,
0.044937655860349125,0.00501294514567315,
0.04498753117206983,0.028195367126333908,
0.045037406483790524,0.011935975925399963,
0.04508728179551122,0.04380579008232205,
0.04513715710723192,0.04817974513820393,
0.04518703241895262,0.04303351984800703,
0.04523690773067331,0.02140872042394315,
0.045286783042394016,0.03772933446822744,
0.04533665835411471,0.021525136782305266,
0.045386533665835414,0.04078253487680018,
0.04543640897755611,0.025386954743639775,
0.045486284289276806,0.03722357880590689,
0.04553615960099751,0.008663950104907153,
0.045586034912718204,0.03517848079492375,
0.0456359102244389,0.010303244239243087,
0.0456857855361596,0.017825866182321053,
0.0457356608478803,6.327600205682099e-05,
0.045785536159601,0.0027552861139199247,
0.045835411471321696,0.0022099355121137105,
0.04588528678304239,0.00847941624160148,
0.045935162094763095,0.02857584359843629,
0.04598503740648379,0.010761627948363734,
0.046034912718204486,0.016345692135388144,
0.04608478802992519,2.1647526126326172e-05,
0.046134663341645885,0.02370991180471156,
0.04618453865336658,0.020761012984691976,
0.04623441396508728,0.029532487674221314,
0.04628428927680798,0.01695076324821421,
0.04633416458852868,0.007126938059731239,
0.04638403990024938,0.002331874174820805,
0.04643391521197007,0.03559455062272937,
0.046483790523690775,0.026157861744237287,
0.04653366583541147,-0.016104577585770948,
0.04658354114713217,-0.01144244626003863,
0.04663341645885287,0.012633697886605014,
0.046683291770573565,0.030521460496952826,
0.04673316708229427,-0.04865880274737325,
0.04678304239401496,-0.004771813843370672,
0.04683291770573566,-0.0036509894564977895,
0.04688279301745636,-0.002139424903418164,
0.04693266832917706,-0.005100324391534936,
0.04698254364089775,0.018994202372689575,
0.047032418952618456,0.02035405816211719,
0.04708229426433915,0.011319891085194767,
0.04713216957605985,0.020581174660785184,
0.04718204488778055,0.015604451726682414,
0.047231920199501246,0.026574074971244838,
0.04728179551122195,0.029522581422475547,
0.047331670822942644,0.010850614756308278,
0.04738154613466334,-0.022528053476218474,
0.04743142144638404,0.017265700401913504,
0.04748129675810474,0.005248269468634176,
0.047531172069825434,0.0062323452307968576,
0.047581047381546136,-0.00759374289849416,
0.04763092269326683,0.01103942377490712,
0.047680798004987535,0.007108404395140719,
0.04773067331670823,-0.004056719538908644,
0.047780548628428926,0.0009032962405876813,
0.04783042394014963,0.018573049505187844,
0.047880299251870324,0.022548483912498245,
0.04793017456359102,-0.0014450666409022454,
0.04798004987531172,0.010950640827224592,
0.04802992518703242,-0.01943332241960188,
0.048079800498753114,-0.006304797764134652,
0.04812967581047382,0.003134169435972469,
0.04817955112219451,-0.00726399921929527,
0.048229426433915215,-0.02480262176077763,
0.04827930174563591,0.0022212370122884654,
0.048329177057356607,-0.0023910713425050515,
0.04837905236907731,-0.0037489239804906565,
0.048428927680798005,0.013117419314782207,
0.0484788029925187,-0.01351992298789536,
0.0485286783042394,-0.008725534220928522,
0.0485785536159601,-0.00812253391497154,
0.048628428927680795,0.02942950025096905,
0.0486783042394015,0.024483347470059286,
0.04872817955112219,-0.008820512025751596,
0.048778054862842896,-0.011116860011110865,
0.04882793017456359,-0.013800225617201754,
0.04887780548628429,-0.014398569290512558,
0.04892768079800499,0.010647521802254563,
0.048977556109725685,-0.008048306534631062,
0.04902743142144638,0.008589776986242845,
0.049077306733167084,-0.0008878053797263525,
0.04912718204488778,-0.021442339897101207,
0.04917705735660848,0.006262642917943452,
0.04922693266832918,0.00413660329925108,
0.04927680798004987,0.006469556890749481,
0.049326683291770576,0.0033633901208532423,
0.04937655860349127,-0.009353492459755692,
0.04942643391521197,-0.019916286425747377,
0.04947630922693267,-0.011342959246467102,
0.049526184538653366,-0.005963361716010164,
0.04957605985037406,-0.005588646637753122,
0.049625935162094764,-0.011108338810879467,
0.04967581047381546,-0.0012507604661377032,
0.04972568578553616,0.010089280280315074,
0.04977556109725686,0.006913333264667894,
0.049825436408977554,-0.02881168880238419,
0.04987531172069826,0.013987978348642422,
0.04992518703241895,-0.013136413630760718,
0.04997506234413965,0.03210217167201594,
0.05002493765586035,0.0142133785037117,
0.050074812967581046,-0.007360281587267988,
0.05012468827930175,-0.012224345121611413,
0.050174563591022445,-0.016457774776288514,
0.05022443890274314,-0.023175217391742123,
0.05027431421446384,-0.03333312371741223,
0.05032418952618454,0.011979502177855452,
0.050374064837905234,-0.008177886028106424,
0.05042394014962594,-0.00708668360020206,
0.05047381546134663,0.02083028840304462,
0.05052369077306733,-0.01336072946585552,
0.05057356608478803,-0.022227026857104717,
0.05062344139650873,0.01634627794564061,
0.05067331670822943,-0.00775112904774938,
0.050723192019950125,0.0088025072931176,
0.05077306733167082,-0.00990077866617447,
0.050822942643391524,-0.03672682258195786,
0.05087281795511222,-0.010501741838830016,
0.050922693266832915,0.007726350051501402,
0.05097256857855362,-0.029281445828498967,
0.05102244389027431,-0.024093694863107876,
0.051072319201995016,0.0023534356303354723,
0.05112219451371571,-0.0006096784702854206,
0.05117206982543641,-0.009450823962692109,
0.05122194513715711,0.003960463426649026,
0.051271820448877806,-0.013221033107501988,
0.0513216957605985,0.014882543026036936,
0.051371571072319204,5.76461593914928e-05,
0.0514214463840399,-0.019210601276504605,
0.051471321695760595,-0.004767526481232673,
0.0515211970074813,-0.008145272556461598,
0.051571072319201994,-0.002169380650620039,
0.051620947630922696,-0.008452486407182385,
0.05167082294264339,-0.03693561331862642,
0.05172069825436409,-0.02321309925049861,
0.05177057356608479,-0.012229444544142026,
0.051820448877805486,-0.026199385666644624,
0.05187032418952618,-0.004938880079832652,
0.051920199501246884,-0.012073510563280444,
0.05197007481296758,-0.040086554347806544,
0.052019950124688276,-0.024306558691243818,
0.05206982543640898,-0.03305895005214036,
0.052119700748129674,-0.01888516226631054,
0.05216957605985038,-0.04119098494778098,
0.05221945137157107,-0.029663312705230913,
0.05226932668329177,-0.028358761115221544,
0.05231920199501247,-0.00826175787270006,
0.05236907730673317,0.01617282751896958,
0.05241895261845386,-0.011637390069249293,
0.052468827930174565,-0.02630634808323383,
0.05251870324189526,-0.04481538321702987,
0.05256857855361596,-0.026215283946782908,
0.05261845386533666,-0.022212786615797613,
0.052668329177057355,-0.012274426704839551,
0.05271820448877806,-0.03664854068952446,
0.05276807980049875,-0.01214110256872334,
0.05281795511221945,0.006268509093679365,
0.05286783042394015,-0.006851144204375725,
0.05291770573566085,-0.02849339329709462,
0.05296758104738154,-0.02730361357065573,
0.053017456359102245,-0.03917250481860243,
0.05306733167082294,-0.01815339414894374,
0.053117206982543644,-0.022059922913661285,
0.05316708229426434,0.007605000980824318,
0.053216957605985035,-0.002678212246647502,
0.05326683291770574,-0.04424860385570126,
0.053316708229426434,0.015021039333650718,
0.05336658354114713,-0.014377301881096814,
0.05341645885286783,-0.017774946872088068,
0.05346633416458853,-0.004115025650285988,
0.05351620947630923,-0.0205200170088461,
0.053566084788029926,-0.02530354697035063,
0.05361596009975062,-0.01661500279010388,
0.053665835411471324,-0.0016050162646708312,
0.05371571072319202,-0.002724297018993427,
0.053765586034912716,0.0023104492645348793,
0.05381546134663342,0.02347443439538991,
0.053865336658354114,-0.011738096812853318,
0.05391521197007481,-0.012507044082536941,
0.05396508728179551,-0.03746547164653921,
0.05401496259351621,-0.01864361652593372,
0.05406483790523691,-0.018121666255327393,
0.054114713216957606,-0.04190735086479364,
0.0541645885286783,-0.019138567806927208,
0.054214463840399005,-0.026409406918852386,
0.0542643391521197,-0.018718260699868993,
0.054314214463840396,-0.04793918881097378,
0.0543640897755611,-0.004885515817006915,
0.054413965087281795,0.010960449495253828,
0.0544638403990025,-0.003987483329815043,
0.05451371571072319,-0.0028681880421587685,
0.05456359102244389,-0.008849342794151772,
0.05461346633416459,0.02415535389043829,
0.05466334164588529,-0.035460628543198876,
0.05471321695760598,-0.022381790324703,
0.054763092269326685,-0.03047825109313044,
0.05481296758104738,0.0010629561877728965,
0.05486284289276808,-0.036046984693180344,
0.05491271820448878,0.017159757457348462,
0.054962593516209475,-0.03250426407300866,
0.05501246882793018,-0.026877667015316763,
0.05506234413965087,-0.012317476485586672,
0.05511221945137157,-0.014718905388222538,
0.05516209476309227,-0.012816729268142894,
0.05521197007481297,-0.03645884278665794,
0.05526184538653366,0.00796938742669201,
0.055311720698254366,-0.012768249666011054,
0.05536159600997506,0.034449535263510696,
0.05541147132169576,-0.018388244178135664,
0.05546134663341646,-0.023908934658108373,
0.055511221945137156,0.013398646226515362,
0.05556109725685786,-0.011588483473677373,
0.055610972568578554,-0.024407532088208925,
0.05566084788029925,-0.023705142639248576,
0.05571072319201995,0.0029671432684575654,
0.05576059850374065,-0.010965863306250693,
0.055810473815461344,3.7435310667117624e-05,
0.055860349127182046,0.0011226536571434954,
0.05591022443890274,0.01328641510594692,
0.055960099750623445,0.0006633077671016237,
0.05600997506234414,0.018189390463363153,
0.056059850374064836,-0.01281896105044602,
0.05610972568578554,-0.010704919110592011,
0.056159600997506234,-0.03819638709318447,
0.05620947630922693,0.011844867173965531,
0.05625935162094763,0.009055492926722525,
0.05630922693266833,0.0034945598452194694,
0.056359102244389024,0.013059668574510488,
0.05640897755610973,-0.007310173048926585,
0.05645885286783042,0.014555351316155686,
0.056508728179551125,0.0008296028651258542,
0.05655860349127182,-0.0040921169385398255,
0.056608478802992516,-0.02010665947132141,
0.05665835411471322,0.01464134964140413,
0.056708229426433915,-0.005382192808814606,
0.05675810473815461,-0.014279426760669674,
0.05680798004987531,0.010622307446817152,
0.05685785536159601,0.0018536725957197806,
0.05690773067331671,0.0361089302197225,
0.05695760598503741,0.014046939484188491,
0.0570074812967581,-0.013138574739132412,
0.057057356608478806,0.002194169495494408,
0.0571072319201995,-0.018869356893062225,
0.0571571072319202,-0.01075689007004655,
0.0572069825436409,-0.014344561016246444,
0.057256857855361595,-0.0231120101337737,
0.05730673316708229,-0.024591229978927875,
0.057356608478802994,-0.008682181456340058,
0.05740648379052369,-0.019630662443430494,
0.05745635910224439,-1.6827339740726756e-05,
0.05750623441396509,-0.005409493879792535,
0.05755610972568578,0.002626024989546323,
0.057605985037406486,-0.005099966644003164,
0.05765586034912718,0.02985683987343211,
0.05770573566084788,0.016928274732679858,
0.05775561097256858,0.00886792843855897,
0.057805486284289276,0.022744348765280833,
0.05785536159600998,0.0007614156276651591,
0.057905236907730674,-0.007308784644849251,
0.05795511221945137,0.028852647135892407,
0.05800498753117207,0.029541411495372167,
0.05805486284289277,0.004596695628405201,
0.058104738154613464,-4.044158406790472e-05,
0.05815461346633417,-0.020315955176926095,
0.05820448877805486,0.015384089978920115,
0.05825436408977556,-0.004420400816197027,
0.05830423940149626,-0.0008078468794918423,
0.058354114713216956,0.009073372662769452,
0.05840399002493766,-0.009576087953673644,
0.058453865336658355,0.024392582687211666,
0.05850374064837905,0.003633348205977245,
0.05855361596009975,0.03068255394385322,
0.05860349127182045,-0.007127893303971938,
0.058653366583541144,-0.0013927643383132762,
0.05870324189526185,0.0077212786899826125,
0.05875311720698254,0.03193524998767221,
0.05880299251870324,0.01526883053402769,
0.05885286783042394,-0.02003311588697957,
0.05890274314214464,0.015073711994032861,
0.05895261845386534,0.014929341145070558,
0.059002493765586035,0.018910360058007936,
0.05905236907730673,0.0027519237812359152,
0.059102244389027433,0.010181006874466174,
0.05915211970074813,0.029839157965682483,
0.059201995012468825,0.02282500031065978,
0.05925187032418953,0.00419110535965834,
0.05930174563591022,-0.010676024521223935,
0.059351620947630926,0.026305727864703247,
0.05940149625935162,0.008553515624739504,
0.05945137157107232,0.0074180582540832275,
0.05950124688279302,-0.017430370895077103,
0.059551122194513716,0.0029226941543147797,
0.05960099750623441,0.015019630962064759,
0.059650872817955114,0.023107703939478884,
0.05970074812967581,-0.012874970128884895,
0.059750623441396505,0.00040807450357155904,
0.05980049875311721,0.0030308838506455937,
0.059850374064837904,-0.0009860795219089197,
0.059900249376558606,0.026815592078974083,
0.0599501246882793,0.03653302498904211,
0.06,0.04334417607061291,
0.0600498753117207,0.016685832255423857,
0.060099750623441396,0.008217916882578231,
0.06014962593516209,0.019718505308998078,
0.060199501246882794,0.03967326231673454,
0.06024937655860349,0.0024370269055927485,
0.06029925187032419,0.013389701829054378,
0.06034912718204489,0.016537852983596075,
0.060399002493765584,0.03254608319153115,
0.06044887780548629,0.02428613416849729,
0.06049875311720698,0.014726890503689645,
0.06054862842892768,0.052667957746688615,
0.06059850374064838,0.018933342299578028,
0.06064837905236908,0.02655094536148858,
0.06069825436408977,0.01579905103177742,
0.060748129675810475,0.02336639959112123,
0.06079800498753117,0.053421648424973385,
0.06084788029925187,0.028964841915031916,
0.06089775561097257,0.013713663316925171,
0.060947630922693265,0.013108527247501202,
0.06099750623441397,0.01301157525103715,
0.06104738154613466,0.01193743741371099,
0.06109725685785536,0.024632519862579944,
0.06114713216957606,0.027278953081409128,
0.06119700748129676,0.0030881214914281405,
0.06124688279301746,0.037268712201424956,
0.061296758104738155,0.035657516645643234,
0.06134663341645885,0.0007922056465371301,
0.061396508728179554,0.057967736793411544,
0.06144638403990025,0.011607177655428175,
0.061496259351620945,0.01421113316959664,
0.06154613466334165,0.044579788636260796,
0.061596009975062344,0.02056187457293861,
0.06164588528678304,0.03344080350518135,
0.06169576059850374,0.02904019800155546,
0.06174563591022444,0.01009277299124251,
0.06179551122194514,0.0225988099657366,
0.061845386533665836,-0.005084105743706456,
0.06189526184538653,0.03543050017115725,
0.061945137157107234,0.03532190987608534,
0.06199501246882793,0.054418683817876935,
0.062044887780548626,0.01634073303248999,
0.06209476309226933,0.004876663625307781,
0.062144638403990024,0.035806729853981346,
0.06219451371571072,0.015997793740598693,
0.06224438902743142,0.025968536869050027,
0.06229426433915212,0.030141407177878995,
0.06234413965087282,0.009633452792483094,
0.062394014962593516,0.014692434036094408,
0.06244389027431421,0.0005341914103582888,
0.062493765586034915,0.043327964771035746,
0.06254364089775562,0.0054300180512446665,
0.06259351620947631,0.030810894845583994,
0.06264339152119701,0.030675484151121993,
0.0626932668329177,0.01710934859088966,
0.0627431421446384,0.025827690797939958,
0.0627930174563591,0.019777766558679112,
0.0628428927680798,0.02468673826694489,
0.0628927680798005,0.03171103434971364,
0.0629426433915212,0.01898948268927498,
0.06299251870324189,0.04164281931442083,
0.06304239401496259,0.014849187909766345,
0.0630922693266833,0.0035887010776955164,
0.063142144638404,0.050530832296456545,
0.06319201995012469,0.015601751294238431,
0.06324189526184539,-0.011386415908759159,
0.06329177057356608,0.013806605764798016,
0.06334164588528678,0.02869212800919525,
0.06339152119700749,0.03841548556392667,
0.06344139650872818,-0.00035557294873216766,
0.06349127182044888,0.013778741653698528,
0.06354114713216957,0.04070658568838261,
0.06359102244389027,0.01289397135406192,
0.06364089775561098,0.040464174249909585,
0.06369077306733167,0.017659104234929127,
0.06374064837905237,0.026229584275166154,
0.06379052369077307,0.011012919077122098,
0.06384039900249376,0.04230720256740211,
0.06389027431421446,0.025881662792930044,
0.06394014962593517,0.03990729347435406,
0.06399002493765586,0.02601361362574652,
0.06403990024937656,0.012825117617952063,
0.06408977556109725,0.028573736249971775,
0.06413965087281795,0.029158126354795453,
0.06418952618453866,0.04839958186390201,
0.06423940149625935,0.014873448445524223,
0.06428927680798005,0.009940109103768677,
0.06433915211970075,0.038113157566385746,
0.06438902743142144,0.022448840980396803,
0.06443890274314215,0.030455415534313048,
0.06448877805486285,0.025043827421617395,
0.06453865336658354,0.025965337992792242,
0.06458852867830424,0.029672376952021573,
0.06463840399002493,0.037018620649266344,
0.06468827930174563,0.009273993819928127,
0.06473815461346634,0.025848490018826477,
0.06478802992518704,0.035217748905782734,
0.06483790523690773,0.03474235794179149,
0.06488778054862843,0.01623477287418198,
0.06493765586034912,0.015816035360085672,
0.06498753117206983,0.044363101240565694,
0.06503740648379053,0.028112847023474424,
0.06508728179551122,0.0033547828048790702,
0.06513715710723192,0.023361881011589015,
0.06518703241895261,0.02857956328061634,
0.06523690773067331,0.017264074775178627,
0.06528678304239402,0.00725507820293312,
0.06533665835411472,0.03253974650584458,
0.06538653366583541,0.025751420630523717,
0.06543640897755611,0.009497784547517544,
0.0654862842892768,0.03383367943323599,
0.06553615960099751,0.019122734939039616,
0.06558603491271821,0.021791083852783343,
0.0656359102244389,0.02947383784560366,
0.0656857855361596,0.0028645859823832227,
0.0657356608478803,0.010132355051725644,
0.06578553615960099,0.017416250640981054,
0.0658354114713217,0.025036923130288505,
0.0658852867830424,0.010998904366318327,
0.06593516209476309,0.019926367420839426,
0.06598503740648379,0.021723993842498426,
0.06603491271820448,0.013922682641321281,
0.06608478802992519,0.028253180702548106,
0.06613466334164589,0.007567282866868346,
0.06618453865336658,0.013202066462742426,
0.06623441396508728,0.014771163779510729,
0.06628428927680798,0.02124634290010246,
0.06633416458852869,0.022047200659873492,
0.06638403990024938,0.02582207174688454,
0.06643391521197008,0.015013089701775327,
0.06648379052369077,0.01277948765022048,
0.06653366583541147,0.0013674803219362215,
0.06658354114713216,0.005378678220553178,
0.06663341645885287,0.026418392017342765,
0.06668329177057357,0.028502417716437425,
0.06673316708229426,-0.029075536287261908,
0.06678304239401496,0.014570727335856883,
0.06683291770573566,0.00841506097194026,
0.06688279301745637,0.03539609612265396,
0.06693266832917706,0.012319211531244207,
0.06698254364089776,0.010823078049065259,
0.06703241895261845,0.03373988923724128,
0.06708229426433915,-0.0005024486094262776,
0.06713216957605984,0.006304592588668291,
0.06718204488778055,0.02329568106143149,
0.06723192019950125,0.0014537332529088315,
0.06728179551122195,0.02247731718243795,
0.06733167082294264,0.015057681516156884,
0.06738154613466334,0.004131382713578601,
0.06743142144638405,0.013795700611615072,
0.06748129675810474,0.01212796734310348,
0.06753117206982544,0.0425368081372159,
0.06758104738154613,-0.014657958691011535,
0.06763092269326683,0.010540368247764968,
0.06768079800498752,0.02920443192652566,
0.06773067331670823,-0.010592608283072562,
0.06778054862842893,0.02716542153908105,
0.06783042394014963,0.00859431379705839,
0.06788029925187032,-0.017837431821701707,
0.06793017456359102,0.020083967654431826,
0.06798004987531173,0.005742410781136755,
0.06802992518703242,0.02428727053744107,
0.06807980049875312,0.007578768785759495,
0.06812967581047381,0.004795509187839227,
0.06817955112219451,0.018795631172251644,
0.0682294264339152,-0.002355173229527766,
0.06827930174563591,0.027702731089597185,
0.06832917705735661,0.023750773645380394,
0.0683790523690773,0.010792176771670738,
0.068428927680798,-0.010553115068016726,
0.0684788029925187,-0.0046710164908201944,
0.06852867830423941,-0.03266648067788892,
0.0685785536159601,-0.008846669311157055,
0.0686284289276808,0.002407583182816748,
0.0686783042394015,0.019272525385033164,
0.06872817955112219,-0.0024816493429331986,
0.0687780548628429,-0.007002601473605877,
0.0688279301745636,0.014982110045607075,
0.06887780548628429,-0.0034539971646825414,
0.06892768079800499,0.0014651171039279877,
0.06897755610972568,0.030777190505437552,
0.06902743142144638,-0.0060120037304792874,
0.06907730673316709,-0.018646450586191937,
0.06912718204488778,0.013817478727028057,
0.06917705735660848,0.0023775843043723315,
0.06922693266832917,-0.011083033647486591,
0.06927680798004987,-0.033546756401736155,
0.06932668329177058,0.0012234193748500697,
0.06937655860349128,-0.0149080793421175,
0.06942643391521197,-0.013306914008025656,
0.06947630922693267,-0.012614284262521754,
0.06952618453865336,-0.020505564258003726,
0.06957605985037406,0.027491055215450318,
0.06962593516209477,-0.0005826807404879127,
0.06967581047381546,-0.008109753776481446,
0.06972568578553616,0.014681099887594928,
0.06977556109725686,-0.01153354882894228,
0.06982543640897755,0.007025707019979644,
0.06987531172069826,-0.00879391460856168,
0.06992518703241896,-0.034060869151087574,
0.06997506234413965,0.009758020464942964,
0.07002493765586035,-0.008094080950658108,
0.07007481296758104,-0.016677599543811553,
0.07012468827930174,0.0007764509611946418,
0.07017456359102245,-0.017368661593139698,
0.07022443890274314,-0.025430483440967593,
0.07027431421446384,-0.02122635728932512,
0.07032418952618454,-0.013580948757534796,
0.07037406483790523,-0.007767739377240024,
0.07042394014962594,-0.015148784759468955,
0.07047381546134664,-0.03466125117415089,
0.07052369077306733,-0.020384997048378033,
0.07057356608478803,-0.0016272450116789324,
0.07062344139650872,-0.0018583182435154902,
0.07067331670822943,-0.016234375183876527,
0.07072319201995013,0.0007708837060351609,
0.07077306733167082,0.0010154303324585983,
0.07082294264339152,0.011823894805195388,
0.07087281795511222,0.00039443906003932584,
0.07092269326683291,-0.014701664556681569,
0.07097256857855362,-0.011871722102588616,
0.07102244389027432,0.007400663404231435,
0.07107231920199501,0.002400939670252832,
0.07112219451371571,-0.009328413931077337,
0.0711720698254364,-0.027122129851273817,
0.07122194513715711,-0.013427522351959468,
0.07127182044887781,-0.009983312016024806,
0.0713216957605985,-0.025088205834475925,
0.0713715710723192,0.01651388401171526,
0.0714214463840399,-0.03616061957833514,
0.07147132169576059,0.0069120295274101955,
0.0715211970074813,-0.015939431316038477,
0.071571072319202,0.01524735128846514,
0.0716209476309227,-0.01634034651406825,
0.07167082294264339,-0.024720893247742647,
0.07172069825436408,-0.039172746985881135,
0.0717705735660848,-0.03733155759095358,
0.07182044887780549,-0.0439381797429242,
0.07187032418952619,-0.013777984443880925,
0.07192019950124688,-0.007131783863444136,
0.07197007481296758,-0.0164173979759724,
0.07201995012468827,0.001211702744052653,
0.07206982543640898,-0.01907163098478091,
0.07211970074812968,-0.016350969453599852,
0.07216957605985037,-0.011884962002984202,
0.07221945137157107,-0.03412915643904738,
0.07226932668329177,-0.0025611282084294293,
0.07231920199501247,-0.006428522560258777,
0.07236907730673317,-0.022319446198556116,
0.07241895261845387,-0.021165015736729187,
0.07246882793017456,-0.03341247641090542,
0.07251870324189526,0.019860115045600375,
0.07256857855361595,0.0009336462786460973,
0.07261845386533666,-0.035898634029437174,
0.07266832917705736,-0.016810908209803632,
0.07271820448877805,-0.02041656449423025,
0.07276807980049875,-0.018665005455270146,
0.07281795511221945,-0.0023728348988990774,
0.07286783042394016,0.004965737928891753,
0.07291770573566085,-0.015848723212166568,
0.07296758104738155,-0.027833758180700267,
0.07301745635910224,-0.04334597888256536,
0.07306733167082294,-0.02093852781221176,
0.07311720698254365,-0.021799743568763998,
0.07316708229426434,0.020203735314082677,
0.07321695760598504,-0.0021303106848459263,
0.07326683291770573,-0.02943253513292346,
0.07331670822942643,-0.02674487307042954,
0.07336658354114713,-0.015754380681244084,
0.07341645885286784,-0.010291289227028402,
0.07346633416458853,-0.01715892507108494,
0.07351620947630923,0.010561835190239871,
0.07356608478802992,0.0026217675444519944,
0.07361596009975062,-0.018980073283501334,
0.07366583541147133,-0.0049637320639813985,
0.07371571072319202,-0.029794286844808934,
0.07376558603491272,-0.005974657737729061,
0.07381546134663342,-0.009972233170481619,
0.07386533665835411,-0.024886511472414434,
0.0739152119700748,-0.02453883418899934,
0.07396508728179552,-0.010098082925780535,
0.07401496259351621,-0.018181537127020184,
0.07406483790523691,-0.02915219298502885,
0.0741147132169576,-0.015968853803471163,
0.0741645885286783,-0.0056046915840858875,
0.07421446384039901,-0.03685719349767912,
0.0742643391521197,-0.024024595611507795,
0.0743142144638404,-0.05629451135200718,
0.0743640897755611,-0.01331096834397234,
0.07441396508728179,0.011688461782472246,
0.07446384039900249,-0.03904875196271292,
0.0745137157107232,-0.0007641127117578653,
0.07456359102244389,0.008041786327888517,
0.07461346633416459,-0.00813280507543589,
0.07466334164588528,-0.02561082298435495,
0.07471321695760598,-0.018912524074311404,
0.07476309226932669,-0.029065315215120416,
0.07481296758104738,-0.0041018807807170245,
0.07486284289276808,0.011026073066544597,
0.07491271820448878,-0.0017195926243201987,
0.07496259351620947,-0.029703503034328897,
0.07501246882793017,0.0023702610872322633,
0.07506234413965088,0.014210281162788645,
0.07511221945137157,-0.017341252152880158,
0.07516209476309227,-0.014586747912531693,
0.07521197007481296,-0.005717732540868616,
0.07526184538653366,-0.059418961043459076,
0.07531172069825437,-0.022461180208604093,
0.07536159600997507,0.012836304528503846,
0.07541147132169576,-0.0009783702466931669,
0.07546134663341646,-0.003769650541776994,
0.07551122194513715,0.021084069281758797,
0.07556109725685786,-0.008047859352485013,
0.07561097256857856,0.0005815538128265321,
0.07566084788029925,-0.016573878818254523,
0.07571072319201995,-0.02851398670162211,
0.07576059850374064,-0.0057540454737528175,
0.07581047381546134,-0.0020880208116847414,
0.07586034912718205,0.015708481150711894,
0.07591022443890275,-0.017655491553062116,
0.07596009975062344,-0.017306272599378343,
0.07600997506234414,-0.04019653036213325,
0.07605985037406483,0.010395543525228212,
0.07610972568578554,-0.0102340133534355,
0.07615960099750624,0.0013446483741549964,
0.07620947630922693,0.014008838410809485,
0.07625935162094763,-0.017450432057512233,
0.07630922693266833,-0.0032291271408439737,
0.07635910224438902,-0.024361657383797513,
0.07640897755610973,0.01231774178871712,
0.07645885286783043,-0.009062613597398489,
0.07650872817955112,-0.011294424063938692,
0.07655860349127182,-0.007222551968358219,
0.07660847880299251,-0.008577614231966691,
0.07665835411471322,0.026830678481831474,
0.07670822942643392,0.002016091960562361,
0.07675810473815461,0.0007841045773402354,
0.07680798004987531,0.010978104476991345,
0.076857855361596,-0.00016444766825665777,
0.0769077306733167,0.0034702270599872055,
0.07695760598503741,0.04220885784688248,
0.0770074812967581,0.0033557659302064172,
0.0770573566084788,-0.002115335013454498,
0.0771072319201995,-0.00431812623204442,
0.0771571072319202,-0.016819955877069914,
0.0772069825436409,0.00890595321363281,
0.0772568578553616,-0.008649661104751724,
0.0773067331670823,0.010604561835505769,
0.07735660847880299,-0.019490693217126473,
0.07740648379052369,-0.025928974787290372,
0.0774563591022444,0.011957849624183975,
0.07750623441396509,-0.020131211905584707,
0.07755610972568579,0.008019891286136565,
0.07760598503740648,0.018303091649939558,
0.07765586034912718,-0.020328142370371442,
0.07770573566084787,0.018075053191127073,
0.07775561097256858,0.006512464054261544,
0.07780548628428928,0.012838011111096463,
0.07785536159600998,-0.009927202306208506,
0.07790523690773067,0.008984611743009423,
0.07795511221945137,-0.007558411279834154,
0.07800498753117208,-0.013315659709758218,
0.07805486284289277,0.015469181577599769,
0.07810473815461347,0.021860233106123603,
0.07815461346633416,0.024285169427983866,
0.07820448877805486,-0.007293445830671591,
0.07825436408977555,0.01721144326396158,
0.07830423940149626,0.0024986812231193043,
0.07835411471321696,0.006769245218776252,
0.07840399002493766,0.044856120421693596,
0.07845386533665835,6.929491774040116e-05,
0.07850374064837905,0.01996699334733318,
0.07855361596009976,0.01611382103294825,
0.07860349127182045,-0.015010685554306203,
0.07865336658354115,0.009221500084764779,
0.07870324189526184,0.0053095031308107235,
0.07875311720698254,-0.0017037995084185145,
0.07880299251870324,0.03007499191438334,
0.07885286783042394,0.024274740226114505,
0.07890274314214464,-0.003393133481026208,
0.07895261845386534,0.008613676639479702,
0.07900249376558603,0.020616957653061846,
0.07905236907730673,-0.003947215790944647,
0.07910224438902744,0.01798913277005271,
0.07915211970074813,0.015345047999062672,
0.07920199501246883,0.004255891520086477,
0.07925187032418952,0.006900745858078369,
0.07930174563591022,0.011224283824182568,
0.07935162094763092,0.015731357796189886,
0.07940149625935163,0.012500483635843843,
0.07945137157107232,0.0070559934798395734,
0.07950124688279302,-0.0010022354406223916,
0.07955112219451371,0.011728292022685766,
0.07960099750623441,-0.001760336395303444,
0.07965087281795512,0.0035313612960104785,
0.07970074812967581,0.053691361723616764,
0.07975062344139651,0.030044323908822793,
0.0798004987531172,0.03192115950374572,
0.0798503740648379,-0.008165845247620922,
0.07990024937655861,0.004810409015314286,
0.0799501246882793,-0.003363368685240318,
0.08,-0.01691453044470522,
0.0800498753117207,0.03538734424669427,
0.0800997506234414,0.0010288643064320993,
0.08014962593516209,0.0037692836141396523,
0.0801995012468828,0.025657891464600662,
0.0802493765586035,0.014701455226207073,
0.08029925187032419,0.020085065257797092,
0.08034912718204489,0.012027017584818625,
0.08039900249376558,0.020294148322608934,
0.08044887780548629,-0.00044415807768228774,
0.08049875311720699,0.02558978173534441,
0.08054862842892768,0.026942920885957015,
0.08059850374064838,0.025744125047834895,
0.08064837905236907,0.026117184697293867,
0.08069825436408977,0.024658989008028855,
0.08074812967581048,0.01974936282557839,
0.08079800498753117,0.007240548717417649,
0.08084788029925187,0.041648934797713144,
0.08089775561097257,0.03680533448833195,
0.08094763092269326,0.016436399595920394,
0.08099750623441397,0.04998382885768639,
0.08104738154613467,0.0392740338049233,
0.08109725685785536,0.011807917710851079,
0.08114713216957606,0.02955449913611363,
0.08119700748129675,0.01458616547597471,
0.08124688279301745,0.030120576615513282,
0.08129675810473816,0.006069079524990549,
0.08134663341645886,0.027200627609867148,
0.08139650872817955,0.030003568924866504,
0.08144638403990025,0.009724063626378595,
0.08149625935162094,0.05907971093732133,
0.08154613466334165,0.027700031032593532,
0.08159600997506235,0.06346881494586018,
0.08164588528678304,0.02023973512132398,
0.08169576059850374,0.04641950861154663,
0.08174563591022443,0.004463082759330449,
0.08179551122194513,0.009466624388856242,
0.08184538653366584,0.018120715659961706,
0.08189526184538654,0.006771879864569123,
0.08194513715710723,0.023052080522173522,
0.08199501246882793,0.010529482264273686,
0.08204488778054862,0.035571545866433206,
0.08209476309226933,0.0443759080942599,
0.08214463840399003,0.022438379415557402,
0.08219451371571072,0.024607385073833518,
0.08224438902743142,0.03875481527626001,
0.08229426433915212,0.006687715424169172,
0.08234413965087282,0.014350303161224258,
0.08239401496259352,0.020375129315147844,
0.08244389027431422,0.041889003046639714,
0.08249376558603491,0.01274282116970194,
0.08254364089775561,0.011051526028768832,
0.0825935162094763,0.0371716553441787,
0.08264339152119701,0.05628645297778857,
0.08269326683291771,0.03999345299773255,
0.0827431421446384,0.05291993371339705,
0.0827930174563591,0.005849743421336474,
0.0828428927680798,0.04959325735222865,
0.0828927680798005,0.025072706787552423,
0.0829426433915212,0.034225564042613295,
0.0829925187032419,0.03455217496650129,
0.08304239401496259,0.016497768199500835,
0.08309226932668329,0.028134796877621968,
0.08314214463840398,0.03215154899308555,
0.0831920199501247,-0.0030128837665509903,
0.08324189526184539,0.016110166538624605,
0.08329177057356608,0.03682177161436471,
0.08334164588528678,0.03131144555357925,
0.08339152119700748,0.035884763321178986,
0.08344139650872819,0.011016303063081087,
0.08349127182044888,0.00023730683459889657,
0.08354114713216958,0.0284695267899204,
0.08359102244389027,0.040209383823708145,
0.08364089775561097,0.034324765625374766,
0.08369077306733166,0.005882128264266307,
0.08374064837905237,0.021499511771081954,
0.08379052369077307,-0.0022065316631081945,
0.08384039900249377,0.0077525282466734645,
0.08389027431421446,0.01506960721548612,
0.08394014962593516,0.02975173417625936,
0.08399002493765587,0.027701270957303202,
0.08403990024937656,0.021744245962410237,
0.08408977556109726,0.016393834682836436,
0.08413965087281795,0.02544779677315371,
0.08418952618453865,0.03901734003156636,
0.08423940149625936,0.014756229533906413,
0.08428927680798005,0.04376478558415697,
0.08433915211970075,-0.0017054707125493708,
0.08438902743142145,0.03630205354920962,
0.08443890274314214,0.0467073806378402,
0.08448877805486284,0.03518836980149439,
0.08453865336658355,0.01678492580924356,
0.08458852867830424,0.021732297968994712,
0.08463840399002494,0.030876884343180866,
0.08468827930174563,0.012705688636851717,
0.08473815461346633,0.0268565640368942,
0.08478802992518704,0.014244714887389045,
0.08483790523690773,0.036809744256133335,
0.08488778054862843,0.014486324084526133,
0.08493765586034913,0.008624027073324596,
0.08498753117206982,0.022729080390225566,
0.08503740648379052,0.044610554104570974,
0.08508728179551123,-0.011972934122796715,
0.08513715710723192,0.009981920548139856,
0.08518703241895262,0.07092407064687511,
0.08523690773067331,0.028496478044982593,
0.08528678304239401,0.007232823313505167,
0.08533665835411472,0.034082559514602366,
0.08538653366583542,0.03162300633142003,
0.08543640897755611,0.014468848625695477,
0.0854862842892768,0.049461794941779866,
0.0855361596009975,0.015493403753973527,
0.0855860349127182,0.03762089085496957,
0.08563591022443891,0.04512513510042937,
0.0856857855361596,-0.0007513299093745845,
0.0857356608478803,-0.0035390462783905646,
0.085785536159601,0.0023371559800791364,
0.08583541147132169,0.02123612884635253,
0.0858852867830424,0.037514678506239324,
0.0859351620947631,0.007769581710594933,
0.08598503740648379,0.05230299285514729,
0.08603491271820449,0.046027915843662906,
0.08608478802992518,0.0055773319141861465,
0.08613466334164588,0.03493556317134934,
0.08618453865336659,0.0413576341996053,
0.08623441396508728,0.013765881149380151,
0.08628428927680798,-0.0068061535284236405,
0.08633416458852868,0.0009203806607415849,
0.08638403990024937,0.0009022951483705945,
0.08643391521197008,0.0041912362135484525,
0.08648379052369078,0.04463983691852162,
0.08653366583541147,0.03627197460502743,
0.08658354114713217,0.030141196443301394,
0.08663341645885286,0.0057836630219988295,
0.08668329177057357,0.03550439770086268,
0.08673316708229427,0.00433957103800074,
0.08678304239401496,0.024065610366633697,
0.08683291770573566,-0.01139574584681255,
0.08688279301745636,0.024064351209266237,
0.08693266832917705,0.022186990538964432,
0.08698254364089776,0.010028137785122931,
0.08703241895261846,0.040798618445605145,
0.08708229426433915,0.007643832366281486,
0.08713216957605985,0.028133119953761866,
0.08718204488778054,0.008184604439096826,
0.08723192019950125,0.008825327113134617,
0.08728179551122195,0.0127498933826102,
0.08733167082294264,0.0006077736548112164,
0.08738154613466334,-0.003739087429438896,
0.08743142144638404,-0.0051136490943465215,
0.08748129675810473,-0.011730319462447625,
0.08753117206982544,0.02657235262635345,
0.08758104738154614,-0.000925490827240345,
0.08763092269326683,-0.008003579874774819,
0.08768079800498753,-0.011982572824102124,
0.08773067331670822,0.014809780633863887,
0.08778054862842893,-0.020953386486704275,
0.08783042394014963,0.0007418286761140692,
0.08788029925187033,-0.0062822459295861065,
0.08793017456359102,-0.01128390678926828,
0.08798004987531172,0.014939340126142083,
0.08802992518703241,-0.006926827881415303,
0.08807980049875312,-0.006506129737910158,
0.08812967581047382,-0.010446333555107865,
0.08817955112219451,-0.028101275728787914,
0.08822942643391521,0.01366615449054696,
0.0882793017456359,-0.010202671046806444,
0.08832917705735661,-0.012102434531785247,
0.08837905236907731,0.015083748167545204,
0.088428927680798,0.0081290129062865,
0.0884788029925187,-0.007463232749463116,
0.0885286783042394,-0.009856582489561823,
0.0885785536159601,0.00839089341380955,
0.0886284289276808,-0.017932294623383735,
0.0886783042394015,-0.0043857098222075,
0.0887281795511222,-0.002507591230653504,
0.08877805486284289,0.020645061432339597,
0.08882793017456359,0.011289959531719925,
0.0888778054862843,-0.008191979439536541,
0.08892768079800499,-0.02325800355514812,
0.08897755610972569,-0.00207228274471679,
0.08902743142144638,-0.024291460500535638,
0.08907730673316708,-0.0016731128373363457,
0.08912718204488779,-0.006788326215244934,
0.08917705735660848,0.00916331929390588,
0.08922693266832918,0.006437770214452645,
0.08927680798004987,-0.02187311237675466,
0.08932668329177057,0.011450122304328379,
0.08937655860349127,-0.0028120538868285734,
0.08942643391521198,0.025192377172467945,
0.08947630922693267,-0.022217980574400047,
0.08952618453865337,0.0050489344414739136,
0.08957605985037406,0.009914319554720268,
0.08962593516209476,0.004937242710588564,
0.08967581047381547,0.021566900598956266,
0.08972568578553616,0.01854523564443998,
0.08977556109725686,-0.0010334540357995626,
0.08982543640897755,0.001514116631431325,
0.08987531172069825,0.012703108617361458,
0.08992518703241895,0.01468784728851779,
0.08997506234413966,-0.01767873297553995,
0.09002493765586035,-0.028252265871707274,
0.09007481296758105,-0.03853994554596012,
0.09012468827930174,-0.009028135408237974,
0.09017456359102244,-0.01906859290300688,
0.09022443890274315,-0.014949300012953987,
0.09027431421446384,0.019579934330059733,
0.09032418952618454,-0.0038452206684924267,
0.09037406483790524,-0.020634610973683354,
0.09042394014962593,-0.009635279483138904,
0.09047381546134663,-0.006990188566344475,
0.09052369077306734,-0.030507974826485353,
0.09057356608478803,-0.0003405652364152807,
0.09062344139650873,-0.008040850410885524,
0.09067331670822942,-0.02106700922809052,
0.09072319201995012,-0.01155284679679451,
0.09077306733167083,-0.01706105081807049,
0.09082294264339152,0.009207904435410053,
0.09087281795511222,-0.001662296346720396,
0.09092269326683292,0.018276953861714643,
0.09097256857855361,-0.002236768816405401,
0.09102244389027432,-0.02500551844828316,
0.09107231920199502,-0.025101601310968134,
0.09112219451371571,-0.0010041623517198454,
0.09117206982543641,-0.02839986998013303,
0.0912219451371571,-0.03925512578000906,
0.0912718204488778,-0.027803189103525895,
0.09132169576059851,-0.004707162037857759,
0.0913715710723192,-0.017451024914010467,
0.0914214463840399,-0.007742937423860819,
0.0914713216957606,-0.04556188464530814,
0.09152119700748129,-0.011455409948263235,
0.091571072319202,-0.01767634525865181,
0.0916209476309227,0.001986529952570957,
0.09167082294264339,-0.015357321361046596,
0.09172069825436409,0.006833561777524989,
0.09177057356608478,-0.015738242420050244,
0.09182044887780548,-0.02015510669436424,
0.09187032418952619,0.0015517819038634428,
0.09192019950124689,-0.02782295394752429,
0.09197007481296758,-0.00959878769322565,
0.09201995012468828,-0.0030044506267131853,
0.09206982543640897,-0.009256850634278363,
0.09211970074812968,-0.00047483247156794584,
0.09216957605985038,0.0017999491975819373,
0.09221945137157107,-0.03237856824663604,
0.09226932668329177,-0.02388868262418136,
0.09231920199501246,-0.024227586622961664,
0.09236907730673316,-0.003049302858410095,
0.09241895261845387,-0.0283481648927995,
0.09246882793017457,-0.028172585933560344,
0.09251870324189526,0.012622064969877994,
0.09256857855361596,-0.016800311376972705,
0.09261845386533665,0.006594986036719069,
0.09266832917705736,-0.0115081792719068,
0.09271820448877806,-0.01233904183943602,
0.09276807980049875,-0.0036733293619132176,
0.09281795511221945,-0.01863607806494728,
0.09286783042394015,0.021842562367993833,
0.09291770573566084,-0.014666602393311717,
0.09296758104738155,-0.03903574926350602,
0.09301745635910225,-0.022989654665048136,
0.09306733167082294,-0.01325814499160566,
0.09311720698254364,-0.01907782360532349,
0.09316708229426433,-0.0008724407640911362,
0.09321695760598504,-0.05015446248436704,
0.09326683291770574,0.01958217836908251,
0.09331670822942643,-0.03139353549987726,
0.09336658354114713,-0.005518325052067138,
0.09341645885286783,-0.021393397043531482,
0.09346633416458854,0.022562524633001405,
0.09351620947630923,-0.008067611520898216,
0.09356608478802993,-0.012471326463502495,
0.09361596009975062,-0.008507338051400262,
0.09366583541147132,0.005498652763519513,
0.09371571072319201,-0.003962415108743457,
0.09376558603491272,-0.024374342097190527,
0.09381546134663342,0.004325458184134497,
0.09386533665835411,-0.011656248442365178,
0.09391521197007481,-0.02309443291636174,
0.0939650872817955,-0.003702610570671283,
0.09401496259351622,-0.0022328201133976124,
0.09406483790523691,0.01965435438355566,
0.09411471321695761,-0.00916634065233265,
0.0941645885286783,-0.019745450537478452,
0.094214463840399,-0.0051712859529884254,
0.0942643391521197,-0.006544475203120579,
0.0943142144638404,-0.013031989941210652,
0.0943640897755611,-0.01944470797777193,
0.0944139650872818,-0.0010321523835091374,
0.09446384039900249,-0.01895882104906107,
0.09451371571072319,-0.013381022444122093,
0.0945635910224439,-0.01624437410342467,
0.09461346633416459,-0.010482685058525851,
0.09466334164588529,0.010563317121258853,
0.09471321695760598,0.005229326518216504,
0.09476309226932668,-0.025337000423530678,
0.09481296758104737,-0.027194537892613953,
0.09486284289276808,-0.03997596806712483,
0.09491271820448878,0.000497947839848226,
0.09496259351620948,-0.004240300805514566,
0.09501246882793017,-0.013205130390009989,
0.09506234413965087,0.007919441098684948,
0.09511221945137158,-0.016704389235371535,
0.09516209476309227,0.014208997440364048,
0.09521197007481297,-0.0020452574993660034,
0.09526184538653366,-0.0005492821700488742,
0.09531172069825436,-0.02413657892685805,
0.09536159600997507,-0.0005213674369485,
0.09541147132169576,-0.008080418590113846,
0.09546134663341646,-0.0220681064636521,
0.09551122194513716,-0.004924102166439253,
0.09556109725685785,0.013873912527593613,
0.09561097256857855,-0.04114929248506593,
0.09566084788029926,-0.02874856642913981,
0.09571072319201995,-0.006996635647124454,
0.09576059850374065,-0.027610204873307884,
0.09581047381546134,-0.01131478364854959,
0.09586034912718204,0.002849050503327434,
0.09591022443890275,0.01835553387608354,
0.09596009975062345,-0.026539157222874536,
0.09600997506234414,0.0100469774915069,
0.09605985037406484,-0.00573338695588758,
0.09610972568578553,0.011491310717762465,
0.09615960099750623,0.001676555351260504,
0.09620947630922694,-0.010604188234290523,
0.09625935162094763,-0.015999317119208215,
0.09630922693266833,0.00596029058878899,
0.09635910224438902,0.013658958645127329,
0.09640897755610972,-0.00024745494454631424,
0.09645885286783043,-0.032330109464631974,
0.09650872817955113,-0.005807812758916235,
0.09655860349127182,0.007561749517125894,
0.09660847880299252,-0.024029637520008147,
0.09665835411471321,0.008952340453434755,
0.09670822942643391,-0.005744308427334987,
0.09675810473815462,0.006900202543757949,
0.09680798004987531,0.0011844419861724554,
0.09685785536159601,-0.0071005804324796975,
0.0969077306733167,0.021558915127521415,
0.0969576059850374,0.008463840691496046,
0.09700748129675811,-0.00035361668783850584,
0.0970573566084788,0.014711868755302032,
0.0971072319201995,0.011971719805277049,
0.0971571072319202,0.01083248724070562,
0.0972069825436409,-0.014534413699588442,
0.09725685785536159,-0.004191588442600793,
0.0973067331670823,-0.0020050126832888947,
0.097356608478803,0.018940497253230056,
0.09740648379052369,-0.0233570194278074,
0.09745635910224439,0.0072041038920788655,
0.09750623441396508,-0.001052593913642267,
0.09755610972568579,0.01851190819737548,
0.09760598503740649,0.0037282408875099473,
0.09765586034912718,0.010179374005826998,
0.09770573566084788,-0.0048824562879420975,
0.09775561097256857,-0.020879748201074667,
0.09780548628428928,0.018562293856415453,
0.09785536159600998,-0.032517708088774855,
0.09790523690773068,0.013920453584124635,
0.09795511221945137,-0.003561522874126341,
0.09800498753117207,-0.011054986173921975,
0.09805486284289276,-0.001917295469636593,
0.09810473815461347,-0.007667697792487689,
0.09815461346633417,-0.008199396694678524,
0.09820448877805486,-0.0033196818585449588,
0.09825436408977556,0.02876000665084462,
0.09830423940149625,-0.007318692785146285,
0.09835411471321696,0.006558124942307835,
0.09840399002493766,0.00029565277298875675,
0.09845386533665836,0.03819500077776928,
0.09850374064837905,-0.014580481209082462,
0.09855361596009975,0.014251610010267923,
0.09860349127182044,0.01790024435649175,
0.09865336658354115,0.027462742490483756,
0.09870324189526185,-0.020722013964539383,
0.09875311720698254,0.007158533023944685,
0.09880299251870324,0.02120142282774084,
0.09885286783042393,0.02456495453464455,
0.09890274314214464,0.009098556691493745,
0.09895261845386534,-0.004204419781135187,
0.09900249376558604,0.008367115031513505,
0.09905236907730673,-0.0030059838509335877,
0.09910224438902743,0.0009062923656226896,
0.09915211970074812,0.006833457946687461,
0.09920199501246883,0.02660923057753031,
0.09925187032418953,-0.004036514556794206,
0.09930174563591022,0.0083876127587577,
0.09935162094763092,0.01969453348834749,
0.09940149625935162,0.028070683881412227,
0.09945137157107233,-0.011728926362509353,
0.09950124688279302,0.0022452527219302496,
0.09955112219451372,-0.018105307062457797,
0.09960099750623441,0.021832432273712052,
0.09965087281795511,0.0264708760916497,
0.0997007481296758,0.017278130540685912,
0.09975062344139651,0.04126611165070658,
0.09980049875311721,0.0398145459579283,
0.0998503740648379,0.0030538308500877315,
0.0999002493765586,0.015689462944098096,
0.0999501246882793,0.012548372051170183,
0.1,0.02509872049931846,
0.1000498753117207,0.03415915254908806,
0.1000997506234414,0.007781534376643143,
0.10014962593516209,0.04241606627386201,
0.10019950124688279,0.0052975876222323,
0.1002493765586035,0.03783398651088047,
0.1002992518703242,0.019353398058369695,
0.10034912718204489,0.009621596279740503,
0.10039900249376559,0.02591485010488016,
0.10044887780548628,0.025317984631024512,
0.10049875311720698,0.01754534399941012,
0.10054862842892769,0.030770032917677687,
0.10059850374064838,0.024670684095071192,
0.10064837905236908,0.025401403643689393,
0.10069825436408977,0.013631472045903616,
0.10074812967581047,0.01709792846571643,
0.10079800498753118,0.015728143660806212,
0.10084788029925187,0.036193917093014574,
0.10089775561097257,0.021725050302472668,
0.10094763092269327,0.002011036327502911,
0.10099750623441396,0.05856708123694364,
0.10104738154613466,0.021521402970590492,
0.10109725685785537,0.03696302850000745,
0.10114713216957606,0.022685154346860942,
0.10119700748129676,0.031759425690335755,
0.10124688279301745,-0.006295666781969075,
0.10129675810473815,0.030508695537931285,
0.10134663341645886,0.01726031755088609,
0.10139650872817955,0.024514291504834345,
0.10144638403990025,0.039733997700470536,
0.10149625935162095,0.02748764162655274,
0.10154613466334164,0.016077422302730356,
0.10159600997506234,0.04281932706206287,
0.10164588528678305,0.010526417714979674,
0.10169576059850374,0.04852935905505813,
0.10174563591022444,0.03146441949622385,
0.10179551122194513,0.02151939639770353,
0.10184538653366583,0.03954700136209523,
0.10189526184538654,0.010462980225927884,
0.10194513715710724,0.024414103513358702,
0.10199501246882793,0.018677250230570097,
0.10204488778054863,-0.010092428268355581,
0.10209476309226932,0.03759181582401187,
0.10214463840399003,0.0296367951127204,
0.10219451371571073,0.03926572173311312,
0.10224438902743142,0.01625670435045612,
0.10229426433915212,0.049536494339422504,
0.10234413965087281,0.017107492193950843,
0.10239401496259351,0.0382613939188671,
0.10244389027431422,0.04742079516166868,
0.10249376558603492,0.013631796920282126,
0.10254364089775561,0.017407416552362436,
0.10259351620947631,0.03950042423953824,
0.102643391521197,0.037329232396843756,
0.10269326683291771,0.02656101204095226,
0.10274314214463841,0.03485080733862837,
0.1027930174563591,0.03592475818463528,
0.1028428927680798,0.02727404675185441,
0.1028927680798005,0.04439951615101893,
0.10294264339152119,0.028552729709430805,
0.1029925187032419,0.04110546652545867,
0.1030423940149626,0.037910677634399835,
0.10309226932668329,0.01039772467352688,
0.10314214463840399,0.019401396500191674,
0.10319201995012468,0.03580060841741063,
0.10324189526184539,0.033514886870590545,
0.10329177057356609,0.0417654764874823,
0.10334164588528678,0.011474554864169172,
0.10339152119700748,0.026949054134559083,
0.10344139650872818,0.03543155345753951,
0.10349127182044887,0.01714650190482661,
0.10354114713216958,0.018555646807759812,
0.10359102244389028,0.017611344835918703,
0.10364089775561097,0.014213026902814547,
0.10369077306733167,0.04273987105213635,
0.10374064837905236,0.04210757836745918,
0.10379052369077307,0.04612913784005805,
0.10384039900249377,0.020439881009079,
0.10389027431421446,0.026099508499824967,
0.10394014962593516,0.03443151924391488,
0.10399002493765586,0.044751916355807594,
0.10403990024937655,0.028006458652008785,
0.10408977556109726,0.028659241426229005,
0.10413965087281796,0.059536020566482495,
0.10418952618453865,0.013515834740182696,
0.10423940149625935,0.01949182692385029,
0.10428927680798004,0.02453788161895443,
0.10433915211970075,0.026364339903676547,
0.10438902743142145,0.02009644136171955,
0.10443890274314215,0.018046948119632845,
0.10448877805486284,0.027896481514716538,
0.10453865336658354,0.022151662597801436,
0.10458852867830425,0.021112512128303253,
0.10463840399002494,0.0344004791352992,
0.10468827930174564,0.04137730069371888,
0.10473815461346633,0.03254512040597106,
0.10478802992518703,0.023463139782882437,
0.10483790523690772,0.041477125794116096,
0.10488778054862843,0.02675343302749425,
0.10493765586034913,0.02787057565375102,
0.10498753117206983,0.024224573681735546,
0.10503740648379052,0.05066052046671417,
0.10508728179551122,0.024779811340380993,
0.10513715710723193,0.015641126840958225,
0.10518703241895262,0.001290641954670834,
0.10523690773067332,0.026980344087795635,
0.10528678304239401,0.029045428050971614,
0.10533665835411471,0.03055870700264686,
0.1053865336658354,0.0417283663487638,
0.10543640897755611,0.03332739746507429,
0.10548628428927681,0.030373473937262856,
0.1055361596009975,0.02644942061161537,
0.1055860349127182,0.036998373546680965,
0.1056359102244389,0.014371610593123104,
0.10568578553615961,0.002680285535995912,
0.1057356608478803,-0.0029846385702999023,
0.105785536159601,0.02771203819165324,
0.1058354114713217,0.014425053181335166,
0.10588528678304239,0.016207486121696427,
0.10593516209476309,0.011118154249239905,
0.1059850374064838,0.0033641830629062668,
0.10603491271820449,0.01157756880450339,
0.10608478802992519,-0.004570335169850601,
0.10613466334164588,0.03628425112393781,
0.10618453865336658,0.050338421563889846,
0.10623441396508729,0.024298423355420214,
0.10628428927680798,0.007064987540547943,
0.10633416458852868,0.008266172992328518,
0.10638403990024937,0.010300100328069169,
0.10643391521197007,0.02543458347181484,
0.10648379052369077,0.018745768248107534,
0.10653366583541148,0.013545726575491412,
0.10658354114713217,0.040302952250673776,
0.10663341645885287,0.03134289297765262,
0.10668329177057356,0.028161901716330612,
0.10673316708229426,0.011762347964881055,
0.10678304239401497,0.022649706820910227,
0.10683291770573566,0.022466390644272992,
0.10688279301745636,-0.009365045779478127,
0.10693266832917706,0.032954075630522474,
0.10698254364089775,0.02604066301149925,
0.10703241895261846,0.0035425290414468086,
0.10708229426433916,0.03140063515486392,
0.10713216957605985,0.019702122938598448,
0.10718204488778055,0.057029683874376264,
0.10723192019950124,0.03718493323256074,
0.10728179551122194,0.03599599908742477,
0.10733167082294265,0.028418053322385308,
0.10738154613466334,-0.013619825483917849,
0.10743142144638404,0.012264138067398504,
0.10748129675810474,0.04598588349102785,
0.10753117206982543,0.008699438911703038,
0.10758104738154614,-0.007322831663783367,
0.10763092269326684,0.004684228533229912,
0.10768079800498753,-0.014439540456307881,
0.10773067331670823,0.037603993303630553,
0.10778054862842892,0.011623451649397534,
0.10783042394014962,0.003445031709645191,
0.10788029925187033,0.02848405785730248,
0.10793017456359102,0.02902725770832885,
0.10798004987531172,0.006625160559879184,
0.10802992518703242,0.02045466602465719,
0.10807980049875311,0.021468723854693315,
0.10812967581047382,0.03738149207515304,
0.10817955112219452,0.025842749716273823,
0.10822942643391521,0.025599508393114936,
0.10827930174563591,-0.01829318304524965,
0.1083291770573566,0.01696211117175126,
0.1083790523690773,0.002874758788398154,
0.10842892768079801,-0.00020249487310600427,
0.1084788029925187,0.00786167546071605,
0.1085286783042394,0.02808723343251746,
0.1085785536159601,-0.03387783547077931,
0.10862842892768079,0.019176200168969655,
0.1086783042394015,0.003025285220302272,
0.1087281795511222,0.015250972568916648,
0.1087780548628429,-0.0075155990269450265,
0.10882793017456359,0.021611986841020475,
0.10887780548628428,-0.01624113478011671,
0.108927680798005,-0.007944092866862866,
0.10897755610972569,-0.007598017379504659,
0.10902743142144639,0.016812167744419397,
0.10907730673316708,0.0044207501556097675,
0.10912718204488778,0.02139176403079747,
0.10917705735660847,0.010564403553756565,
0.10922693266832918,0.015153240829301749,
0.10927680798004988,0.0070547156939788375,
0.10932668329177057,0.014859005149557698,
0.10937655860349127,0.0020382401856589355,
0.10942643391521197,-0.006719277752248702,
0.10947630922693267,-0.0026774779108196802,
0.10952618453865337,0.0005983983409509062,
0.10957605985037407,-0.006175600796594818,
0.10962593516209476,-0.00447172271591483,
0.10967581047381546,-0.004438915395846144,
0.10972568578553615,-0.01552686657009006,
0.10977556109725686,-0.002347430344823608,
0.10982543640897756,-0.0021189920483691907,
0.10987531172069825,0.011851113971335177,
0.10992518703241895,-0.006254246019939883,
0.10997506234413965,-0.012418626974196994,
0.11002493765586036,-0.007506152494944834,
0.11007481296758105,-0.0020337847362655475,
0.11012468827930175,-0.016571494310928626,
0.11017456359102244,0.0007155738904442328,
0.11022443890274314,-0.02160539302255075,
0.11027431421446383,-0.005009307983629579,
0.11032418952618454,-0.014700594932940621,
0.11037406483790524,-0.02427049889538226,
0.11042394014962593,0.007038659886291054,
0.11047381546134663,0.0065243900662043264,
0.11052369077306733,0.002332628870626196,
0.11057356608478804,0.012465896130793942,
0.11062344139650873,-0.012962159066443933,
0.11067331670822943,-0.019134910874072354,
0.11072319201995012,0.012603382550074111,
0.11077306733167082,0.009486613198973133,
0.11082294264339151,-7.844054772905128e-05,
0.11087281795511222,-0.017691756479863353,
0.11092269326683292,-0.028585406994656642,
0.11097256857855362,-0.0048574107527989754,
0.11102244389027431,0.008348309354702762,
0.111072319201995,-0.012239466995914099,
0.11112219451371572,0.011860595710039638,
0.11117206982543641,-0.030317353990309166,
0.11122194513715711,-0.012396721065900588,
0.1112718204488778,-0.007179389847052258,
0.1113216957605985,-0.019839563324823527,
0.11137157107231921,0.006516573603752145,
0.1114214463840399,-0.0005190452788106717,
0.1114713216957606,-0.006163702718587236,
0.1115211970074813,-0.036558749573003924,
0.11157107231920199,-0.0008089883118529307,
0.11162094763092269,-0.03567223869245494,
0.1116708229426434,-0.039599339862060226,
0.11172069825436409,-0.0007956807086669515,
0.11177057356608479,-0.005381538788879574,
0.11182044887780548,-0.010359759884785047,
0.11187032418952618,-0.009403623423431129,
0.11192019950124689,-0.0034966574313320536,
0.11197007481296758,-0.030268030689543285,
0.11201995012468828,0.003949619326385306,
0.11206982543640898,-0.009144948924245826,
0.11211970074812967,-0.010498369005202915,
0.11216957605985037,-0.0341002011825844,
0.11221945137157108,-0.00494898526837588,
0.11226932668329177,-0.013314171945872214,
0.11231920199501247,0.013223171621056145,
0.11236907730673316,0.003019168021664194,
0.11241895261845386,-0.04015607416789012,
0.11246882793017457,-0.01704545253995671,
0.11251870324189527,-0.03554987345508111,
0.11256857855361596,-0.00023803191102684737,
0.11261845386533666,-0.002093550264686465,
0.11266832917705735,0.001164321651851822,
0.11271820448877805,0.01340795869934232,
0.11276807980049876,-0.0005574393373655034,
0.11281795511221945,-0.02561621021054082,
0.11286783042394015,-0.017765727092508836,
0.11291770573566084,-0.03597275537329273,
0.11296758104738154,-0.013565745926408303,
0.11301745635910225,0.0010251868252589263,
0.11306733167082295,-0.030938315455305558,
0.11311720698254364,-0.013173699423378793,
0.11316708229426434,0.023067372858609304,
0.11321695760598503,0.007887947611328942,
0.11326683291770574,0.0005983622205827013,
0.11331670822942644,-0.007189284306207323,
0.11336658354114713,0.00511630177556162,
0.11341645885286783,-0.03717756035691415,
0.11346633416458853,-0.004189526852166109,
0.11351620947630922,0.012945705134349618,
0.11356608478802993,-0.009466375734423958,
0.11361596009975063,-0.023959418356035135,
0.11366583541147132,-0.014444772071323646,
0.11371571072319202,-0.00760680568860367,
0.11376558603491271,-0.0036865138280316387,
0.11381546134663342,0.0024422103738168614,
0.11386533665835412,0.0053399457263282185,
0.11391521197007481,-0.03034724534031274,
0.11396508728179551,-0.01430834500602029,
0.1140149625935162,-0.010587336758501938,
0.1140648379052369,-0.014017824133740042,
0.11411471321695761,0.008209726091083482,
0.1141645885286783,0.0161322908203669,
0.114214463840399,-1.6717420030423064e-05,
0.1142643391521197,-0.020076384721643227,
0.1143142144638404,-0.00736146207760879,
0.1143640897755611,-0.007704522970747785,
0.1144139650872818,-0.018728886429907075,
0.1144638403990025,-0.0014557708989405976,
0.11451371571072319,0.011707525578677132,
0.11456359102244389,-0.009864250225456403,
0.11461346633416458,-0.04265934188034262,
0.11466334164588529,-0.009780488376802557,
0.11471321695760599,0.010173338515759614,
0.11476309226932668,-0.018670628597962105,
0.11481296758104738,-0.02216519505722028,
0.11486284289276807,0.01336575091266115,
0.11491271820448878,-0.005724849060319998,
0.11496259351620948,-0.026544485612313998,
0.11501246882793018,-0.04778233528336666,
0.11506234413965087,-0.0017584154115845123,
0.11511221945137157,0.007783546976126472,
0.11516209476309226,0.01615698775542189,
0.11521197007481297,0.004123888121044715,
0.11526184538653367,-0.023056953075472956,
0.11531172069825436,-0.005913282191519146,
0.11536159600997506,-0.01657503770092065,
0.11541147132169575,-0.0015317196319631987,
0.11546134663341646,-0.02015495619761088,
0.11551122194513716,-0.019437956274426016,
0.11556109725685786,-0.005527609865052414,
0.11561097256857855,-0.004134532315635136,
0.11566084788029925,-0.010670250836750632,
0.11571072319201996,-0.005394455156604718,
0.11576059850374065,0.00899492023562014,
0.11581047381546135,-0.009301848856467157,
0.11586034912718204,-0.003638942018096019,
0.11591022443890274,-0.013557752196043608,
0.11596009975062344,-0.019563556312028746,
0.11600997506234415,0.003669494744387351,
0.11605985037406484,0.003521403975022267,
0.11610972568578554,-0.007673977214026713,
0.11615960099750623,-0.002928353178197403,
0.11620947630922693,0.001784169940322133,
0.11625935162094764,-0.022801123689985547,
0.11630922693266833,-0.028279206895797653,
0.11635910224438903,-0.003371149219503904,
0.11640897755610972,0.005781501926251303,
0.11645885286783042,-0.013296242154662722,
0.11650872817955112,-0.001031710695049459,
0.11655860349127183,-0.0028091219225623914,
0.11660847880299252,0.005102001400328643,
0.11665835411471322,-0.018477751816150436,
0.11670822942643391,0.004961599973592367,
0.11675810473815461,-0.0003511373003295678,
0.11680798004987532,-0.008366843599122497,
0.11685785536159601,-0.014759433625261073,
0.11690773067331671,0.008807941368556439,
0.1169576059850374,-0.005820988974413502,
0.1170074812967581,0.006923065951543559,
0.1170573566084788,0.015041280820003658,
0.1171072319201995,-0.006731850302602597,
0.1171571072319202,-0.02842007400041932,
0.1172069825436409,0.01441728059396828,
0.1172568578553616,0.0151673173280273,
0.11730673316708229,-0.00834386008670436,
0.117356608478803,0.0035574590723791983,
0.1174064837905237,-0.015116239974737211,
0.11745635910224439,0.013201886611211357,
0.11750623441396509,0.022317515485250426,
0.11755610972568578,-0.006047753212975061,
0.11760598503740648,-0.01329748016079888,
0.11765586034912719,-0.011637697684036538,
0.11770573566084788,0.025688578191342442,
0.11775561097256858,0.016421542154724605,
0.11780548628428927,-0.02115255589029744,
0.11785536159600997,-0.020720344182084474,
0.11790523690773068,0.0044587877533084465,
0.11795511221945137,-0.005807872295976849,
0.11800498753117207,-0.002327573978063985,
0.11805486284289277,-0.0006405525588784825,
0.11810473815461346,0.012154230540929943,
0.11815461346633417,0.01952910475130511,
0.11820448877805487,0.03518486646016524,
0.11825436408977556,-0.0008238560825983027,
0.11830423940149626,0.027225544510461885,
0.11835411471321695,-0.001942096739559803,
0.11840399002493765,0.02893582085899326,
0.11845386533665836,0.006443032516439953,
0.11850374064837906,0.016351378134210816,
0.11855361596009975,0.021396953850782698,
0.11860349127182045,-0.02059185358002887,
0.11865336658354114,0.016619728231490702,
0.11870324189526185,-0.010216694854062186,
0.11875311720698255,-0.01672218601889263,
0.11880299251870324,-0.016618991286999178,
0.11885286783042394,0.0061522399406750425,
0.11890274314214463,0.04130326061510422,
0.11895261845386533,0.015647697171700087,
0.11900249376558604,0.024092165787857098,
0.11905236907730674,-0.007875786691187006,
0.11910224438902743,0.03094523600407928,
0.11915211970074813,0.04166404547146929,
0.11920199501246882,-0.010841529767515701,
0.11925187032418953,0.020768597852539365,
0.11930174563591023,0.012855888507560065,
0.11935162094763092,0.009563891949717396,
0.11940149625935162,0.040810389930682825,
0.11945137157107232,0.0015513340608092133,
0.11950124688279301,0.026474967868034847,
0.11955112219451372,0.009427120261267524,
0.11960099750623442,0.022995078378017605,
0.11965087281795511,0.02758600857447581,
0.11970074812967581,0.0371662508212936,
0.1197506234413965,0.01759111020574198,
0.11980049875311721,-0.006280577849762731,
0.11985037406483791,0.019093553127946333,
0.1199002493765586,0.004835365659187057,
0.1199501246882793,0.0016291706041763956,
0.12,0.014197029707351101,
0.1200498753117207,0.03046387689116036,
0.1200997506234414,0.016645495053388953,
0.1201496259351621,0.02415853932159734,
0.12019950124688279,-0.00924155228651875,
0.12024937655860349,0.028053023535414015,
0.12029925187032418,0.02483920501123544,
0.1203491271820449,0.025391704893220533,
0.12039900249376559,0.025814832632378694,
0.12044887780548628,0.013878072368455072,
0.12049875311720698,0.038716892860709576,
0.12054862842892768,0.035350414427708796,
0.12059850374064839,0.02935071828504042,
0.12064837905236908,0.02247553637877626,
0.12069825436408978,0.03913882964714519,
0.12074812967581047,0.03043218523982221,
0.12079800498753117,0.021180986782766434,
0.12084788029925186,0.0015713247473768364,
0.12089775561097257,0.029193928156767083,
0.12094763092269327,0.021071985535685775,
0.12099750623441397,0.010986525804262699,
0.12104738154613466,0.033161396525263544,
0.12109725685785536,0.028931379503763684,
0.12114713216957607,-0.0005992452909464041,
0.12119700748129676,0.05851327188774692,
0.12124688279301746,0.037389517201904886,
0.12129675810473815,0.05226335930698886,
0.12134663341645885,0.015367719836352859,
0.12139650872817954,0.07410014477975894,
0.12144638403990025,0.008378345066210848,
0.12149625935162095,0.029024775890148388,
0.12154613466334165,0.03906546800482477,
0.12159600997506234,0.01343501580860084,
0.12164588528678304,0.04241380075051776,
0.12169576059850375,0.03674667557002226,
0.12174563591022444,0.039565348353179375,
0.12179551122194514,0.029240184727459307,
0.12184538653366583,0.03185340851084342,
0.12189526184538653,0.016175947380552252,
0.12194513715710723,0.038112817849267275,
0.12199501246882793,0.05901467924086802,
0.12204488778054863,0.020854904090988675,
0.12209476309226933,0.0400143972625422,
0.12214463840399002,0.019847539480556294,
0.12219451371571072,0.02036128981324423,
0.12224438902743143,0.04103540309316192,
0.12229426433915212,0.046419831679595805,
0.12234413965087282,0.04167682439984555,
0.12239401496259351,0.046969257520983784,
0.12244389027431421,0.03486782455670034,
0.12249376558603492,0.04922201300513267,
0.12254364089775562,0.031562315443773574,
0.12259351620947631,0.04039458918324437,
0.122643391521197,0.01124354192999328,
0.1226932668329177,0.032068020361212014,
0.1227431421446384,0.028501919750606702,
0.12279301745635911,0.014704450143927034,
0.1228428927680798,0.022875403878041836,
0.1228927680798005,0.029831007304031824,
0.1229426433915212,0.007766284230426572,
0.12299251870324189,0.01649678279260784,
0.1230423940149626,0.03377929860925375,
0.1230922693266833,0.03495494391611387,
0.12314214463840399,0.03240571301902802,
0.12319201995012469,0.03658843337084456,
0.12324189526184538,0.016936729580850213,
0.12329177057356608,0.015370747431501778,
0.12334164588528679,0.04318903065567803,
0.12339152119700748,0.0299045172430711,
0.12344139650872818,0.03640431697875762,
0.12349127182044888,0.0373064413946348,
0.12354114713216957,0.02057261847988445,
0.12359102244389028,0.016202710611663555,
0.12364089775561098,0.029872060264357195,
0.12369077306733167,0.04560034530772271,
0.12374064837905237,0.03644735942620546,
0.12379052369077306,0.03454226847405798,
0.12384039900249376,0.01704351093421584,
0.12389027431421447,0.041164571287816296,
0.12394014962593516,0.03720941927270717,
0.12399002493765586,0.02665620400182747,
0.12403990024937656,0.03814461450804685,
0.12408977556109725,0.04286613511792666,
0.12413965087281796,0.032807753199529756,
0.12418952618453866,0.04142877142382716,
0.12423940149625935,0.024104269043843846,
0.12428927680798005,0.007809740335515028,
0.12433915211970074,0.013787168439030061,
0.12438902743142144,0.044080674755117136,
0.12443890274314215,0.04246275378796591,
0.12448877805486284,0.008636587904407241,
0.12453865336658354,0.014463899750040192,
0.12458852867830424,0.010957503561287801,
0.12463840399002493,0.041440296345424066,
0.12468827930174564,0.020256138108709548,
0.12473815461346634,0.02809558954203809,
0.12478802992518703,0.03566874787387459,
0.12483790523690773,0.04559774652319458,
0.12488778054862842,0.02136168808823252,
0.12493765586034913,0.00635829966391907,
0.12498753117206983,0.026934453328746555,
0.12503740648379053,0.032015615154993106,
0.12508728179551123,0.025914777196678878,
0.12513715710723192,0.02268313942416597,
0.12518703241895263,0.03369180995322921,
0.1252369077306733,0.01936047256177616,
0.12528678304239402,0.04393660702456226,
0.1253366583541147,0.01493342439107778,
0.1253865336658354,0.04227399479120318,
0.12543640897755612,0.032192645731319455,
0.1254862842892768,0.022750678136183634,
0.1255361596009975,0.004502206413515824,
0.1255860349127182,0.037366841639356545,
0.1256359102244389,0.002564883877157812,
0.1256857855361596,0.031092047242796447,
0.1257356608478803,-0.012195554690573061,
0.125785536159601,0.01848405645383134,
0.12583541147132168,0.019750348660524067,
0.1258852867830424,0.021143428031190514,
0.1259351620947631,-0.0014671973237667113,
0.12598503740648379,0.04936606271194437,
0.1260349127182045,0.028776493097993232,
0.12608478802992518,0.040864890708096346,
0.1261346633416459,0.013204230823584455,
0.1261845386533666,0.00023739905100273254,
0.12623441396508728,0.0019184922200959666,
0.126284289276808,0.02478498466092303,
0.12633416458852867,0.00952461186857827,
0.12638403990024938,0.02875251707576597,
0.1264339152119701,0.011099003870618074,
0.12648379052369077,0.016461605799038766,
0.12653366583541148,0.01369933774232263,
0.12658354114713216,0.0039362977059986745,
0.12663341645885287,0.027534770484692522,
0.12668329177057355,0.008145460737949806,
0.12673316708229426,0.030955267916488102,
0.12678304239401497,0.022284610118950433,
0.12683291770573565,0.013482545677776304,
0.12688279301745636,0.013495825940228313,
0.12693266832917705,0.011248891834329186,
0.12698254364089775,0.016421213092147172,
0.12703241895261846,0.004277074859751708,
0.12708229426433915,0.018258823052228597,
0.12713216957605986,0.034205931695694844,
0.12718204488778054,0.015922704500183855,
0.12723192019950125,0.004851434666965004,
0.12728179551122196,0.02360964169905906,
0.12733167082294264,0.00037907276372052545,
0.12738154613466335,-0.003430617824640117,
0.12743142144638403,0.026587534811477184,
0.12748129675810474,0.012880436044186549,
0.12753117206982545,0.02083072600835112,
0.12758104738154613,0.043901518733977955,
0.12763092269326684,0.02459217537927215,
0.12768079800498752,0.006090631353315277,
0.12773067331670823,0.010467390024264181,
0.1277805486284289,-0.004405254702751667,
0.12783042394014962,-0.013133756389151516,
0.12788029925187033,0.018630615035122408,
0.12793017456359101,0.014102323004149937,
0.12798004987531172,-0.006276134081963734,
0.1280299251870324,0.0036601066248669227,
0.12807980049875312,0.00598827797025004,
0.12812967581047383,0.0009078969140649869,
0.1281795511221945,0.0005902051153429157,
0.12822942643391522,0.0012561883376428027,
0.1282793017456359,0.014513878634404679,
0.1283291770573566,0.028410426996488262,
0.12837905236907732,0.002304619740036302,
0.128428927680798,-0.010083932343202078,
0.1284788029925187,0.02537852904806536,
0.1285286783042394,0.007598302300108542,
0.1285785536159601,-4.986307481693632e-05,
0.1286284289276808,0.029188481439649666,
0.1286783042394015,0.018057170883743836,
0.1287281795511222,-0.011774706047688313,
0.12877805486284288,-0.01702204525235437,
0.1288279301745636,-0.012270482364503127,
0.1288778054862843,0.018921738841943963,
0.12892768079800498,-0.009068195280717815,
0.1289775561097257,-0.03272327049362812,
0.12902743142144638,-0.014653972846073745,
0.12907730673316709,-0.0009755678212272694,
0.12912718204488777,0.01569137107844335,
0.12917705735660848,0.017905205785121173,
0.1292269326683292,0.003337177312068527,
0.12927680798004987,0.004555875028028723,
0.12932668329177058,-0.006351887819079646,
0.12937655860349126,-0.005168845603576628,
0.12942643391521197,-0.004614976532321979,
0.12947630922693268,0.016133328788949745,
0.12952618453865336,0.013648055833642396,
0.12957605985037407,0.005419664497090039,
0.12962593516209475,0.005598268306043623,
0.12967581047381546,0.020016253621973547,
0.12972568578553617,-0.01243254920494972,
0.12977556109725685,-0.0014961645085647742,
0.12982543640897756,0.016981428961383653,
0.12987531172069824,-0.011404073574120209,
0.12992518703241895,-0.010306860688597999,
0.12997506234413966,0.004784340602972507,
0.13002493765586035,0.015845250576936358,
0.13007481296758105,-0.015608584572227175,
0.13012468827930174,-0.0016523578483744529,
0.13017456359102245,0.011374939334133713,
0.13022443890274316,0.0014761671052743192,
0.13027431421446384,0.0005327508827292333,
0.13032418952618455,-0.0068568519865372084,
0.13037406483790523,-0.005170154766102007,
0.13042394014962594,-0.01522613114466533,
0.13047381546134662,-0.004072703428921937,
0.13052369077306733,-0.0051237921996472304,
0.13057356608478804,-0.004803114458024717,
0.13062344139650872,-0.023242634446970233,
0.13067331670822943,-0.008261676890087086,
0.1307231920199501,-0.011673800817536537,
0.13077306733167082,-0.0007001033668490335,
0.13082294264339153,0.009642239873973628,
0.13087281795511221,-0.019962330891439412,
0.13092269326683292,0.05094111276985604,
0.1309725685785536,0.019977106546375502,
0.13102244389027431,0.006877079095541838,
0.13107231920199502,-0.030721411475017057,
0.1311221945137157,-0.011717503360363847,
0.13117206982543642,-0.003332443089048309,
0.1312219451371571,-0.0071144687373769855,
0.1312718204488778,-0.024655879841257472,
0.13132169576059852,0.02523758109814221,
0.1313715710723192,-0.02846434314979241,
0.1314214463840399,-0.01698040953462125,
0.1314713216957606,-0.0035736086683991674,
0.1315211970074813,-0.01436328997576257,
0.13157107231920198,0.004927589392906143,
0.1316209476309227,-0.00012152969820154649,
0.1316708229426434,0.011268214101072236,
0.13172069825436408,-0.017391143149372963,
0.1317705735660848,-0.000997060308857818,
0.13182044887780547,-0.015974140723743306,
0.13187032418952618,0.018212328491040056,
0.1319201995012469,-0.005712854376927013,
0.13197007481296757,0.014894433159216932,
0.13201995012468828,0.0023328031439025666,
0.13206982543640897,-0.0008065591315092567,
0.13211970074812968,-0.008388322692114281,
0.13216957605985039,-0.018779606989307654,
0.13221945137157107,-0.023392002582265453,
0.13226932668329178,-0.029384601911816167,
0.13231920199501246,-0.015680139815689702,
0.13236907730673317,-0.03218431362038777,
0.13241895261845388,-0.016805639958327612,
0.13246882793017456,0.008608240453708215,
0.13251870324189527,-0.03281103381531102,
0.13256857855361595,-0.011035103262069995,
0.13261845386533666,-0.00787706673482184,
0.13266832917705737,0.00644990719199252,
0.13271820448877805,0.00853277506549466,
0.13276807980049876,0.002484801421507676,
0.13281795511221944,-0.024542152787117993,
0.13286783042394015,0.003979671185201301,
0.13291770573566083,-0.003746083139763931,
0.13296758104738154,-0.002865348660015147,
0.13301745635910225,-0.00666856590811531,
0.13306733167082294,-0.042791779536672715,
0.13311720698254365,-0.015512632099813812,
0.13316708229426433,-0.03648508993880237,
0.13321695760598504,-0.006437165915568131,
0.13326683291770575,-0.005319078899412369,
0.13331670822942643,-0.022794622505046498,
0.13336658354114714,-0.017346455268795035,
0.13341645885286782,0.011503685092009929,
0.13346633416458853,-0.02082829504786088,
0.13351620947630924,-0.01421400608348494,
0.13356608478802992,-0.006255286356898931,
0.13361596009975063,-0.020584417178043754,
0.1336658354114713,-0.01579179228830214,
0.13371571072319202,0.00048056554675197927,
0.13376558603491273,-0.026892891977396038,
0.1338154613466334,-0.024180114483485254,
0.13386533665835412,-0.0023220613704060715,
0.1339152119700748,-0.034717488399213,
0.13396508728179551,-0.0024947236750441247,
0.1340149625935162,-0.0216540315178505,
0.1340648379052369,-0.03349927964164093,
0.13411471321695762,-0.01319750816584875,
0.1341645885286783,-0.00414914065893949,
0.134214463840399,-0.007932237026220227,
0.1342643391521197,-0.01812766964296659,
0.1343142144638404,0.006083859082046766,
0.1343640897755611,-0.019049391140074465,
0.1344139650872818,-0.009225647960313374,
0.1344638403990025,0.013825978042683618,
0.13451371571072318,-0.01572396097473348,
0.1345635910224439,-0.005580431763721959,
0.1346134663341646,0.001038551338390644,
0.13466334164588528,-0.009752740619990477,
0.134713216957606,-0.003492836500586797,
0.13476309226932667,0.009164085763821809,
0.13481296758104738,0.008359633572210862,
0.1348628428927681,-0.011670315232283006,
0.13491271820448877,-0.010038252179989472,
0.13496259351620948,0.020056162834626037,
0.13501246882793017,-0.024261912606062024,
0.13506234413965088,0.00509711313369113,
0.13511221945137158,0.004323815236780311,
0.13516209476309227,-0.018217674714492864,
0.13521197007481298,0.005442659936189052,
0.13526184538653366,-0.009930640275176622,
0.13531172069825437,-0.004930668471833684,
0.13536159600997505,-0.025268482135614903,
0.13541147132169576,0.0009742218157926235,
0.13546134663341647,0.009512086213670869,
0.13551122194513715,-0.008961679396236037,
0.13556109725685786,0.010920321349531002,
0.13561097256857854,-0.01610056855995888,
0.13566084788029925,-0.025090110469257413,
0.13571072319201996,-0.015430633101663703,
0.13576059850374064,0.02065070994435785,
0.13581047381546135,-0.020948560729969985,
0.13586034912718203,-0.016525652546831266,
0.13591022443890274,0.010802148373304614,
0.13596009975062345,0.01158418197640828,
0.13600997506234414,0.021371241787254948,
0.13605985037406484,0.00872667972288762,
0.13610972568578553,0.0007265205825138757,
0.13615960099750624,-0.007147188703120507,
0.13620947630922695,0.012398652636612568,
0.13625935162094763,0.02780768370701318,
0.13630922693266834,0.0029831502122015666,
0.13635910224438902,0.0074929596800415044,
0.13640897755610973,-0.0023102246844861236,
0.1364588528678304,-0.006295184394001628,
0.13650872817955112,-0.011864479788829903,
0.13655860349127183,0.01729282748753517,
0.1366084788029925,0.023416260626820493,
0.13665835411471322,0.013742060531844222,
0.1367082294264339,0.004991282777421736,
0.1367581047381546,-0.009287808797464716,
0.13680798004987532,0.008525600749854374,
0.136857855361596,-0.0367693773014444,
0.1369077306733167,0.008117300687589386,
0.1369576059850374,-0.0003487062774753403,
0.1370074812967581,-0.014062605949097601,
0.13705735660847881,0.008941331163998947,
0.1371072319201995,-0.03258774934798585,
0.1371571072319202,-0.00406029574428213,
0.1372069825436409,-0.007919051820671118,
0.1372568578553616,0.00215722076557977,
0.1373067331670823,0.020561521072843467,
0.137356608478803,-0.006133621013796867,
0.1374064837905237,0.00959197572062073,
0.13745635910224438,-0.006998984404604077,
0.1375062344139651,-0.0017087587875225692,
0.1375561097256858,-0.0057921856802735944,
0.13760598503740648,0.01996150973537228,
0.1376558603491272,-0.008973897961178822,
0.13770573566084787,0.01353696624128246,
0.13775561097256858,0.021610646063713563,
0.13780548628428926,-0.01834794408831454,
0.13785536159600997,0.024446325812587696,
0.13790523690773068,0.017656481590626272,
0.13795511221945136,0.02505539789958604,
0.13800498753117207,0.020955359388472924,
0.13805486284289276,0.0272973260440231,
0.13810473815461347,0.02984644687702196,
0.13815461346633418,0.03402170200924854,
0.13820448877805486,0.024730336774206517,
0.13825436408977557,-0.009537571202113255,
0.13830423940149625,0.03138149874413883,
0.13835411471321696,-0.002504561335384155,
0.13840399002493767,0.011564995481237829,
0.13845386533665835,0.025771252957875836,
0.13850374064837906,0.025409477304353525,
0.13855361596009974,0.018719867227302962,
0.13860349127182045,0.010215554782976942,
0.13865336658354116,0.013025527539467119,
0.13870324189526184,0.04562442556788472,
0.13875311720698255,0.01656642820601426,
0.13880299251870323,0.006570675193509882,
0.13885286783042394,0.0500267680395421,
0.13890274314214462,0.003576612147750695,
0.13895261845386533,0.019064145973145527,
0.13900249376558604,0.01469529381848487,
0.13905236907730673,0.02852961859933508,
0.13910224438902744,-0.0052345072047395545,
0.13915211970074812,0.0015355211059967858,
0.13920199501246883,-0.005631078801084131,
0.13925187032418954,0.028752368826312477,
0.13930174563591022,-0.007896975873923361,
0.13935162094763093,-0.004318545959991975,
0.1394014962593516,0.01410598539266644,
0.13945137157107232,0.009999474479829788,
0.13950124688279303,0.028534714509895066,
0.1395511221945137,0.044931688071426085,
0.13960099750623442,0.014706962783041965,
0.1396508728179551,0.012125938323341308,
0.1397007481296758,0.004795276172478238,
0.13975062344139652,0.014912675800849614,
0.1398004987531172,0.006659821075231966,
0.1398503740648379,0.01709887724660092,
0.1399002493765586,-0.0010419894322685579,
0.1399501246882793,0.038677655631364855,
0.14,0.017094576583836757,
0.1400498753117207,0.016145379406153508,
0.1400997506234414,0.019856057462916837,
0.1401496259351621,0.04796125602666332,
0.1401995012468828,0.010667530411581947,
0.14024937655860348,0.043264690937312965,
0.1402992518703242,0.008926766724211905,
0.1403491271820449,0.01507950333954244,
0.14039900249376558,0.033392969885244345,
0.1404488778054863,0.016352495459379016,
0.14049875311720697,-0.005846174960053446,
0.14054862842892768,0.014109887653434508,
0.1405985037406484,-0.0054006751372170855,
0.14064837905236907,0.03052570272437503,
0.14069825436408978,0.028005428234841714,
0.14074812967581046,-0.001938124423906895,
0.14079800498753117,0.008423682677098535,
0.14084788029925188,0.013175156360930614,
0.14089775561097256,0.007361390476591664,
0.14094763092269327,0.020758648775261394,
0.14099750623441396,0.025684386299852084,
0.14104738154613466,-0.00899838354408581,
0.14109725685785537,0.045491652350601194,
0.14114713216957606,0.03036759457739789,
0.14119700748129677,0.01827894315848516,
0.14124688279301745,0.01970399933633258,
0.14129675810473816,0.0257774885059745,
0.14134663341645887,0.04895975905360092,
