time,amplitude,label
0.0,0.003987620902573539,
4.987531172069826e-05,-0.0019263345786281229,
9.975062344139652e-05,0.00237142408559901,
0.00014962593516209475,0.010210116932852162,
0.00019950124688279303,0.021570273545532793,
0.00024937655860349125,0.004465819868403541,
0.0002992518703241895,0.0203268989201527,
0.00034912718204488776,0.00925286627769692,
0.00039900249376558606,-0.013013767042072386,
0.0004488778054862843,0.007720495788413666,
0.0004987531172069825,-0.01525151396016098,
0.0005486284289276808,-0.02052649546252031,
0.000598503740648379,0.007342718998172788,
0.0006483790523690773,0.01033013552603237,
0.0006982543640897755,0.011784743213567185,
0.0007481296758104738,-0.005720174632185215,
0.0007980049875311721,-0.007964628117388343,
0.0008478802992518703,-0.00039652695539706476,
0.0008977556109725686,0.005153623400595601,
0.0009476309226932668,0.01957868332297877,
0.000997506234413965,0.007160076909664545,
0.0010473815461346633,0.03370278449486404,
0.0010972568578553616,-0.0018903702444629596,
0.00114713216957606,-0.005179653978279124,
0.001197007481296758,-0.010281372941895616,
0.0012468827930174563,0.016617641662447474,
0.0012967581047381546,0.0068230457203452225,
0.001346633416458853,-0.018606542343941653,
0.001396508728179551,0.009141404163678852,
0.0014463840399002493,0.004750791315502565,
0.0014962593516209476,0.0012836853822877682,
0.001546134663341646,0.001963746478473429,
0.0015960099750623442,-0.017418178440547247,
0.0016458852867830423,0.0009273581096138618,
0.0016957605985037406,-0.008753026897390645,
0.001745635910224439,0.003160726322145409,
0.0017955112219451373,-0.05070970204964254,
0.0018453865336658353,0.014816381218289711,
0.0018952618453865336,-0.0011953923737722146,
0.001945137157107232,0.0032496824293071153,
0.00199501246882793,0.009983364964821054,
0.0020448877805486283,-0.019029210354916823,
0.0020947630922693266,0.014461140268699416,
0.002144638403990025,0.0056986670388346275,
0.0021945137157107233,-0.014406750234887078,
0.0022443890274314216,0.008285903198881353,
0.00229426433915212,0.020123885926691544,
0.0023441396508728177,-0.0001199092418462987,
0.002394014962593516,-0.036351516744414,
0.0024438902743142144,-0.027201420007165227,
0.0024937655860349127,0.009271835101276594,
0.002543640897755611,-0.007078167807015664,
0.0025935162094763093,-0.004923942751487939,
0.0026433915211970076,-0.004810738842896058,
0.002693266832917706,-0.014291378765335127,
0.002743142144638404,-0.005968889672335735,
0.002793017456359102,0.0025654994583184697,
0.0028428927680798004,-0.021429355000298803,
0.0028927680798004987,-0.0032375469844667304,
0.002942643391521197,0.007360191183355236,
0.0029925187032418953,-0.0018474553848102041,
0.0030423940149625936,0.016499603652661548,
0.003092269326683292,-0.015714384208032395,
0.00314214463840399,-0.02111522201525863,
0.0031920199501246885,-0.02311190101198582,
0.0032418952618453864,-0.0220090477536631,
0.0032917705735660847,-0.03458395010415363,
0.003341645885286783,-0.008284497018155146,
0.0033915211970074813,0.0008134953957526572,
0.0034413965087281796,-0.016759807588176818,
0.003491271820448878,0.018022868154687968,
0.003541147132169576,-0.010979474678285653,
0.0035910224438902745,-0.02912535671408449,
0.0036408977556109724,-0.019133197217344924,
0.0036907730673316707,-0.012182313040592476,
0.003740648379052369,-0.007456014081687096,
0.0037905236907730673,-0.003539654349393939,
0.0038403990024937656,-0.03677804523692934,
0.003890274314214464,0.002071992799515315,
0.003940149625935162,-0.016088825185634006,
0.00399002493765586,-0.012489929956984244,
0.004039900249376558,-0.022158456539496316,
0.004089775561097257,-0.03269190277678972,
0.004139650872817955,-0.013695333718159564,
0.004189526184538653,0.004171820513160472,
0.004239401496259352,-0.011910875578421489,
0.00428927680798005,-5.928004036643772e-05,
0.004339152119700748,-0.017726478691671693,
0.0043890274314214465,-0.019708947644569645,
0.004438902743142145,-0.005554300386054513,
0.004488778054862843,-0.005761887343606355,
0.004538653366583541,-0.014583292670765914,
0.00458852867830424,-0.03538844587635847,
0.004638403990024938,-0.0231538881894162,
0.0046882793017456355,-0.020197829792139913,
0.004738154613466334,-0.017874487070925038,
0.004788029925187032,-0.016075280127455696,
0.00483790523690773,0.011909662873824008,
0.004887780548628429,-0.010053750886665304,
0.004937655860349127,0.007633975006835759,
0.004987531172069825,-0.02317655459299991,
0.005037406483790524,-0.014360153994916507,
0.005087281795511222,-0.018360192602469756,
0.00513715710723192,-0.009755715530629126,
0.0051870324189526185,-0.03308260588899971,
0.005236907730673317,-0.03055539310106142,
0.005286783042394015,-0.03832623172233997,
0.0053366583541147134,-0.04603568515359986,
0.005386533665835412,-0.013879385817656277,
0.00543640897755611,-0.05446087919438652,
0.005486284289276808,-0.01751852783723909,
0.005536159600997507,-0.02181740621465096,
0.005586034912718204,0.0029282931749817394,
0.005635910224438902,-0.01282416678195203,
0.005685785536159601,0.0009712127049074162,
0.005735660847880299,-0.008882148901396852,
0.005785536159600997,-0.023060586523937582,
0.005835411471321696,-0.002041579149189846,
0.005885286783042394,-0.0022727678597683557,
0.005935162094763092,-0.023545342281621626,
0.0059850374064837905,-0.03761740635398355,
0.006034912718204489,-0.02330698970040507,
0.006084788029925187,-0.04016002623338117,
0.0061346633416458855,-0.010651824208674892,
0.006184538653366584,0.004557344012860232,
0.006234413965087282,-0.032179116173674485,
0.00628428927680798,-0.01180849728467756,
0.006334164588528679,-0.030625233755566722,
0.006384039900249377,0.0001672981702628487,
0.006433915211970074,-0.02857667490715618,
0.006483790523690773,-0.038846642962445485,
0.006533665835411471,0.012468754449158792,
0.006583541147132169,-0.012475405349462813,
0.006633416458852868,-0.03198198369391981,
0.006683291770573566,-0.033818988340795074,
0.006733167082294264,-0.03822256265732162,
0.0067830423940149626,-0.00994716433724981,
0.006832917705735661,-0.03159668131864151,
0.006882793017456359,-0.02088041148893462,
0.0069326683291770575,0.01052153227633134,
0.006982543640897756,0.0059965937982915385,
0.007032418952618454,-0.04718086565458722,
0.007082294264339152,-0.049273109025302804,
0.007132169576059851,-0.010782904937566609,
0.007182044887780549,-0.02763038183542184,
0.007231920199501247,-0.0056733778246462335,
0.007281795511221945,-0.02114870928582303,
0.007331670822942643,-0.015256611381509761,
0.007381546134663341,-0.0287070984262666,
0.00743142144638404,-0.013095263692961684,
0.007481296758104738,-0.023237522926237715,
0.007531172069825436,-0.0442226584296679,
0.007581047381546135,-0.02221802963878648,
0.007630922693266833,0.004141775295765149,
0.007680798004987531,-0.011508680707101277,
0.0077306733167082295,-0.0007981019596546984,
0.007780548628428928,-0.001808911660207857,
0.007830423940149626,0.0045812016385001104,
0.007880299251870324,-0.027003828267533295,
0.007930174563591023,-0.033432419872337006,
0.00798004987531172,-0.010145117663073362,
0.00802992518703242,-0.010343640591140207,
0.008079800498753117,-0.015167514402753438,
0.008129675810473816,-0.007737757051085075,
0.008179551122194513,-0.010577007345144936,
0.008229426433915213,-0.02361320541027883,
0.00827930174563591,-0.011431990836365934,
0.00832917705735661,-0.06061424825359198,
0.008379052369077307,0.009911228799120368,
0.008428927680798006,-0.017177192120715726,
0.008478802992518703,-0.03288927486857574,
0.0085286783042394,-0.004293037334707683,
0.0085785536159601,-0.023345637763646652,
0.008628428927680797,0.004030547226263819,
0.008678304239401496,-0.0005993222355648795,
0.008728179551122194,-0.029365829996943822,
0.008778054862842893,-0.019920022011983216,
0.00882793017456359,-0.03823859425767444,
0.00887780548628429,-0.0029319070834819255,
0.008927680798004987,-0.019992531712182637,
0.008977556109725686,-0.013156523435082555,
0.009027431421446384,-0.029729231777527274,
0.009077306733167083,0.009896438507214542,
0.00912718204488778,-0.03256588160123966,
0.00917705735660848,-0.0260317024571772,
0.009226932668329177,0.014400724704786434,
0.009276807980049876,-0.038405978751143544,
0.009326683291770574,-0.03176133908727076,
0.009376558603491271,-0.009996163732470914,
0.00942643391521197,-0.014144145968040915,
0.009476309226932668,0.02243313809366492,
0.009526184538653367,-0.015896471236165888,
0.009576059850374064,-0.04148985318870968,
0.009625935162094763,0.0014542591070036675,
0.00967581047381546,0.0025323834536114948,
0.00972568578553616,-0.02321286755317538,
0.009775561097256857,0.0033029214765957476,
0.009825436408977557,-0.02110076118405872,
0.009875311720698254,-0.028697282241081923,
0.009925187032418953,-0.007479010384270235,
0.00997506234413965,-0.03338575119599825,
0.01002493765586035,0.01691064802292488,
0.010074812967581047,0.0073036879586231805,
0.010124688279301746,-0.015228712100756985,
0.010174563591022444,-0.005937441483737543,
0.010224438902743141,0.01588022299301914,
0.01027431421446384,0.013316779756771825,
0.010324189526184538,-0.0009663126687390966,
0.010374064837905237,0.006448739922758569,
0.010423940149625935,0.015335384326034963,
0.010473815461346634,0.0008544992696899066,
0.010523690773067331,-0.008105178418501011,
0.01057356608478803,0.0028906991735083614,
0.010623441396508728,-0.004191259781500359,
0.010673316708229427,-0.005516695451812176,
0.010723192019950124,-0.014708945148005283,
0.010773067331670824,-0.008328151633598437,
0.010822942643391521,-0.0037472942174826564,
0.01087281795511222,-0.009319587152933479,
0.010922693266832918,0.01009339591487926,
0.010972568578553617,0.004547448059314812,
0.011022443890274314,0.014167948219082191,
0.011072319201995013,-0.014806241170713587,
0.01112219451371571,-0.011777913239960592,
0.011172069825436408,0.008560654226083594,
0.011221945137157107,-0.012326384151793749,
0.011271820448877805,-0.005928910899125176,
0.011321695760598504,-0.021029120945700523,
0.011371571072319201,-0.005831044802121283,
0.0114214463840399,0.013042395787873985,
0.011471321695760598,0.004339708426316359,
0.011521197007481297,0.012735163150932271,
0.011571072319201995,0.012404461948722894,
0.011620947630922694,0.006853699427881367,
0.011670822942643391,-0.012694879236881925,
0.01172069825436409,-0.001541691806174749,
0.011770573566084788,0.00702580132970514,
0.011820448877805487,-0.006767592383986056,
0.011870324189526184,-0.02270530275002674,
0.011920199501246884,-0.015564484559282311,
0.011970074812967581,-0.0036347817602984333,
0.012019950124688279,-0.010374482865677,
0.012069825436408978,-0.003446087181152906,
0.012119700748129675,-0.013103631520615257,
0.012169576059850374,0.002741291133470231,
0.012219451371571072,0.012059700780403504,
0.012269326683291771,-0.016451822610750132,
0.012319201995012468,-0.006016459860112533,
0.012369077306733168,0.014032602007372219,
0.012418952618453865,0.041228436054275806,
0.012468827930174564,0.0252978739064161,
0.012518703241895262,0.03333127686390298,
0.01256857855361596,-0.013015830840433295,
0.012618453865336658,-0.016662349968561,
0.012668329177057357,0.0019695980360077787,
0.012718204488778055,-0.001933781790569719,
0.012768079800498754,-0.01815269539148652,
0.012817955112219451,-0.001289422519049713,
0.012867830423940149,-0.00011077350725873653,
0.012917705735660848,0.015446433835783573,
0.012967581047381545,-0.019150908632259767,
0.013017456359102245,0.03508449394947357,
0.013067331670822942,0.0325415935078954,
0.013117206982543641,0.019911420396427244,
0.013167082294264339,-0.005547061637702055,
0.013216957605985038,0.0002732551145418864,
0.013266832917705735,0.019271156056813624,
0.013316708229426434,0.016629625392210877,
0.013366583541147132,0.009997413183382306,
0.013416458852867831,-0.0013576657246563775,
0.013466334164588529,0.006558895807509643,
0.013516209476309228,0.01831054550920764,
0.013566084788029925,0.010957256116734882,
0.013615960099750624,0.0015169833773053323,
0.013665835411471322,0.015130676508533687,
0.01371571072319202,0.01284775303694282,
0.013765586034912718,0.01806577053531527,
0.013815461346633416,0.0045832437038029125,
0.013865336658354115,0.03272181491291977,
0.013915211970074812,0.0037536950535684514,
0.013965087281795512,0.005100911110207879,
0.014014962593516209,0.03247222143731543,
0.014064837905236908,0.012680596353940846,
0.014114713216957606,-0.009034410961733928,
0.014164588528678305,-0.003796189611728465,
0.014214463840399002,-0.01149270743881561,
0.014264339152119701,0.00692264681739959,
0.014314214463840399,0.023463446011971065,
0.014364089775561098,0.026968043263383527,
0.014413965087281795,0.020083954776513292,
0.014463840399002495,0.037263521937994946,
0.014513715710723192,0.04678525016513545,
0.01456359102244389,-0.002297649920412058,
0.014613466334164589,0.008173023492334322,
0.014663341645885286,-0.0034304025078557565,
0.014713216957605985,-0.0036629565122387533,
0.014763092269326683,0.003398144689927697,
0.014812967581047382,-0.002303540971360811,
0.01486284289276808,0.01681930892043828,
0.014912718204488778,0.014248711973387469,
0.014962593516209476,0.014634094713344639,
0.015012468827930175,-0.01712704754138388,
0.015062344139650873,0.02290442224615258,
0.015112219451371572,0.04565436591890887,
0.01516209476309227,0.015169385588594047,
0.015211970074812968,0.009055275250849489,
0.015261845386533666,0.036353531521187823,
0.015311720698254365,0.007211616648763741,
0.015361596009975062,0.03837916335866566,
0.01541147132169576,0.026023277684442143,
0.015461346633416459,0.009463190741886491,
0.015511221945137156,0.007453645972422837,
0.015561097256857856,0.0334392448834996,
0.015610972568578553,0.013337649143859919,
0.015660847880299252,0.036233498997086465,
0.01571072319201995,0.018643156069310593,
0.015760598503740647,0.008500125151498554,
0.015810473815461346,0.02125884788030129,
0.015860349127182045,0.00654412496466889,
0.015910224438902745,0.025968663879693907,
0.01596009975062344,0.042159038280882036,
0.01600997506234414,0.01239298379170023,
0.01605985037406484,0.006628449564533335,
0.016109725685785538,0.03026078521650018,
0.016159600997506234,0.03465073419721973,
0.016209476309226933,0.0077442138671516315,
0.016259351620947632,0.030342483080462203,
0.016309226932668328,-0.003857555956342233,
0.016359102244389027,0.026740096074163652,
0.016408977556109726,0.026260561793825486,
0.016458852867830425,0.006816626916665619,
0.01650872817955112,0.015138461162185753,
0.01655860349127182,-0.0012371166840325215,
0.01660847880299252,0.008825806504088733,
0.01665835411471322,0.006148444658398861,
0.016708229426433914,0.02120147409919407,
0.016758104738154613,-0.005462421150790344,
0.016807980049875312,0.027313508348914304,
0.01685785536159601,0.008161254032486243,
0.016907730673316707,0.01815631306788262,
0.016957605985037406,0.0118132376675614,
0.017007481296758106,-0.007310641186758254,
0.0170573566084788,0.0024740407461217064,
0.0171072319201995,0.01045495723353134,
0.0171571072319202,0.027022126538328566,
0.0172069825436409,0.010368244059003526,
0.017256857855361595,0.04462125084867359,
0.017306733167082294,0.02966761212064463,
0.017356608478802993,0.0237771523667277,
0.017406483790523692,0.03387394455287169,
0.017456359102244388,0.019657594894098997,
0.017506234413965087,0.018067041195379347,
0.017556109725685786,0.002863058264450352,
0.017605985037406485,0.01963109944603469,
0.01765586034912718,0.019641259799116968,
0.01770573566084788,0.0403246095159561,
0.01775561097256858,-0.01505697561154878,
0.01780548628428928,0.004611040542673488,
0.017855361596009974,0.02104552163732104,
0.017905236907730673,0.027349070307634976,
0.017955112219451373,0.013435640757770512,
0.018004987531172068,0.02420217580955756,
0.018054862842892767,0.016290865743992064,
0.018104738154613467,-0.002558921997255381,
0.018154613466334166,0.0321197402679654,
0.01820448877805486,0.034485471467527756,
0.01825436408977556,0.02892472813345969,
0.01830423940149626,0.04629817083735431,
0.01835411471321696,0.03741639713247087,
0.018403990024937655,0.018977470671055905,
0.018453865336658354,0.008908667778928393,
0.018503740648379053,0.017561368510790036,
0.018553615960099752,0.0204458177847504,
0.018603491271820448,0.014784429403883534,
0.018653366583541147,-0.0009303746774775717,
0.018703241895261846,0.0184809502230169,
0.018753117206982542,-0.008705998365314913,
0.01880299251870324,0.01654240017433763,
0.01885286783042394,0.021617645694850505,
0.01890274314214464,-0.0036224089631043226,
0.018952618453865335,0.007043384494876983,
0.019002493765586034,0.035795862156750805,
0.019052369077306733,-0.015694363249180523,
0.019102244389027433,0.007760631334965842,
0.01915211970074813,0.004654109415783248,
0.019201995012468828,0.015610671854427619,
0.019251870324189527,0.03332982152882656,
0.019301745635910226,0.02378146498611624,
0.01935162094763092,0.01334007562311204,
0.01940149625935162,0.009396266254139387,
0.01945137157107232,-0.007416039739248677,
0.01950124688279302,0.02969361642284629,
0.019551122194513715,0.010709312162871108,
0.019600997506234414,-0.0006536440599970994,
0.019650872817955113,0.0196834715544767,
0.01970074812967581,0.03881676153170532,
0.019750623441396508,0.023717464981888533,
0.019800498753117207,0.0013444588625370919,
0.019850374064837906,0.0066695052428473785,
0.019900249376558602,0.003633210063237125,
0.0199501246882793,0.019865508940742425,
0.02,0.009263585846778017,
0.0200498753117207,0.023705318780332635,
0.020099750623441395,-0.008501329677412845,
0.020149625935162094,0.01266430349567359,
0.020199501246882794,-0.019359235901458934,
0.020249376558603493,0.035207238905113125,
0.02029925187032419,0.014077677188140417,
0.020349127182044888,0.014035861276739333,
0.020399002493765587,0.005596293488888941,
0.020448877805486283,-0.019697767409263253,
0.02049875311720698,0.006419882954756515,
0.02054862842892768,0.019352534771019246,
0.02059850374064838,0.00635333042492583,
0.020648379052369076,0.009868005102583486,
0.020698254364089775,0.01116014768525658,
0.020748129675810474,-0.0066180660583710195,
0.020798004987531173,-0.0005617996055427114,
0.02084788029925187,-0.003286582400379741,
0.020897755610972568,0.042041487486642645,
0.020947630922693267,0.014546643292467023,
0.020997506234413967,-0.014979564829169595,
0.021047381546134662,0.023923887126882346,
0.02109725685785536,0.001996879411727309,
0.02114713216957606,-0.007307706440199974,
0.02119700748129676,0.005369155769550861,
0.021246882793017455,-0.007777614235731109,
0.021296758104738155,0.019586052689960904,
0.021346633416458854,0.021798807041107475,
0.02139650872817955,0.0176242093118018,
0.02144638403990025,-0.009791860551304305,
0.021496259351620948,-0.0018051882637605738,
0.021546134663341647,-0.0007929427511309253,
0.021596009975062343,-0.008438304094486681,
0.021645885286783042,0.00987246095513306,
0.02169576059850374,-0.04401843447595466,
0.02174563591022444,-0.002131509888332766,
0.021795511221945136,0.0057314532862871494,
0.021845386533665835,-0.015051027410910958,
0.021895261845386534,-0.016896558405594016,
0.021945137157107233,0.0037850262077408882,
0.02199501246882793,0.008962148422820383,
0.02204488778054863,-0.019605840235722937,
0.022094763092269327,-0.0220681294757506,
0.022144638403990027,-0.012289982434245117,
0.022194513715710722,0.0014661757985929378,
0.02224438902743142,-0.0004639685426482212,
0.02229426433915212,-0.022240935893072498,
0.022344139650872816,-0.016572728113512847,
0.022394014962593516,-0.02786795569478734,
0.022443890274314215,0.005905412183370779,
0.022493765586034914,-0.009682402060783711,
0.02254364089775561,-0.019833821017131707,
0.02259351620947631,-0.021302107322211074,
0.022643391521197008,-0.018766290037864147,
0.022693266832917707,-0.03081929097967185,
0.022743142144638403,-0.018338117570528195,
0.022793017456359102,-0.005442130608701249,
0.0228428927680798,-0.03843986494621232,
0.0228927680798005,-0.03110067969771569,
0.022942643391521196,-0.023900992986095805,
0.022992518703241895,-0.010615872278377628,
0.023042394014962594,-0.025255479163764825,
0.02309226932668329,-0.003971817511790635,
0.02314214463840399,-0.01700319309112339,
0.02319201995012469,0.0036985848859756865,
0.023241895261845388,-0.01577314197664164,
0.023291770573566083,0.0037851114077451734,
0.023341645885286783,-0.027865129846634924,
0.02339152119700748,0.006362178235436399,
0.02344139650872818,-0.014004799056421218,
0.023491271820448877,-0.0036020515369226845,
0.023541147132169576,0.002023441351241769,
0.023591022443890275,-0.019672932110492338,
0.023640897755610974,-0.016764615095232888,
0.02369077306733167,0.006183349547005126,
0.02374064837905237,-0.0423568889116333,
0.023790523690773068,0.0023965465355587773,
0.023840399002493767,0.01699837311754155,
0.023890274314214463,-0.03592347394940061,
0.023940149625935162,-0.004685622495164483,
0.02399002493765586,0.0011342455477668326,
0.024039900249376557,-0.007982002624176763,
0.024089775561097256,-0.019011341536841156,
0.024139650872817955,-0.010571340919321744,
0.024189526184538655,-0.0210736164968751,
0.02423940149625935,-0.019582843124996373,
0.02428927680798005,0.021312752870205266,
0.02433915211970075,-0.03080773774680537,
0.024389027431421448,0.016826548004133805,
0.024438902743142144,-0.0074370261032697576,
0.024488778054862843,-0.001920208137642411,
0.024538653366583542,-0.02084400640924242,
0.02458852867830424,-0.010741931452453609,
0.024638403990024937,-0.008077952132498012,
0.024688279301745636,-0.021495323635548475,
0.024738154613466335,-0.040070178648255524,
0.02478802992518703,-0.01556708178203864,
0.02483790523690773,-0.025263760549376263,
0.02488778054862843,-0.014341932281474757,
0.02493765586034913,-0.04205705061853646,
0.024987531172069824,-0.00888820245639,
0.025037406483790523,-0.003213063354301408,
0.025087281795511222,-0.010357736126748087,
0.02513715710723192,0.0012392420841361718,
0.025187032418952617,-0.007669631525475925,
0.025236907730673316,-0.016689310107883343,
0.025286783042394016,-0.019007244124923932,
0.025336658354114715,-0.0159832770178403,
0.02538653366583541,-0.022674202420117258,
0.02543640897755611,-0.010374035970545266,
0.02548628428927681,0.003862954048318594,
0.025536159600997508,-0.019488778990521465,
0.025586034912718204,-0.024430468131407708,
0.025635910224438903,-0.01985077975939291,
0.025685785536159602,-0.013625838105727062,
0.025735660847880298,-0.011183132101174102,
0.025785536159600997,-0.019240374364380586,
0.025835411471321696,-0.01579612989785425,
0.025885286783042395,-0.005704374404819995,
0.02593516209476309,0.006725282208656667,
0.02598503740648379,-0.04035808459859969,
0.02603491271820449,-0.018305082434501897,
0.02608478802992519,-0.025999833544234387,
0.026134663341645884,-0.017919605708545675,
0.026184538653366583,-0.039744351381569926,
0.026234413965087282,-0.021645501275942444,
0.02628428927680798,-0.004292812914387486,
0.026334164588528677,-0.009192217927120829,
0.026384039900249377,0.0012858422557677739,
0.026433915211970076,0.006521766149716064,
0.02648379052369077,-0.007175509257940384,
0.02653366583541147,-0.00146090519437711,
0.02658354114713217,-0.03431094431861517,
0.02663341645885287,-0.03405336142227143,
0.026683291770573565,-0.01957919499480638,
0.026733167082294264,-0.009219121742709493,
0.026783042394014963,-0.018303878748451397,
0.026832917705735662,-0.003187379266154174,
0.026882793017456358,-0.02524236055969474,
0.026932668329177057,-0.031593298459863466,
0.026982543640897756,-0.016843305757497685,
0.027032418952618455,-0.032598162923051295,
0.02708229426433915,0.006230005187377263,
0.02713216957605985,-0.012964314763137814,
0.02718204488778055,-0.026533026898352144,
0.02723192019950125,-0.02477805123893445,
0.027281795511221944,-0.014580208743640652,
0.027331670822942643,-0.012517586918485535,
0.027381546134663343,-0.037404853660008355,
0.02743142144638404,0.0026032493941102637,
0.027481296758104738,-0.02569981553850929,
0.027531172069825437,-0.00781986250151759,
0.027581047381546136,-0.04390773443700058,
0.02763092269326683,-0.03223551677477575,
0.02768079800498753,-0.002349109180046072,
0.02773067331670823,-0.02552793539491295,
0.02778054862842893,-0.0492227418908264,
0.027830423940149625,-0.024708980872701937,
0.027880299251870324,-0.043807483992013826,
0.027930174563591023,-0.011964421966374702,
0.027980049875311722,0.001245053553336723,
0.028029925187032418,0.010097382717598077,
0.028079800498753117,-0.029947516469200165,
0.028129675810473816,-0.03561887981322509,
0.028179551122194512,-0.02496713847898547,
0.02822942643391521,0.012884782428485484,
0.02827930174563591,-0.033414768034946196,
0.02832917705735661,-0.031880296719454984,
0.028379052369077305,0.006899155968880754,
0.028428927680798004,-0.03309494735286526,
0.028478802992518704,-0.022164111026296625,
0.028528678304239403,0.012832868936626695,
0.0285785536159601,-0.03141300603311343,
0.028628428927680798,-0.011879171124226392,
0.028678304239401497,-0.015230480586386624,
0.028728179551122196,-0.01862000593481635,
0.02877805486284289,-0.024726440507518967,
0.02882793017456359,-0.017520624895093633,
0.02887780548628429,0.009638627633962296,
0.02892768079800499,-0.007769602080107616,
0.028977556109725685,-0.008606168713651411,
0.029027431421446384,-0.015167889188432175,
0.029077306733167083,-0.03503770700196558,
0.02912718204488778,-0.04267359060202536,
0.029177057356608478,0.0030295279766954907,
0.029226932668329177,-0.017994916691311078,
0.029276807980049877,-0.0357867712745039,
0.029326683291770572,-0.009131146401353608,
0.02937655860349127,0.01861330235441009,
0.02942643391521197,-0.01118899043399785,
0.02947630922693267,-0.040782806424060514,
0.029526184538653365,-0.012906988812247087,
0.029576059850374065,-0.037133518410058845,
0.029625935162094764,0.0017797562703912358,
0.029675810473815463,0.014392162240320291,
0.02972568578553616,-0.013507125271193108,
0.029775561097256858,-0.030994289537155325,
0.029825436408977557,-0.019375557563499037,
0.029875311720698253,-0.013382927504677752,
0.029925187032418952,-0.023174835284972075,
0.02997506234413965,0.001573625233621076,
0.03002493765586035,0.010195010123616906,
0.030074812967581046,-0.029886206052185036,
0.030124688279301745,-0.006848274600714487,
0.030174563591022444,-0.01718982196574864,
0.030224438902743143,-0.0068751146002479935,
0.03027431421446384,-0.004686920917871454,
0.03032418952618454,-0.010600173708118554,
0.030374064837905237,0.007895377634711665,
0.030423940149625937,-0.008900766858962463,
0.030473815461346632,0.0016326577672139573,
0.03052369077306733,0.015986905660439796,
0.03057356608478803,-0.011180711624420683,
0.03062344139650873,-0.003791515226809176,
0.030673316708229426,0.02049885054209965,
0.030723192019950125,-0.005187740778530748,
0.030773067331670824,0.0059444343613139685,
0.03082294264339152,-0.02473353162634091,
0.03087281795511222,-0.0059309110485333775,
0.030922693266832918,-0.004126740143375836,
0.030972568578553617,0.007131260996951146,
0.031022443890274313,2.4941972032269675e-05,
0.031072319201995012,0.0023932472074301887,
0.03112219451371571,0.015520476233823324,
0.03117206982543641,-0.02225360186592352,
0.031221945137157106,0.0078166281958751,
0.03127182044887781,-0.021729289553795307,
0.031321695760598504,0.008397978067728363,
0.0313715710723192,0.01434149530827668,
0.0314214463840399,-0.01543802100602713,
0.0314713216957606,-0.01407585254710989,
0.031521197007481294,0.018716172858267113,
0.031571072319202,0.00896035185972138,
0.03162094763092269,-0.005209133713137982,
0.03167082294264339,0.021686624873483176,
0.03172069825436409,-0.006666350301411376,
0.03177057356608479,0.03296909449867293,
0.03182044887780549,-0.0089074934920793,
0.031870324189526185,-0.003326350533822197,
0.03192019950124688,0.004268284396024755,
0.03197007481296758,0.004178901660508612,
0.03201995012468828,0.007734428606008899,
0.032069825436408975,-0.0039443743329439125,
0.03211970074812968,0.0073431892970136315,
0.03216957605985037,-0.014601550234853222,
0.032219451371571076,0.004945633750359205,
0.03226932668329177,0.03237492326127174,
0.03231920199501247,0.02065756788711144,
0.03236907730673317,0.016782325786880756,
0.032418952618453865,0.00923695377436337,
0.03246882793017456,0.010570626705684937,
0.032518703241895264,0.0068230526250772595,
0.03256857855361596,0.013629166779312522,
0.032618453865336655,0.008594904431056654,
0.03266832917705736,-0.014568365231008362,
0.032718204488778053,-0.006672025910342959,
0.032768079800498756,0.009919252173382014,
0.03281795511221945,0.03951741073641823,
0.03286783042394015,0.009122207511950996,
0.03291770573566085,0.025597482364281665,
0.032967581047381546,-0.013313049107061598,
0.03301745635910224,0.017075878900160824,
0.033067331670822944,0.006123172737218069,
0.03311720698254364,-0.015199381025602803,
0.03316708229426434,-0.016334058068551177,
0.03321695760598504,0.011461142312105392,
0.033266832917705734,-0.009232665887665142,
0.03331670822942644,0.010376300631437269,
0.03336658354114713,0.01577288388731201,
0.03341645885286783,-0.0036398530850932174,
0.03346633416458853,0.020883907301107115,
0.033516209476309226,0.028682736462464838,
0.03356608478802992,-0.008179978590750543,
0.033615960099750625,0.0319435614889436,
0.03366583541147132,0.027037433977040233,
0.03371571072319202,-0.00016705577405346818,
0.03376558603491272,0.032894081098481354,
0.033815461346633414,0.007852974704965782,
0.03386533665835412,0.030181980533424024,
0.03391521197007481,0.025861715660907794,
0.03396508728179551,-0.00648078591326395,
0.03401496259351621,-0.0024170445145288884,
0.03406483790523691,0.03376904673633972,
0.0341147132169576,-0.013956952142611154,
0.034164588528678305,0.026191786702349805,
0.034214463840399,-0.0022833432117432793,
0.034264339152119704,0.014874445831245078,
0.0343142144638404,0.011165787731626898,
0.034364089775561095,0.02358140812691752,
0.0344139650872818,0.02951719356855649,
0.03446384039900249,-0.01764184379911946,
0.03451371571072319,0.03705366248174151,
0.03456359102244389,0.014197752376021368,
0.03461346633416459,0.026909414243396802,
0.03466334164588529,0.032007220940060116,
0.034713216957605986,0.0013885030503609196,
0.03476309226932668,0.04818134086133528,
0.034812967581047384,0.022072947496351383,
0.03486284289276808,0.015429916869756862,
0.034912718204488775,0.000977312987691572,
0.03496259351620948,0.009170702220121271,
0.035012468827930174,0.03634052473288171,
0.03506234413965087,0.020537785886559624,
0.03511221945137157,0.029473999334082766,
0.03516209476309227,0.01139991903427974,
0.03521197007481297,0.013053209293569581,
0.035261845386533666,-0.0065357104346972575,
0.03531172069825436,0.004672069821168624,
0.035361596009975065,0.01882093585174198,
0.03541147132169576,0.040108555689619185,
0.035461346633416456,0.02904193758369966,
0.03551122194513716,-0.0036833044192748805,
0.035561097256857854,0.016118874286890607,
0.03561097256857856,0.022145137719443528,
0.03566084788029925,0.015799845188756927,
0.03571072319201995,0.006400226912795822,
0.03576059850374065,0.01487132350051122,
0.03581047381546135,0.019526629996385502,
0.03586034912718204,0.0247404019904062,
0.035910224438902745,0.0002587679809479444,
0.03596009975062344,0.011703505539993334,
0.036009975062344136,0.029670691671348975,
0.03605985037406484,0.0448849166650527,
0.036109725685785535,0.03612221487078436,
0.03615960099750624,0.026972648584441615,
0.03620947630922693,0.008980985442718288,
0.03625935162094763,0.02828750654268753,
0.03630922693266833,0.00836576853350653,
0.03635910224438903,0.02602217367662302,
0.03640897755610972,-0.002932257624068433,
0.036458852867830426,0.025784917232957383,
0.03650872817955112,0.034219844289717805,
0.036558603491271824,0.010761093684705056,
0.03660847880299252,0.03651679367041614,
0.036658354114713215,0.05658759697348917,
0.03670822942643392,0.00960706345167539,
0.036758104738154614,0.007225877125930723,
0.03680798004987531,0.027624199193663757,
0.03685785536159601,0.022335593805433616,
0.03690773067331671,0.03620710712455297,
0.0369576059850374,0.006823925768633832,
0.037007481296758106,0.03322033744388481,
0.0370573566084788,-0.0022184053893065103,
0.037107231920199504,0.010606673238657317,
0.0371571072319202,0.0111872575158725,
0.037206982543640896,0.009344417977994738,
0.0372568578553616,0.02103187048750157,
0.037306733167082294,0.023388497344288422,
0.03735660847880299,-0.027873297081043687,
0.03740648379052369,0.0189393677420876,
0.03745635910224439,0.00772687905473575,
0.037506234413965084,0.006521565376376524,
0.037556109725685786,0.007720790908691693,
0.03760598503740648,-0.011908650203879729,
0.037655860349127185,0.012011028403079143,
0.03770573566084788,-0.002092815256252184,
0.037755610972568576,0.0384555180025897,
0.03780548628428928,0.022131305576126383,
0.037855361596009975,0.03434570399100266,
0.03790523690773067,0.012898304248035451,
0.03795511221945137,0.004457693580152508,
0.03800498753117207,0.003402352352879525,
0.03805486284289277,0.0441204417363341,
0.03810473815461347,0.02387428726337871,
0.03815461346633416,0.003160522530855258,
0.038204488778054865,0.009505782076243315,
0.03825436408977556,0.03283164612053387,
0.03830423940149626,0.04148763814792291,
0.03835411471321696,0.03166562226314598,
0.038403990024937655,0.03350735691402213,
0.03845386533665835,0.013679140002546249,
0.03850374064837905,0.035502401144135706,
0.03855361596009975,0.03817261753664682,
0.03860349127182045,0.018556621712814265,
0.03865336658354115,0.026561345512524072,
0.03870324189526184,0.047340245044613406,
0.038753117206982546,0.037250069385114964,
0.03880299251870324,0.006858555833623249,
0.03885286783042394,0.005972085741077139,
0.03890274314214464,0.012450212834849223,
0.038952618453865336,0.025340062935247175,
0.03900249376558604,0.026087579518584786,
0.039052369077306734,0.027042908192662217,
0.03910224438902743,0.010745440047177751,
0.03915211970074813,0.010411841517480463,
0.03920199501246883,0.027730867829743513,
0.039251870324189524,0.013792363123651393,
0.039301745635910226,0.01978861739939276,
0.03935162094763092,0.029033015794976642,
0.03940149625935162,0.025657140652647348,
0.03945137157107232,0.0126685300968044,
0.039501246882793016,0.022987288880727975,
0.03955112219451372,0.015391656657349468,
0.039600997506234414,0.018576464755597554,
0.03965087281795511,0.002360090848321089,
0.03970074812967581,0.0343867906213628,
0.03975062344139651,-0.005978127549324934,
0.039800498753117204,0.011105136341917416,
0.03985037406483791,0.019936898194427087,
0.0399002493765586,0.0463872142890093,
0.039950124688279305,0.011627682775208205,
0.04,0.0020901682828948585,
0.0400498753117207,0.012694734648292494,
0.0400997506234414,0.024936646967302,
0.040149625935162095,-0.008894038391907598,
0.04019950124688279,0.013964893922417235,
0.04024937655860349,0.019507476464072374,
0.04029925187032419,0.02343793998479589,
0.040349127182044885,0.011516009315150275,
0.04039900249376559,0.012569330351767561,
0.04044887780548628,0.008616454953994077,
0.040498753117206986,-0.0006729602275332754,
0.04054862842892768,0.020613625613791646,
0.04059850374064838,0.011252762074916638,
0.04064837905236908,0.04502557549891547,
0.040698254364089775,0.022912011921434855,
0.04074812967581047,0.012986042986645378,
0.040798004987531174,0.013448005345917398,
0.04084788029925187,-0.013956100497017912,
0.040897755610972565,0.006705227058844566,
0.04094763092269327,0.03632181019889805,
0.04099750623441396,0.022189926948402203,
0.041047381546134666,-0.015768642850065465,
0.04109725685785536,-0.024181973800028827,
0.04114713216957606,0.0003158555324827145,
0.04119700748129676,-0.008353396057049312,
0.041246882793017456,0.029358589150141702,
0.04129675810473815,0.004577547445338063,
0.041346633416458854,-0.022101702883337564,
0.04139650872817955,-0.014963011580697568,
0.04144638403990025,0.018588256988282863,
0.04149625935162095,0.015574447818227758,
0.041546134663341644,-0.006645874446634866,
0.04159600997506235,0.02839385411455029,
0.04164588528678304,0.012195449591349532,
0.04169576059850374,-0.009477572162140572,
0.04174563591022444,0.01746079896839488,
0.041795511221945136,0.017865157821482815,
0.04184538653366583,0.022528955415718813,
0.041895261845386535,0.023503630819531683,
0.04194513715710723,-0.002222942353426929,
0.04199501246882793,0.0003409415263202289,
0.04204488778054863,0.008857544290810943,
0.042094763092269324,-0.010992881450319071,
0.04214463840399003,0.002311169241121961,
0.04219451371571072,0.00855641474588054,
0.04224438902743142,0.03038150706120883,
0.04229426433915212,-0.009869052341498988,
0.04234413965087282,-0.009232394221677884,
0.04239401496259352,-0.010432142932655505,
0.042443890274314215,-0.0030218297666165803,
0.04249376558603491,-0.005711673168634477,
0.042543640897755614,-0.022511448622339288,
0.04259351620947631,-0.00828204785100563,
0.042643391521197005,-0.02426254824554707,
0.04269326683291771,-0.029664539757932224,
0.0427431421446384,-0.010040985829683373,
0.0427930174563591,0.035950489887672514,
0.0428428927680798,-0.005447607948046479,
0.0428927680798005,0.005749551197023322,
0.0429426433915212,-0.019336904312951514,
0.042992518703241896,-0.0027637930904410536,
0.04304239401496259,0.0044684647079411164,
0.043092269326683294,-0.0037032295120827596,
0.04314214463840399,0.017370238328168825,
0.043192019950124685,-0.0064201153406492776,
0.04324189526184539,-0.008929976229886259,
0.043291770573566084,-0.008491076889077784,
0.043341645885286786,-0.014825963441294302,
0.04339152119700748,-0.0026784723430924584,
0.04344139650872818,-0.034309086852572133,
0.04349127182044888,-0.015136253354794398,
0.043541147132169576,0.0010738326412123717,
0.04359102244389027,-0.009569679852946374,
0.043640897755610975,0.0018759406928141233,
0.04369077306733167,-0.025357670118572442,
0.043740648379052366,-0.01500718167239732,
0.04379052369077307,0.003622414269975378,
0.043840399002493764,0.0008050154565060266,
0.04389027431421447,0.001976896859447113,
0.04394014962593516,-0.01542195392210069,
0.04399002493765586,-0.011225981991759585,
0.04403990024937656,-0.005306230017166439,
0.04408977556109726,-0.01248026764898429,
0.04413965087281795,-0.008300241182498239,
0.044189526184538655,-0.0194607909594237,
0.04423940149625935,-0.02051537019379642,
0.04428927680798005,-0.03311527321395928,
0.04433915211970075,-0.03524942974687545,
0.044389027431421445,-0.01916195869296783,
0.04443890274314215,0.0001896692949641919,
0.04448877805486284,-0.027470045500726896,
0.04453865336658354,-0.025666330215849513,
0.04458852867830424,-0.01762206152287147,
0.04463840399002494,-0.0055181750793505705,
0.04468827930174563,0.003481247273107807,
0.044738154613466335,-0.012976321443195563,
0.04478802992518703,-0.0446698458712301,
0.044837905236907734,-0.03318826708461067,
0.04488778054862843,-0.024989336687085157,
0.044937655860349125,-0.015298495348937118,
0.04498753117206983,-0.02594742672531844,
0.045037406483790524,-0.020385731577704617,
0.04508728179551122,-0.017965218063829926,
0.04513715710723192,0.013600927396046628,
0.04518703241895262,-0.003855913039826254,
0.04523690773067331,-0.009565003430866938,
0.045286783042394016,-0.01145152468359059,
0.04533665835411471,-0.017069791095233513,
0.045386533665835414,-0.0185834327832759,
0.04543640897755611,-0.02121173612181431,
0.045486284289276806,0.0063356823082218305,
0.04553615960099751,-0.019752504667172172,
0.045586034912718204,-0.018425238559077517,
0.0456359102244389,-0.013712708196586001,
0.0456857855361596,-0.028723970261092743,
0.0457356608478803,-0.02649586032721816,
0.045785536159601,-0.04016797514538564,
0.045835411471321696,-0.03591577295133628,
0.04588528678304239,-0.03660224194884566,
0.045935162094763095,-0.011295790925182455,
0.04598503740648379,-0.0026608750984136315,
0.046034912718204486,0.005034446178907286,
0.04608478802992519,-0.030797027693027813,
0.046134663341645885,-0.02693496850780671,
0.04618453865336658,-0.020950068289942777,
0.04623441396508728,-0.0009290239852681684,
0.04628428927680798,-0.029625102760463675,
0.04633416458852868,-0.02887985137805734,
0.04638403990024938,-0.0243517128138438,
0.04643391521197007,-0.0023707890946563365,
0.046483790523690775,-0.030755647854413815,
0.04653366583541147,-0.03969791803122621,
0.04658354114713217,-0.01720030844693303,
0.04663341645885287,-0.02672750869384015,
0.046683291770573565,-0.019506468634580297,
0.04673316708229427,-0.01820975032933891,
0.04678304239401496,-0.01318393930487813,
0.04683291770573566,0.004638098338669482,
0.04688279301745636,-0.007339030408933427,
0.04693266832917706,-0.024770304402549757,
0.04698254364089775,-0.023309095729289835,
0.047032418952618456,-0.010691021124142809,
0.04708229426433915,-0.01795946776200906,
0.04713216957605985,-0.009911833725507331,
0.04718204488778055,0.011640764082680208,
0.047231920199501246,-0.018896684507178914,
0.04728179551122195,-0.03286950581553294,
0.047331670822942644,-0.011363430310114817,
0.04738154613466334,-0.009727410332504238,
0.04743142144638404,-0.009142290818728832,
0.04748129675810474,-0.015528143125367462,
0.047531172069825434,-0.013338108316807219,
0.047581047381546136,-0.03643656036774321,
0.04763092269326683,-0.016145724270487067,
0.047680798004987535,0.004965225879644677,
0.04773067331670823,-0.028273504600735716,
0.047780548628428926,-0.03514854371989164,
0.04783042394014963,-0.03075295274373831,
0.047880299251870324,-6.116103415320685e-05,
0.04793017456359102,-0.03979338647602616,
0.04798004987531172,0.007862475756437788,
0.04802992518703242,-0.02372137812359256,
0.048079800498753114,-0.011530889729791716,
0.04812967581047382,0.005984021524664981,
0.04817955112219451,-0.007446134473296208,
0.048229426433915215,-0.018524522773309744,
0.04827930174563591,-0.01966533589557035,
0.048329177057356607,-0.01298269964941399,
0.04837905236907731,-0.015212841716978539,
0.048428927680798005,0.010021394870032105,
0.0484788029925187,-0.015759033259810557,
0.0485286783042394,-0.014610488291892966,
0.0485785536159601,-0.001833194762557503,
0.048628428927680795,-0.016729903052079578,
0.0486783042394015,-0.0010479544083659368,
0.04872817955112219,-0.0314257174267807,
0.048778054862842896,0.017198821571736002,
0.04882793017456359,-0.006503434898579054,
0.04887780548628429,-0.0007377790928967485,
0.04892768079800499,-0.016530557738917723,
0.048977556109725685,0.013576191055199773,
0.04902743142144638,0.029338266909553518,
0.049077306733167084,-0.00986745705435611,
0.04912718204488778,-0.007160616905299889,
0.04917705735660848,0.0001420086762264315,
0.04922693266832918,-0.015032415716874262,
0.04927680798004987,-0.02196805889702926,
0.049326683291770576,-0.0107439442863433,
0.04937655860349127,0.0007462995212665774,
0.04942643391521197,-0.01924225460173294,
0.04947630922693267,-0.03477750289031835,
0.049526184538653366,-0.010259522640040217,
0.04957605985037406,-0.011581781919228483,
0.049625935162094764,0.007234442022708027,
0.04967581047381546,-0.03348198575753726,
0.04972568578553616,-0.009543123457910325,
0.04977556109725686,0.004154165925535757,
0.049825436408977554,0.005053801824868774,
0.04987531172069826,0.006107901808453418,
0.04992518703241895,-0.013929128727281007,
0.04997506234413965,-0.0008766894958038753,
0.05002493765586035,-0.0011188898480222866,
0.050074812967581046,-0.00278495126533698,
0.05012468827930175,0.021953221737971828,
0.050174563591022445,-0.014439112778592996,
0.05022443890274314,-0.02245901372650103,
0.05027431421446384,0.006380429598982893,
0.05032418952618454,0.027424046075410626,
0.050374064837905234,-0.0168662919570384,
0.05042394014962594,-0.01845180611104494,
0.05047381546134663,0.023075734997330788,
0.05052369077306733,0.00905053461452968,
0.05057356608478803,-0.026792619858802644,
0.05062344139650873,0.004750709964693973,
0.05067331670822943,0.020898458273864096,
0.050723192019950125,-0.02354044346258112,
0.05077306733167082,0.026858357132407064,
0.050822942643391524,-0.0017537430997855998,
0.05087281795511222,-0.029086414856546252,
0.050922693266832915,-0.005179533088030325,
0.05097256857855362,0.03237368438421519,
0.05102244389027431,0.0037313273385977293,
0.051072319201995016,-0.010718402438638377,
0.05112219451371571,-0.01561577260720727,
0.05117206982543641,-0.0072819196692683105,
0.05122194513715711,0.00699088787062739,
0.051271820448877806,0.012823286308142223,
0.0513216957605985,0.006040094173289457,
0.051371571072319204,0.017477757013306873,
0.0514214463840399,0.012494149632547235,
0.051471321695760595,-0.012079745162463351,
0.0515211970074813,0.002220399660095743,
0.051571072319201994,-0.004469576574742345,
0.051620947630922696,-0.002589652683493814,
0.05167082294264339,-0.0009263937666192223,
0.05172069825436409,-0.003734959255863684,
0.05177057356608479,0.005050770132353026,
0.051820448877805486,-0.0076884101619516055,
0.05187032418952618,-0.005710819845220261,
0.051920199501246884,0.013131631905170266,
0.05197007481296758,-0.0019257567209855393,
0.052019950124688276,0.016226702441870446,
0.05206982543640898,0.01945852060748996,
0.052119700748129674,-0.010189448014686225,
0.05216957605985038,0.005751798501806059,
0.05221945137157107,0.018627480297657824,
0.05226932668329177,-0.015252325596623147,
0.05231920199501247,0.03482701834018438,
0.05236907730673317,-0.0111845686357676,
0.05241895261845386,0.0071107438636168335,
0.052468827930174565,0.02258132002290032,
0.05251870324189526,-0.033228986658547816,
0.05256857855361596,0.007994124020848562,
0.05261845386533666,0.004667483668476321,
0.052668329177057355,-0.009205614638607976,
0.05271820448877806,0.015090377098109925,
0.05276807980049875,0.006346223707380943,
0.05281795511221945,0.017113163417633914,
0.05286783042394015,-0.011001105660306681,
0.05291770573566085,0.006975377994558303,
0.05296758104738154,0.02317262014601013,
0.053017456359102245,0.0063141726822447015,
0.05306733167082294,0.026454756751192472,
0.053117206982543644,0.02201416590348919,
0.05316708229426434,0.017838349395493586,
0.053216957605985035,0.020857281681878975,
0.05326683291770574,0.02073921683362343,
0.053316708229426434,0.026313075600750628,
0.05336658354114713,0.009975067251324157,
0.05341645885286783,0.050569108587951606,
0.05346633416458853,0.026979324639999323,
0.05351620947630923,0.015644027414796376,
0.053566084788029926,0.0076395293280950415,
0.05361596009975062,0.004865654343078195,
0.053665835411471324,0.007435351524463877,
0.05371571072319202,0.02166068554160495,
0.053765586034912716,0.01230357069713452,
0.05381546134663342,0.002756772546243312,
0.053865336658354114,0.02837954355154742,
0.05391521197007481,0.012976782830958176,
0.05396508728179551,0.033663063212671186,
0.05401496259351621,-0.007024405339675414,
0.05406483790523691,0.007500060422824216,
0.054114713216957606,0.03598967193327175,
0.0541645885286783,-0.0013525456438218883,
0.054214463840399005,0.01683281357588874,
0.0542643391521197,0.00747671924208119,
0.054314214463840396,0.005208773516153264,
0.0543640897755611,0.002902201875201269,
0.054413965087281795,0.02554030670760172,
0.0544638403990025,0.013205048846610955,
0.05451371571072319,0.01227658106721975,
0.05456359102244389,0.03954846238895507,
0.05461346633416459,0.0003568053786631234,
0.05466334164588529,0.022187792633812067,
0.05471321695760598,-0.004160961730804151,
0.054763092269326685,0.026281637793040286,
0.05481296758104738,0.017790387205642643,
0.05486284289276808,0.004637493259843868,
0.05491271820448878,0.02114034838717741,
0.054962593516209475,0.022536050341121248,
0.05501246882793018,0.011279386233521533,
0.05506234413965087,0.02207435611982645,
0.05511221945137157,0.013023564291711913,
0.05516209476309227,0.01802087892839965,
0.05521197007481297,0.04411012830363789,
0.05526184538653366,0.0037059315051369383,
0.055311720698254366,-0.0005660754592902058,
0.05536159600997506,0.011093248055598533,
0.05541147132169576,0.047796416216356885,
0.05546134663341646,-0.0017061261607443402,
0.055511221945137156,0.034156792258486654,
0.05556109725685786,0.02585527165901615,
0.055610972568578554,0.04524170112211458,
0.05566084788029925,0.0246601321939719,
0.05571072319201995,0.029344645607540812,
0.05576059850374065,0.057753336775596395,
0.055810473815461344,0.04366679301492912,
0.055860349127182046,0.029177976236086617,
0.05591022443890274,0.021292861962286688,
0.055960099750623445,-0.0034616215263692553,
0.05600997506234414,0.02710709622777585,
0.056059850374064836,0.01434711204380985,
0.05610972568578554,0.031093944922467483,
0.056159600997506234,0.03388956802427915,
0.05620947630922693,0.015357256471279765,
0.05625935162094763,0.034253441402119014,
0.05630922693266833,0.02209824469618707,
0.056359102244389024,0.03062738628126698,
0.05640897755610973,0.03992860047261799,
0.05645885286783042,0.04671575301295178,
0.056508728179551125,0.0285981376214594,
0.05655860349127182,0.03023876915731035,
0.056608478802992516,-0.008818087489043572,
0.05665835411471322,0.021252951603737906,
0.056708229426433915,0.02666484756616335,
0.05675810473815461,0.01414979703480991,
0.05680798004987531,0.038695545593986885,
0.05685785536159601,0.02030900733823169,
0.05690773067331671,0.025620011582883406,
0.05695760598503741,0.00843222168692127,
0.0570074812967581,0.05612083487332019,
0.057057356608478806,0.05210712707674499,
0.0571072319201995,0.019080420921190007,
0.0571571072319202,0.022448931779945117,
0.0572069825436409,0.013065607637770153,
0.057256857855361595,0.03082487805308753,
0.05730673316708229,0.019460150778291583,
0.057356608478802994,0.041758591359166375,
0.05740648379052369,0.004382309383022236,
0.05745635910224439,0.013040366576392334,
0.05750623441396509,0.03432313170107201,
0.05755610972568578,0.028607590776849063,
0.057605985037406486,-0.007439981802571195,
0.05765586034912718,0.037188043982561564,
0.05770573566084788,0.022670820674024813,
0.05775561097256858,0.013571164038349235,
0.057805486284289276,0.005501538658519697,
0.05785536159600998,0.026938087865581467,
0.057905236907730674,0.004798923203302257,
0.05795511221945137,0.013599106451579121,
0.05800498753117207,-0.014753259294263028,
0.05805486284289277,-0.001218677321847366,
0.058104738154613464,0.01876295997260921,
0.05815461346633417,0.014903997436050018,
0.05820448877805486,0.02550749207975203,
0.05825436408977556,0.0030708909377616007,
0.05830423940149626,0.019871363137876914,
0.058354114713216956,0.022615168913814612,
0.05840399002493766,0.022867589345446977,
0.058453865336658355,0.011153398569604804,
0.05850374064837905,0.020012238432240318,
0.05855361596009975,0.032567215259219906,
0.05860349127182045,0.02625202659383901,
0.058653366583541144,0.01585823067509362,
0.05870324189526185,0.03697115368262916,
0.05875311720698254,0.019377086929032065,
0.05880299251870324,0.010108589947258908,
0.05885286783042394,0.011072344404110417,
0.05890274314214464,0.03387361240138868,
0.05895261845386534,-0.011963044159396068,
0.059002493765586035,0.021332271587331936,
0.05905236907730673,0.05152697703024093,
0.059102244389027433,0.0026027206932224232,
0.05915211970074813,0.02243153233196174,
0.059201995012468825,0.012529760713157458,
0.05925187032418953,0.03212315594713753,
0.05930174563591022,0.017193414861245426,
0.059351620947630926,0.031087029162206774,
0.05940149625935162,0.021402780377032676,
0.05945137157107232,0.006683326913929871,
0.05950124688279302,0.04865504606520245,
0.059551122194513716,0.011561721527964385,
0.05960099750623441,-0.013411311622359982,
0.059650872817955114,0.032975032181478584,
0.05970074812967581,0.02149871974472059,
0.059750623441396505,-0.004025011033457173,
0.05980049875311721,0.012846074538379106,
0.059850374064837904,0.0199431195953024,
0.059900249376558606,0.0311120615998354,
0.0599501246882793,0.013739828477606537,
0.06,0.008475311991529849,
0.0600498753117207,0.04164176725555614,
0.060099750623441396,0.012652000749930666,
0.06014962593516209,0.002213116599949879,
0.060199501246882794,-0.002137070363335894,
0.06024937655860349,0.011388375704912895,
0.06029925187032419,0.015386054490700534,
0.06034912718204489,0.002360306664898665,
0.060399002493765584,0.03764851163131023,
0.06044887780548629,-0.01176951356023153,
0.06049875311720698,0.011258308064073061,
0.06054862842892768,0.009734348132616536,
0.06059850374064838,0.030132471320375328,
0.06064837905236908,0.03135854289479926,
0.06069825436408977,-0.008231999598649339,
0.060748129675810475,0.018019930428085834,
0.06079800498753117,-0.01347885186219789,
0.06084788029925187,-0.010276829226283583,
0.06089775561097257,-0.001618084917938977,
0.060947630922693265,0.019032225773133734,
0.06099750623441397,0.0020635736919206995,
0.06104738154613466,-0.012465700133232276,
0.06109725685785536,0.024014893287618872,
0.06114713216957606,0.020931564487686898,
0.06119700748129676,0.0006440270702758816,
0.06124688279301746,0.04341174463995105,
0.061296758104738155,-0.004263027252369914,
0.06134663341645885,0.013438734314602215,
0.061396508728179554,0.005902579100902507,
0.06144638403990025,0.01265931087636802,
0.061496259351620945,-0.016721319243500864,
0.06154613466334165,0.010844612800109687,
0.061596009975062344,0.03325228054203351,
0.06164588528678304,-0.000848314930051706,
0.06169576059850374,0.008727808625239163,
0.06174563591022444,0.0011067025684133292,
0.06179551122194514,0.014745920953611505,
0.061845386533665836,-0.0065097558606611,
0.06189526184538653,0.0030900261837514677,
0.061945137157107234,-0.026282244076790483,
0.06199501246882793,0.013774346311276232,
0.062044887780548626,-0.0015860624151689752,
0.06209476309226933,0.015359123650551837,
0.062144638403990024,-0.008919517645427059,
0.06219451371571072,0.000649930487636424,
0.06224438902743142,0.0038006955570206915,
0.06229426433915212,0.011427494544120755,
0.06234413965087282,-0.011141480886791313,
0.062394014962593516,-0.0055456884997668624,
0.06244389027431421,-0.0067069316148675165,
0.062493765586034915,0.007148499840119611,
0.06254364089775562,-0.0036185610718036114,
0.06259351620947631,0.00215860363488892,
0.06264339152119701,-0.00888337569334928,
0.0626932668329177,-0.028036286475485738,
0.0627431421446384,0.005101922363365237,
0.0627930174563591,-0.011277430293114041,
0.0628428927680798,0.01450495246283032,
0.0628927680798005,-0.01371813716299381,
0.0629426433915212,-0.007955472471429137,
0.06299251870324189,-0.00413605323064449,
0.06304239401496259,-0.0036467527495310965,
0.0630922693266833,-0.003620891026396624,
0.063142144638404,0.008862987673802896,
0.06319201995012469,-0.019103570441282233,
0.06324189526184539,-0.007856466006513916,
0.06329177057356608,-0.02562880280637237,
0.06334164588528678,-0.014500562490087483,
0.06339152119700749,0.0202586230108414,
0.06344139650872818,-0.0027958427526834314,
0.06349127182044888,0.008680962577324593,
0.06354114713216957,0.008319358687877327,
0.06359102244389027,-0.00903021690702787,
0.06364089775561098,0.005170124283522505,
0.06369077306733167,-0.006460217359295824,
0.06374064837905237,0.018702286370317338,
0.06379052369077307,-0.004560674793136479,
0.06384039900249376,0.005231564065680663,
0.06389027431421446,-0.018999121060966927,
0.06394014962593517,0.008235225957264716,
0.06399002493765586,-0.0014410344415866205,
0.06403990024937656,0.0008381505005312581,
0.06408977556109725,-0.0269318808217213,
0.06413965087281795,-0.00730869299051322,
0.06418952618453866,0.005094142493766151,
0.06423940149625935,-0.009521483365408649,
0.06428927680798005,-0.012740564873377729,
0.06433915211970075,0.0012951612122071021,
0.06438902743142144,0.002158556742716979,
0.06443890274314215,-0.017003050145663633,
0.06448877805486285,-0.012144131393672975,
0.06453865336658354,-0.0015562408384692614,
0.06458852867830424,-0.002373463042207676,
0.06463840399002493,-0.0060624794016194885,
0.06468827930174563,-0.010810458829724746,
0.06473815461346634,0.007979188245617434,
0.06478802992518704,-0.001124810001113117,
0.06483790523690773,-0.02897177185514692,
0.06488778054862843,-0.01677283385764389,
0.06493765586034912,-0.013694993799606994,
0.06498753117206983,-0.017824641104283542,
0.06503740648379053,-0.017557086096823517,
0.06508728179551122,-0.005550307621323749,
0.06513715710723192,-0.023271615289847038,
0.06518703241895261,-0.004908971880128324,
0.06523690773067331,-0.000915925051210088,
0.06528678304239402,0.008701117695849123,
0.06533665835411472,0.002473400902941413,
0.06538653366583541,-0.034513794824164654,
0.06543640897755611,-0.04571837840965553,
0.0654862842892768,-0.014555735019874168,
0.06553615960099751,-0.0024306486626073376,
0.06558603491271821,-0.017345624682300723,
0.0656359102244389,0.006564154280404924,
0.0656857855361596,-0.027349440971008214,
0.0657356608478803,-0.00313017649563589,
0.06578553615960099,-0.006961522127384999,
0.0658354114713217,-0.018675182849388114,
0.0658852867830424,-0.013671067675252118,
0.06593516209476309,-0.02468750365657313,
0.06598503740648379,0.03178231398462268,
0.06603491271820448,-0.01920864965668056,
0.06608478802992519,-0.015077392005985103,
0.06613466334164589,0.0038895593640245075,
0.06618453865336658,-0.0241035440820832,
0.06623441396508728,-0.0030215945866415277,
0.06628428927680798,-0.018502853908583475,
0.06633416458852869,-0.024797666306367566,
0.06638403990024938,-0.002295594502333055,
0.06643391521197008,-0.030024239988546867,
0.06648379052369077,-0.047443640069670334,
0.06653366583541147,-0.03700174193579306,
0.06658354114713216,-0.04132296405141897,
0.06663341645885287,-0.03624161107224792,
0.06668329177057357,-0.0027220036160751776,
0.06673316708229426,0.004817667662350998,
0.06678304239401496,-0.017744967454512473,
0.06683291770573566,-0.015671391096208794,
0.06688279301745637,-0.007598528991884736,
0.06693266832917706,0.019990507303122268,
0.06698254364089776,-0.005164171368933683,
0.06703241895261845,-0.021031849238331422,
0.06708229426433915,0.01681739645119999,
0.06713216957605984,-0.030624433153810634,
0.06718204488778055,-0.037711965130755275,
0.06723192019950125,-0.02609037876453565,
0.06728179551122195,-0.006577655647765563,
0.06733167082294264,-0.017927892384744168,
0.06738154613466334,-0.010405596763635973,
0.06743142144638405,-0.03903032244018042,
0.06748129675810474,-0.02434798577658542,
0.06753117206982544,-0.013238967459355978,
0.06758104738154613,0.005591221075945627,
0.06763092269326683,-0.006635460523720071,
0.06768079800498752,-0.02721166020848611,
0.06773067331670823,-0.014958216738798252,
0.06778054862842893,0.005648445929589945,
0.06783042394014963,0.021406438283279098,
0.06788029925187032,-0.016615224643641374,
0.06793017456359102,-0.013270231192178749,
0.06798004987531173,-0.046386822214366755,
0.06802992518703242,0.007975023448828406,
0.06807980049875312,-0.009159713255395812,
0.06812967581047381,-0.027751438684620305,
0.06817955112219451,-0.008193339878546509,
0.0682294264339152,-0.029207855037027768,
0.06827930174563591,-0.02035178366915213,
0.06832917705735661,-0.015619164604500812,
0.0683790523690773,-0.003876834801783755,
0.068428927680798,-0.02682040608641405,
0.0684788029925187,-0.012191911046517576,
0.06852867830423941,-0.018826075971709037,
0.0685785536159601,-0.01651865462703613,
0.0686284289276808,-0.012533168921512678,
0.0686783042394015,-0.0056923108327312285,
0.06872817955112219,-0.011522545657746857,
0.0687780548628429,-0.03113010394050183,
0.0688279301745636,-0.003697417743005551,
0.06887780548628429,-0.01634803008723755,
0.06892768079800499,-0.014554540883194404,
0.06897755610972568,0.0313076192593498,
0.06902743142144638,-0.019859713143155773,
0.06907730673316709,-0.024576439559179993,
0.06912718204488778,-0.01703146971558397,
0.06917705735660848,0.004109661348455727,
0.06922693266832917,0.018716316309652065,
0.06927680798004987,-0.014781805012305561,
0.06932668329177058,0.02046032447943584,
0.06937655860349128,0.01114522460931424,
0.06942643391521197,-0.021103105751814722,
0.06947630922693267,-0.02376932712098031,
0.06952618453865336,0.001672362737452279,
0.06957605985037406,-0.02623826488160016,
0.06962593516209477,0.010139832352248516,
0.06967581047381546,0.010751737970845776,
0.06972568578553616,-0.0011298324223859204,
0.06977556109725686,-0.004196912991812308,
0.06982543640897755,-0.014499298194477154,
0.06987531172069826,0.01561462237233141,
0.06992518703241896,0.004499847062927443,
0.06997506234413965,0.009988286815352167,
0.07002493765586035,-0.009095031158297283,
0.07007481296758104,-0.032784371413322896,
0.07012468827930174,0.0009343336763583095,
0.07017456359102245,-0.009351879422793787,
0.07022443890274314,-0.0028848713098401663,
0.07027431421446384,-0.0011935215539316305,
0.07032418952618454,-0.009126734947447271,
0.07037406483790523,-0.02180118694584334,
0.07042394014962594,-0.00812708037849494,
0.07047381546134664,0.011302596915045303,
0.07052369077306733,0.01764705381382907,
0.07057356608478803,-0.020861388971057025,
0.07062344139650872,0.014113034669746765,
0.07067331670822943,-0.01279656537155591,
0.07072319201995013,-0.014965619712401786,
0.07077306733167082,0.008868382597915194,
0.07082294264339152,0.002319752152111127,
0.07087281795511222,-0.01623947698808597,
0.07092269326683291,0.024729428830282785,
0.07097256857855362,-0.017937911855264825,
0.07102244389027432,-0.0027732547065849713,
0.07107231920199501,0.017327876909123237,
0.07112219451371571,0.04936730225609342,
0.0711720698254364,0.012545218188525187,
0.07122194513715711,-0.00815018071834275,
0.07127182044887781,0.016254226298817544,
0.0713216957605985,-0.008805479979227485,
0.0713715710723192,0.003819529286668838,
0.0714214463840399,-0.0011697322072486416,
0.07147132169576059,0.01048650194592007,
0.0715211970074813,0.0018997231362448135,
0.071571072319202,0.012510468231182107,
0.0716209476309227,0.02086736728553806,
0.07167082294264339,0.031486551915103564,
0.07172069825436408,-0.0020059630670671872,
0.0717705735660848,-0.0032806256388960868,
0.07182044887780549,0.027766403783574405,
0.07187032418952619,0.014315231758238383,
0.07192019950124688,0.0014822448935486697,
0.07197007481296758,0.001550178220195056,
0.07201995012468827,-0.002089553992801335,
0.07206982543640898,0.02625500406959811,
0.07211970074812968,0.015377000398551947,
0.07216957605985037,0.018370233501162177,
0.07221945137157107,0.0036358202303151408,
0.07226932668329177,0.00524911477078838,
0.07231920199501247,-0.004130446240799989,
0.07236907730673317,0.005880722645150707,
0.07241895261845387,0.005239907386142383,
0.07246882793017456,-0.01454935364829437,
0.07251870324189526,0.026524614153409086,
0.07256857855361595,-0.0005865759028957761,
0.07261845386533666,0.031229643326141605,
0.07266832917705736,0.01943942115806323,
0.07271820448877805,-0.01859074503529656,
0.07276807980049875,-0.019849087394108116,
0.07281795511221945,0.002651682004121329,
0.07286783042394016,0.02418236990965566,
0.07291770573566085,0.024299373014685575,
0.07296758104738155,0.014301574875644978,
0.07301745635910224,0.018448928749465687,
0.07306733167082294,0.00046244780217324054,
0.07311720698254365,0.03320547041989179,
0.07316708229426434,0.0072220424048665514,
0.07321695760598504,0.010896643429806247,
0.07326683291770573,0.036067997962514114,
0.07331670822942643,0.0196050396502315,
0.07336658354114713,0.023971351211762845,
0.07341645885286784,0.031660011373956284,
0.07346633416458853,0.0221703747107156,
0.07351620947630923,0.005360007493385378,
0.07356608478802992,0.011557027636137767,
0.07361596009975062,0.028427230284208533,
0.07366583541147133,0.028324724547640602,
0.07371571072319202,0.037923923734020544,
0.07376558603491272,0.024354102184479295,
0.07381546134663342,0.05132810730198163,
0.07386533665835411,-0.0059833537894972075,
0.0739152119700748,-0.0007510112915390527,
0.07396508728179552,0.027712515321431253,
0.07401496259351621,0.018359105534302037,
0.07406483790523691,0.014073043925048621,
0.0741147132169576,0.008074186477659355,
0.0741645885286783,0.03131811722553471,
0.07421446384039901,0.037397162980142395,
0.0742643391521197,0.004525540031481017,
0.0743142144638404,0.02667152081406457,
0.0743640897755611,0.04613656991196165,
0.07441396508728179,0.02572473164639827,
0.07446384039900249,0.042890817169384976,
0.0745137157107232,0.014497255649049991,
0.07456359102244389,0.019530304941648365,
0.07461346633416459,0.014043318910881928,
0.07466334164588528,0.03496442992327743,
0.07471321695760598,0.033707900461910696,
0.07476309226932669,0.008541891912453274,
0.07481296758104738,0.0021428142063014168,
0.07486284289276808,0.0006519548674073922,
0.07491271820448878,0.03298826158688159,
0.07496259351620947,0.022740474457216473,
0.07501246882793017,0.021291047993348747,
0.07506234413965088,0.02032051037653795,
0.07511221945137157,0.01922695427406041,
0.07516209476309227,0.013985743267580994,
0.07521197007481296,0.027140918175148476,
0.07526184538653366,0.017755470165694193,
0.07531172069825437,0.008238199914957257,
0.07536159600997507,0.0213105394794981,
0.07541147132169576,0.02263103760306467,
0.07546134663341646,0.031596388527913445,
0.07551122194513715,0.03532408804842792,
0.07556109725685786,0.05303012236418847,
0.07561097256857856,0.017187074622339628,
0.07566084788029925,0.038739706918397385,
0.07571072319201995,0.002281563497643805,
0.07576059850374064,-0.01388373110138023,
0.07581047381546134,0.014101640999286477,
0.07586034912718205,0.03253336538603858,
0.07591022443890275,0.03350864139907027,
0.07596009975062344,0.029854244193206037,
0.07600997506234414,0.03830286025084327,
0.07605985037406483,0.059557670097478886,
0.07610972568578554,0.023158282854628443,
0.07615960099750624,0.02717033104777154,
0.07620947630922693,0.04004582050305278,
0.07625935162094763,0.02192066094882307,
0.07630922693266833,0.04490095348562785,
0.07635910224438902,0.04224451421442498,
0.07640897755610973,0.031152609398205293,
0.07645885286783043,0.039168764172723525,
0.07650872817955112,0.02401858710977835,
0.07655860349127182,0.013804549282095482,
0.07660847880299251,0.0139820115236664,
0.07665835411471322,0.006091340712377078,
0.07670822942643392,0.027004487849104364,
0.07675810473815461,0.01175670420133129,
0.07680798004987531,0.032014443177004914,
0.076857855361596,0.03480178304443876,
0.0769077306733167,0.029950845939310505,
0.07695760598503741,0.037787422775096016,
0.0770074812967581,0.019473058711812687,
0.0770573566084788,0.03447998134575902,
0.0771072319201995,0.03296313921329494,
0.0771571072319202,0.02011800648841653,
0.0772069825436409,0.02879742451889643,
0.0772568578553616,0.011031054847951176,
0.0773067331670823,0.016511238823498385,
0.07735660847880299,0.024123669895636135,
0.07740648379052369,0.00849161728671518,
0.0774563591022444,0.014532560839983106,
0.07750623441396509,0.045069080262310365,
0.07755610972568579,0.025914780632986637,
0.07760598503740648,0.0259128388024228,
0.07765586034912718,0.044948452698699536,
0.07770573566084787,0.009378713222176724,
0.07775561097256858,0.017848371225397147,
0.07780548628428928,0.01903722099969289,
0.07785536159600998,0.042425804747412164,
0.07790523690773067,0.056362459449501426,
0.07795511221945137,0.04255287417722761,
0.07800498753117208,0.010482294901042548,
0.07805486284289277,0.006449955794223042,
0.07810473815461347,0.005725206874532169,
0.07815461346633416,0.014344483887001743,
0.07820448877805486,0.03486572619403911,
0.07825436408977555,0.018419586875872196,
0.07830423940149626,0.044957135203013955,
0.07835411471321696,0.05501470731965562,
0.07840399002493766,0.029329938787211074,
0.07845386533665835,0.037622396935252156,
0.07850374064837905,0.042499841014629766,
0.07855361596009976,0.03812880346309212,
0.07860349127182045,0.033845258925403535,
0.07865336658354115,0.005127203544345666,
0.07870324189526184,-0.00016900899577764958,
0.07875311720698254,0.042891206385277804,
0.07880299251870324,0.04750972695410025,
0.07885286783042394,0.04173309573557735,
0.07890274314214464,0.035897288025719676,
0.07895261845386534,0.04073538067787965,
0.07900249376558603,0.028541932947586335,
0.07905236907730673,0.018551979376678483,
0.07910224438902744,0.0023162902597994896,
0.07915211970074813,0.024134946852208707,
0.07920199501246883,0.02283509029672267,
0.07925187032418952,0.028020532524949127,
0.07930174563591022,0.011905045738884209,
0.07935162094763092,0.021937924994627885,
0.07940149625935163,0.026198374563928394,
0.07945137157107232,0.0004224406817159472,
0.07950124688279302,0.0003308794559862306,
0.07955112219451371,0.0344602500013412,
0.07960099750623441,0.01445425269474199,
0.07965087281795512,0.03290849427981399,
0.07970074812967581,0.0446463890063534,
0.07975062344139651,0.018091990389719943,
0.0798004987531172,0.01634718528137414,
0.0798503740648379,-0.0005442428775705548,
0.07990024937655861,0.030787016863057792,
0.0799501246882793,-0.0034492797192235934,
0.08,0.03551306041335746,
0.0800498753117207,0.03299619391670111,
0.0800997506234414,0.012393591150350389,
0.08014962593516209,0.01721423949967328,
0.0801995012468828,0.02665460042605189,
0.0802493765586035,0.019168591931642255,
0.08029925187032419,0.025475291945469266,
0.08034912718204489,0.00638939991679722,
0.08039900249376558,0.04143124423424843,
0.08044887780548629,0.028540196436759972,
0.08049875311720699,0.012149033994842228,
0.08054862842892768,0.04065610929875463,
0.08059850374064838,0.008299607133697599,
0.08064837905236907,0.030510007391185257,
0.08069825436408977,0.0201832157519218,
0.08074812967581048,0.0017648288812177355,
0.08079800498753117,0.017215803274528325,
0.08084788029925187,-0.007921494016904894,
0.08089775561097257,-0.005823916807378864,
0.08094763092269326,0.02124362810291073,
0.08099750623441397,0.013818384575035883,
0.08104738154613467,0.0031173820367478037,
0.08109725685785536,0.00600173489364954,
0.08114713216957606,0.008218938591799455,
0.08119700748129675,0.01979856100067691,
0.08124688279301745,0.027282857630016276,
0.08129675810473816,-0.011262641122911967,
0.08134663341645886,0.010549480153966322,
0.08139650872817955,0.023642866790725452,
0.08144638403990025,0.018191256978765308,
0.08149625935162094,0.0195881245582521,
0.08154613466334165,-0.014677106838055997,
0.08159600997506235,0.019992498796448765,
0.08164588528678304,0.028153022618971894,
0.08169576059850374,0.017020784750731138,
0.08174563591022443,-0.005871085965267219,
0.08179551122194513,0.03696229927359216,
0.08184538653366584,-0.004028397532215853,
0.08189526184538654,0.03020812856366627,
0.08194513715710723,-0.0033580673197146768,
0.08199501246882793,0.013303433049212821,
0.08204488778054862,-0.0032361517631493476,
0.08209476309226933,0.025663330312561926,
0.08214463840399003,-0.0017760632548688257,
0.08219451371571072,-0.026232282595801345,
0.08224438902743142,-0.022870319504930302,
0.08229426433915212,0.008370806503872483,
0.08234413965087282,-0.006786129551396938,
0.08239401496259352,0.023742742173781233,
0.08244389027431422,-0.020411303118504323,
0.08249376558603491,-0.010020634125865326,
0.08254364089775561,-0.006626485359376567,
0.0825935162094763,0.009119751275626538,
0.08264339152119701,-0.02206572589002061,
0.08269326683291771,0.012647560006140313,
0.0827431421446384,-0.00716138769066929,
0.0827930174563591,-0.010929979575191163,
0.0828428927680798,0.013681700219321,
0.0828927680798005,-0.0012361775135837077,
0.0829426433915212,-0.010129293677718696,
0.0829925187032419,-0.00722637252962431,
0.08304239401496259,-0.013466057847790676,
0.08309226932668329,0.018879174041153232,
0.08314214463840398,0.004074387624067526,
0.0831920199501247,-0.0061454501702784756,
0.08324189526184539,-0.012692335933068451,
0.08329177057356608,-0.02940622580663599,
0.08334164588528678,-0.004855516949459968,
0.08339152119700748,-0.022984596563162634,
0.08344139650872819,0.0013328930164605637,
0.08349127182044888,-0.017887677843489953,
0.08354114713216958,-0.005102958710870815,
0.08359102244389027,-0.019954278014934657,
0.08364089775561097,-0.01995279625319194,
0.08369077306733166,0.003875257176868178,
0.08374064837905237,0.0017823978304816824,
0.08379052369077307,-0.026424733751591746,
0.08384039900249377,0.000948790542711726,
0.08389027431421446,0.004448412134024689,
0.08394014962593516,-0.0031125229338233853,
0.08399002493765587,-0.004294381675425958,
0.08403990024937656,-0.011907081229563087,
0.08408977556109726,-0.006858409753006023,
0.08413965087281795,-0.003924127795305673,
0.08418952618453865,-0.026071038672773193,
0.08423940149625936,-0.009734215426900233,
0.08428927680798005,-0.048461132738468464,
0.08433915211970075,-0.028768785188843602,
0.08438902743142145,-0.021720760001071773,
0.08443890274314214,-0.011044771096793688,
0.08448877805486284,-0.008442816104943435,
0.08453865336658355,0.0044034742505438,
0.08458852867830424,-0.018657819593493927,
0.08463840399002494,-0.023864288836381663,
0.08468827930174563,0.006820057764602618,
0.08473815461346633,-0.0010747347974888188,
0.08478802992518704,-0.03483962356447852,
0.08483790523690773,0.013573500977665397,
0.08488778054862843,-0.010757622780297571,
0.08493765586034913,-0.010816629545641155,
0.08498753117206982,-0.009531587347698614,
0.08503740648379052,0.006313409181042399,
0.08508728179551123,-0.02760907600323089,
0.08513715710723192,-0.01547257434539328,
0.08518703241895262,-0.016189696377079416,
0.08523690773067331,0.004684504989065544,
0.08528678304239401,-0.01187302318047473,
0.08533665835411472,0.001194510207539459,
0.08538653366583542,-0.005073865626334657,
0.08543640897755611,-0.025243864532830507,
0.0854862842892768,-0.01231758222921565,
0.0855361596009975,-0.004528892119011451,
0.0855860349127182,0.007713586121660836,
0.08563591022443891,-0.019979366026954378,
0.0856857855361596,-0.015623449194817974,
0.0857356608478803,-0.00873220259769959,
0.085785536159601,-0.013190098172726638,
0.08583541147132169,-0.022061522414227184,
0.0858852867830424,0.0015103768686250078,
0.0859351620947631,0.0016753655251927884,
0.08598503740648379,-0.004043292617560158,
0.08603491271820449,-0.020825520045515224,
0.08608478802992518,-0.007268678906024635,
0.08613466334164588,0.03292094134973629,
0.08618453865336659,-0.05123436421390641,
0.08623441396508728,-0.011956247584390409,
0.08628428927680798,-0.024781894628855945,
0.08633416458852868,-0.015434108775174461,
0.08638403990024937,-0.014435093428143428,
0.08643391521197008,-0.012774983698560425,
0.08648379052369078,-0.03397045284432017,
0.08653366583541147,-0.011803494224911502,
0.08658354114713217,0.0009020062904975621,
0.08663341645885286,0.0012563629127926492,
0.08668329177057357,-0.02270846098700133,
0.08673316708229427,-0.014210935513517172,
0.08678304239401496,-0.010544784385731483,
0.08683291770573566,-0.0367773311285519,
0.08688279301745636,-0.00814405579603241,
0.08693266832917705,-0.015348428755404264,
0.08698254364089776,-0.011945942353279568,
0.08703241895261846,-0.03166852022901716,
0.08708229426433915,-0.031751732742015974,
0.08713216957605985,-0.015421048756428505,
0.08718204488778054,-0.011689856383508751,
0.08723192019950125,0.014484528050792353,
0.08728179551122195,-0.02418668706472218,
0.08733167082294264,0.010045045455766895,
0.08738154613466334,0.006737030131964113,
0.08743142144638404,-0.02240405726266217,
0.08748129675810473,-0.006454882224253328,
0.08753117206982544,-0.00906409128972914,
0.08758104738154614,-0.02035576953784702,
0.08763092269326683,-0.006915335631156618,
0.08768079800498753,-0.043371029343751324,
0.08773067331670822,-0.007406388695247871,
0.08778054862842893,-0.004767186171136131,
0.08783042394014963,-0.0014533669766448511,
0.08788029925187033,-0.00747767728670561,
0.08793017456359102,-0.027635363394730102,
0.08798004987531172,-0.0035721372687542354,
0.08802992518703241,-0.0014370952424688187,
0.08807980049875312,0.0009125738156207531,
0.08812967581047382,-0.014512661824549817,
0.08817955112219451,-0.00041440615817733145,
0.08822942643391521,-0.02532304923037243,
0.0882793017456359,-0.008866054078690816,
0.08832917705735661,-0.0007829964452791011,
0.08837905236907731,0.005731966310029306,
0.088428927680798,-0.016544660107876596,
0.0884788029925187,-0.0095444513637131,
0.0885286783042394,-0.020730235317842724,
0.0885785536159601,-0.0012579092974015806,
0.0886284289276808,-0.01998444253069906,
0.0886783042394015,0.0159305637270116,
0.0887281795511222,-0.019171308171100333,
0.08877805486284289,-0.00810509021088501,
0.08882793017456359,0.020326839633836472,
0.0888778054862843,0.010760415365601718,
0.08892768079800499,-0.012272093377834352,
0.08897755610972569,0.0020387947535312825,
0.08902743142144638,-0.0188989796276451,
0.08907730673316708,-0.01376653179092769,
0.08912718204488779,-0.04537823303530063,
0.08917705735660848,-0.03995291041762821,
0.08922693266832918,-0.009409621470802697,
0.08927680798004987,0.016336340460532506,
0.08932668329177057,-0.013207488190685164,
0.08937655860349127,0.014411236650564666,
0.08942643391521198,0.002118148256769709,
0.08947630922693267,-0.007998039415814966,
0.08952618453865337,0.006095903519181995,
0.08957605985037406,0.027844820184418202,
0.08962593516209476,-0.0026099547610664207,
0.08967581047381547,-0.00622443236720408,
0.08972568578553616,-0.03584404529109839,
0.08977556109725686,0.018901924268062774,
0.08982543640897755,-0.029940060724112424,
0.08987531172069825,-0.00865266093836525,
0.08992518703241895,0.00870979940350882,
0.08997506234413966,0.020262371224999628,
0.09002493765586035,0.002500544047117672,
0.09007481296758105,0.011303359199590014,
0.09012468827930174,0.01354485335574002,
0.09017456359102244,-0.01641739106193804,
0.09022443890274315,0.005960347635143702,
0.09027431421446384,0.008556186533350649,
0.09032418952618454,0.006623674687467715,
0.09037406483790524,0.012893227625087923,
0.09042394014962593,-0.006409229548980956,
0.09047381546134663,0.0007047489051020743,
0.09052369077306734,0.0025074396749408577,
0.09057356608478803,-0.020492537756053725,
0.09062344139650873,-0.005173994160865781,
0.09067331670822942,0.008744724514384402,
0.09072319201995012,0.01215590656870643,
0.09077306733167083,0.0007302811509080744,
0.09082294264339152,-0.008255350295647189,
0.09087281795511222,-0.007071020380378395,
0.09092269326683292,0.007683720360817006,
0.09097256857855361,0.015949547002091183,
0.09102244389027432,-0.020816958370740348,
0.09107231920199502,-0.012593809142170998,
0.09112219451371571,0.03299664420620822,
0.09117206982543641,-0.0024508369871151375,
0.0912219451371571,-0.015060543624712402,
0.0912718204488778,0.023916698384923992,
0.09132169576059851,0.005405802409412792,
0.0913715710723192,0.0050647946733162206,
0.0914214463840399,0.004207761462982671,
0.0914713216957606,0.006434374475907069,
0.09152119700748129,0.0142638847684306,
0.091571072319202,-0.009773810462396398,
0.0916209476309227,0.005641513958060796,
0.09167082294264339,0.017045039445797258,
0.09172069825436409,-0.005499543601493887,
0.09177057356608478,-0.0020543656173837577,
0.09182044887780548,0.00015180541500312873,
0.09187032418952619,0.005382028543818073,
0.09192019950124689,0.014043634569260756,
0.09197007481296758,0.0045354262434772015,
0.09201995012468828,0.0016704263754351448,
0.09206982543640897,0.004974171650926026,
0.09211970074812968,-0.013117588193641217,
0.09216957605985038,0.03450079173557969,
0.09221945137157107,0.011236647216519265,
0.09226932668329177,-0.02492049164523041,
0.09231920199501246,0.008266412495116969,
0.09236907730673316,-0.02043693514230492,
0.09241895261845387,-0.006361249181801049,
0.09246882793017457,-0.006247832279275412,
0.09251870324189526,0.005786185123891172,
0.09256857855361596,0.021114529236423978,
0.09261845386533665,0.006728190463496204,
0.09266832917705736,-0.0011950308327232373,
0.09271820448877806,0.015858445997658267,
0.09276807980049875,0.03141400760956959,
0.09281795511221945,0.014143492006004886,
0.09286783042394015,0.018144275776462458,
0.09291770573566084,0.003199879340311681,
0.09296758104738155,0.03044869682721845,
0.09301745635910225,0.0450028815649184,
0.09306733167082294,0.02984432858062544,
0.09311720698254364,0.03692915541180605,
0.09316708229426433,-0.0016674417394468184,
0.09321695760598504,0.02060175302543114,
0.09326683291770574,0.022060600776730395,
0.09331670822942643,0.008281080916143546,
0.09336658354114713,0.009848452708900288,
0.09341645885286783,0.03285062950165558,
0.09346633416458854,0.014289631118366125,
0.09351620947630923,0.010933189116532214,
0.09356608478802993,-0.016790973238369367,
0.09361596009975062,0.023161337423835054,
0.09366583541147132,-0.014136864091179799,
0.09371571072319201,0.013063732347296516,
0.09376558603491272,0.029352489696888327,
0.09381546134663342,0.026205657359595534,
0.09386533665835411,0.01964299289815214,
0.09391521197007481,0.003949903149926156,
0.0939650872817955,0.01280444174345382,
0.09401496259351622,0.030735899945674394,
0.09406483790523691,0.0019977369086020755,
0.09411471321695761,0.01199678788775295,
0.0941645885286783,0.012532222756703586,
0.094214463840399,0.04961952974836618,
0.0942643391521197,0.018505635435233488,
0.0943142144638404,0.01972726086462038,
0.0943640897755611,0.0507719962928356,
0.0944139650872818,0.030237555728012608,
0.09446384039900249,0.03194626973218438,
0.09451371571072319,0.006090683092414315,
0.0945635910224439,0.024073758350387293,
0.09461346633416459,-0.005799120265047544,
0.09466334164588529,0.0504779307442719,
0.09471321695760598,0.019325751039335863,
0.09476309226932668,0.024025775841427784,
0.09481296758104737,0.020027263577156888,
0.09486284289276808,0.01618102718510655,
0.09491271820448878,0.032759082166624466,
0.09496259351620948,0.01850850178143706,
0.09501246882793017,0.04364404261236814,
0.09506234413965087,0.01404999488382807,
0.09511221945137158,0.0283314552376815,
0.09516209476309227,0.014431738352210724,
0.09521197007481297,0.03222547589066161,
0.09526184538653366,0.013505933165192996,
0.09531172069825436,0.007498416920067894,
0.09536159600997507,0.054747527438599175,
0.09541147132169576,0.018198247443209643,
0.09546134663341646,0.04352351479783465,
0.09551122194513716,0.035492299652842924,
0.09556109725685785,0.03534963101143095,
0.09561097256857855,0.018928559161380927,
0.09566084788029926,0.019197534891613074,
0.09571072319201995,0.01990968806094128,
0.09576059850374065,0.03964277853611142,
0.09581047381546134,0.008502432505146748,
0.09586034912718204,0.04526691261279588,
0.09591022443890275,0.015567584672197451,
0.09596009975062345,0.03949063552731614,
0.09600997506234414,0.006202922388685098,
0.09605985037406484,0.04985032510255595,
0.09610972568578553,0.028797298616566876,
0.09615960099750623,0.02087470365791915,
0.09620947630922694,0.0194238862183377,
0.09625935162094763,0.025272962045387173,
0.09630922693266833,0.048944593674506,
0.09635910224438902,0.04753618113471744,
0.09640897755610972,0.017824220613446573,
0.09645885286783043,0.025794730048256765,
0.09650872817955113,0.006548259481030102,
0.09655860349127182,0.021637269826774518,
0.09660847880299252,0.026875509782532846,
0.09665835411471321,0.021280225386645542,
0.09670822942643391,0.018324836536842144,
0.09675810473815462,0.04071817949782398,
0.09680798004987531,0.03231039202420345,
0.09685785536159601,0.022041098861626786,
0.0969077306733167,0.04806172424497266,
0.0969576059850374,0.025847394730657593,
0.09700748129675811,0.048732049246934236,
0.0970573566084788,0.04502247249123305,
0.0971072319201995,0.0422799137174529,
0.0971571072319202,0.024534324352901794,
0.0972069825436409,0.010281038464862932,
0.09725685785536159,0.04950381187694485,
0.0973067331670823,0.034696559502315455,
0.097356608478803,0.01735952481033186,
0.09740648379052369,0.015129964196376425,
0.09745635910224439,-0.024342664787289733,
0.09750623441396508,0.0035021706693343646,
0.09755610972568579,0.008277921103562031,
0.09760598503740649,0.010230817332337154,
0.09765586034912718,0.031142426292407974,
0.09770573566084788,0.04302430217282048,
0.09775561097256857,0.04161140820887126,
0.09780548628428928,0.03688083157758124,
0.09785536159600998,0.009436971993667241,
0.09790523690773068,0.015977412127883783,
0.09795511221945137,0.017697538823025,
0.09800498753117207,0.018480210734788387,
0.09805486284289276,-0.005375132925273817,
0.09810473815461347,0.03018813591387159,
0.09815461346633417,0.03565874258225843,
0.09820448877805486,0.026233318478081392,
0.09825436408977556,0.0113201612812828,
0.09830423940149625,0.02254723819128274,
0.09835411471321696,0.05429484777156206,
0.09840399002493766,0.036865931186477574,
0.09845386533665836,0.047806471038382065,
0.09850374064837905,0.005007386137137391,
0.09855361596009975,0.04879526360576483,
0.09860349127182044,0.018204235097440184,
0.09865336658354115,0.026421554696360303,
0.09870324189526185,0.04197161520481291,
0.09875311720698254,0.021351637420815184,
0.09880299251870324,0.03705733460881545,
0.09885286783042393,0.020263018615646253,
0.09890274314214464,0.018125267213744047,
0.09895261845386534,0.022447165482956576,
0.09900249376558604,0.04457571610328436,
0.09905236907730673,0.055193221936872316,
0.09910224438902743,0.0005643048257421568,
0.09915211970074812,0.019464606719438483,
0.09920199501246883,0.021398672605595546,
0.09925187032418953,-0.0016825901245209954,
0.09930174563591022,0.010804756661855474,
0.09935162094763092,0.03553817191345601,
0.09940149625935162,0.027848011314478633,
0.09945137157107233,0.005334612102067945,
0.09950124688279302,0.027315161412376245,
0.09955112219451372,0.028140398102505737,
0.09960099750623441,0.019623686368507358,
0.09965087281795511,0.029224111746819763,
0.0997007481296758,0.02849333951539061,
0.09975062344139651,0.02826606527859424,
0.09980049875311721,0.03242188411712427,
0.0998503740648379,0.026188421794727787,
0.0999002493765586,0.023372346444869553,
0.0999501246882793,0.04070915204695867,
0.1,0.0038348339910871387,
0.1000498753117207,-0.023844735303494253,
0.1000997506234414,0.03513057940271881,
0.10014962593516209,-0.0006072181940590532,
0.10019950124688279,0.02215838486789453,
0.1002493765586035,0.022051429074174716,
0.1002992518703242,0.033877213642107565,
0.10034912718204489,0.009736601652369333,
0.10039900249376559,0.036848550023247766,
0.10044887780548628,0.012126742794501502,
0.10049875311720698,0.006732391098029797,
0.10054862842892769,0.01687507345563393,
0.10059850374064838,0.02052347657630002,
0.10064837905236908,0.008406762199715246,
0.10069825436408977,0.01344450133195342,
0.10074812967581047,0.008973642840021105,
0.10079800498753118,0.01377395452767544,
0.10084788029925187,0.02652590649958699,
0.10089775561097257,0.018638476576478796,
0.10094763092269327,-0.022109637157187344,
0.10099750623441396,0.007979169677726371,
0.10104738154613466,0.012890776200872036,
0.10109725685785537,-0.021043873296068348,
0.10114713216957606,0.003386998652464837,
0.10119700748129676,0.015522432687210444,
0.10124688279301745,-0.004381276833008001,
0.10129675810473815,0.02190615957390122,
0.10134663341645886,-0.009362758520167566,
0.10139650872817955,0.027000923707431256,
0.10144638403990025,-0.0035838225701366657,
0.10149625935162095,0.0028345663693003214,
0.10154613466334164,0.01954426282484057,
0.10159600997506234,0.02582821826702126,
0.10164588528678305,0.019377677039090078,
0.10169576059850374,0.015344674992715397,
0.10174563591022444,0.008209734322217499,
0.10179551122194513,0.03138056681820165,
0.10184538653366583,0.0007486777839637781,
0.10189526184538654,-0.014283701551089633,
0.10194513715710724,0.008532652321282938,
0.10199501246882793,0.004753367898618015,
0.10204488778054863,0.007107270669674653,
0.10209476309226932,-0.013665142074653473,
0.10214463840399003,0.001837594231698071,
0.10219451371571073,0.026468873567720458,
0.10224438902743142,-0.025411797691662255,
0.10229426433915212,0.004161847596372209,
0.10234413965087281,0.02140604475044605,
0.10239401496259351,0.02514730708684983,
0.10244389027431422,0.011624964029697208,
0.10249376558603492,-0.018531467406215987,
0.10254364089775561,0.014548457197442091,
0.10259351620947631,-0.005668074758802071,
0.102643391521197,0.007270690397088751,
0.10269326683291771,0.0100321925305067,
0.10274314214463841,0.01889917065899854,
0.1027930174563591,0.010228608421845671,
0.1028428927680798,3.150153391437828e-05,
0.1028927680798005,0.0126446338245106,
0.10294264339152119,0.016488090330895343,
0.1029925187032419,0.006299004540564689,
0.1030423940149626,-0.009179573018544895,
0.10309226932668329,0.0015150307780577217,
0.10314214463840399,0.017164008796006023,
0.10319201995012468,0.016879561714402812,
0.10324189526184539,-0.005462460503468751,
0.10329177057356609,0.0070247202294179,
0.10334164588528678,-0.02473632596032639,
0.10339152119700748,-0.0011081299146278325,
0.10344139650872818,0.02820700618898524,
0.10349127182044887,-0.029181215005602112,
0.10354114713216958,0.007441199155234386,
0.10359102244389028,0.006158376940484587,
0.10364089775561097,0.007226427870093458,
0.10369077306733167,0.014855240753662326,
0.10374064837905236,-0.009660619619992103,
0.10379052369077307,0.00041910276863368554,
0.10384039900249377,-0.0018961823926045653,
0.10389027431421446,-0.004179458912597098,
0.10394014962593516,0.0026718048617826494,
0.10399002493765586,-0.022215516311155988,
0.10403990024937655,-0.011103655443590925,
0.10408977556109726,0.013801126327344926,
0.10413965087281796,0.005055288518205193,
0.10418952618453865,0.004856990628529372,
0.10423940149625935,-0.014354195531668302,
0.10428927680798004,-0.02474785563582923,
0.10433915211970075,-0.0007639029244852552,
0.10438902743142145,-0.009282539442923824,
0.10443890274314215,-0.007958624437951605,
0.10448877805486284,-0.004850611894907498,
0.10453865336658354,-0.024908582767132155,
0.10458852867830425,-0.0026915533578008456,
0.10463840399002494,0.009087201794507154,
0.10468827930174564,-0.04151095991736234,
0.10473815461346633,-0.0018827800312202084,
0.10478802992518703,0.00739458004800863,
0.10483790523690772,0.011930708456892964,
0.10488778054862843,-0.017425717778767988,
0.10493765586034913,0.006617290259556369,
0.10498753117206983,-0.03021384270529926,
0.10503740648379052,-0.00422169174932986,
0.10508728179551122,-0.016763239778538816,
0.10513715710723193,-0.023916518629764474,
0.10518703241895262,-0.01580427654753315,
0.10523690773067332,-0.02507942233061268,
0.10528678304239401,-0.007510817495873075,
0.10533665835411471,-0.0036696717743717336,
0.1053865336658354,-0.023169052194802232,
0.10543640897755611,-0.027851365175508853,
0.10548628428927681,-0.0205073378446083,
0.1055361596009975,0.007356910156868358,
0.1055860349127182,-0.012241034239607759,
0.1056359102244389,0.02087407804128151,
0.10568578553615961,-0.019340576080101923,
0.1057356608478803,-0.016255156723619945,
0.105785536159601,-0.015274460460789754,
0.1058354114713217,-0.00565490612853652,
0.10588528678304239,-0.04144332618863503,
0.10593516209476309,-0.025276051745720216,
0.1059850374064838,0.014883712843038802,
0.10603491271820449,0.014408047259024358,
0.10608478802992519,-0.023414471356264892,
0.10613466334164588,-0.03373943339690515,
0.10618453865336658,-0.02314727846410858,
0.10623441396508729,-0.004050530405682595,
0.10628428927680798,-0.030331250304605876,
0.10633416458852868,0.014077086987571952,
0.10638403990024937,-0.018134729009167017,
0.10643391521197007,-0.018254494352955876,
0.10648379052369077,0.005703554169895951,
0.10653366583541148,-0.018026474933113622,
0.10658354114713217,0.002745374118332993,
0.10663341645885287,0.03101494008866173,
0.10668329177057356,-0.008430283277760568,
0.10673316708229426,-0.005529112676141205,
0.10678304239401497,-0.013957527324156293,
0.10683291770573566,-0.000988011948576107,
0.10688279301745636,-0.018632337674376973,
0.10693266832917706,-0.02932095032298359,
0.10698254364089775,-0.015126403287990895,
0.10703241895261846,-0.00959745475104302,
0.10708229426433916,-0.022445882679238256,
0.10713216957605985,-0.006772528019119539,
0.10718204488778055,-0.00867410945703455,
0.10723192019950124,-0.0027797787772452474,
0.10728179551122194,-0.011596124108012031,
0.10733167082294265,-0.009718686716744841,
0.10738154613466334,-0.015855681307222796,
0.10743142144638404,0.010343847082596395,
0.10748129675810474,-0.010289580975883379,
0.10753117206982543,0.005953994474628695,
0.10758104738154614,-0.006700255237593617,
0.10763092269326684,-0.023486834862863643,
0.10768079800498753,0.015860117594215295,
0.10773067331670823,0.004714741850691,
0.10778054862842892,-0.02854928807752497,
0.10783042394014962,0.00412016059804639,
0.10788029925187033,0.020929645185881102,
0.10793017456359102,-0.020778988735399795,
0.10798004987531172,-0.010584560017216285,
0.10802992518703242,-0.0039954134936391016,
0.10807980049875311,0.0006848661773105596,
0.10812967581047382,-0.003150190102122713,
0.10817955112219452,-0.01212094451087675,
0.10822942643391521,0.011282593300780198,
0.10827930174563591,0.011612894692016776,
0.1083291770573566,0.002959692493613367,
0.1083790523690773,-0.024529627862080877,
0.10842892768079801,-0.002006227105642063,
0.1084788029925187,-0.01255757920153147,
0.1085286783042394,-0.019864238878739414,
0.1085785536159601,-0.0035230753386662596,
0.10862842892768079,0.0017014165297619174,
0.1086783042394015,-0.019437915019575806,
0.1087281795511222,0.004425988697728572,
0.1087780548628429,0.0035153652166774324,
0.10882793017456359,-0.032819252454520775,
0.10887780548628428,-0.016314898964367604,
0.108927680798005,-0.02822332169516141,
0.10897755610972569,0.015553221850445229,
0.10902743142144639,-0.029628907057272506,
0.10907730673316708,-0.012795330582153512,
0.10912718204488778,-0.008972992278009151,
0.10917705735660847,0.00039103081621545514,
0.10922693266832918,-0.009404695271129151,
0.10927680798004988,-0.01861212842865667,
0.10932668329177057,0.002165642729139516,
0.10937655860349127,0.01428726977383706,
0.10942643391521197,-0.02598127385383782,
0.10947630922693267,0.008589148277567508,
0.10952618453865337,-0.01661025464889896,
0.10957605985037407,-0.014052089447016337,
0.10962593516209476,0.0040860827697941715,
0.10967581047381546,-0.010182005218069322,
0.10972568578553615,0.010489557333852956,
0.10977556109725686,0.022705261592492403,
0.10982543640897756,0.02377611014600775,
0.10987531172069825,0.0065592928293381845,
0.10992518703241895,-0.010247282044642704,
0.10997506234413965,-0.011236910242548248,
0.11002493765586036,0.0077171854647924785,
0.11007481296758105,-0.011695117191520917,
0.11012468827930175,-0.017045234581796603,
0.11017456359102244,0.03815993652983195,
0.11022443890274314,-0.006132963276629192,
0.11027431421446383,0.031397386583787726,
0.11032418952618454,0.0077205595151982375,
0.11037406483790524,-0.008777162384702953,
0.11042394014962593,0.01997034495900734,
0.11047381546134663,-0.001573035217800698,
0.11052369077306733,-0.016875945425825097,
0.11057356608478804,-0.002910888261085552,
0.11062344139650873,-0.0017680675898294569,
0.11067331670822943,-0.01184103179765324,
0.11072319201995012,-0.0018059823818681216,
0.11077306733167082,0.005680099466081223,
0.11082294264339151,0.005216168345683819,
0.11087281795511222,-0.023960669051272348,
0.11092269326683292,-0.01743954792427134,
0.11097256857855362,0.024797878823128526,
0.11102244389027431,0.0046911225956639295,
0.111072319201995,0.009828086596289032,
0.11112219451371572,-0.0012363658349628121,
0.11117206982543641,0.020943215638659782,
0.11122194513715711,-0.003012835585101254,
0.1112718204488778,0.014870022843330544,
0.1113216957605985,0.016451115769530587,
0.11137157107231921,0.009681928268194305,
0.1114214463840399,0.0069574395481290015,
0.1114713216957606,0.01960588454109087,
0.1115211970074813,0.015729281047590204,
0.11157107231920199,-0.007996303258518243,
0.11162094763092269,0.019029118081692248,
0.1116708229426434,-0.009738707257003246,
0.11172069825436409,0.0018767622628855663,
0.11177057356608479,0.02131893767022676,
0.11182044887780548,0.012259391451037523,
0.11187032418952618,0.017959158677423738,
0.11192019950124689,0.02950095256646544,
0.11197007481296758,0.007971400121985828,
0.11201995012468828,0.03330007711256313,
0.11206982543640898,-0.0004471050426798767,
0.11211970074812967,0.011603523665042609,
0.11216957605985037,-0.0016490434287045816,
0.11221945137157108,0.0026087688798945192,
0.11226932668329177,0.008436629383863109,
0.11231920199501247,-0.006846364965039962,
0.11236907730673316,0.028279147086211275,
0.11241895261845386,0.038786616245249414,
0.11246882793017457,0.028842873746870737,
0.11251870324189527,-0.004777758738627628,
0.11256857855361596,0.001459413553775499,
0.11261845386533666,0.0018925729466473546,
0.11266832917705735,0.027466749626972688,
0.11271820448877805,0.02481531846350386,
0.11276807980049876,0.008756933917038509,
0.11281795511221945,0.0071601793204004414,
0.11286783042394015,0.003421131312879905,
0.11291770573566084,0.030355852651567764,
0.11296758104738154,0.019291215065895692,
0.11301745635910225,0.015600819508867046,
0.11306733167082295,0.0013760988912533134,
0.11311720698254364,-0.004588214626432861,
0.11316708229426434,-0.0037990386263671884,
0.11321695760598503,0.048558276648411995,
0.11326683291770574,0.0052764129967596066,
0.11331670822942644,-0.01815625018807373,
0.11336658354114713,0.03195889621407151,
0.11341645885286783,-0.00871965598299249,
0.11346633416458853,-0.00527601290029257,
0.11351620947630922,0.004043325150099395,
0.11356608478802993,-0.005168508195007582,
0.11361596009975063,0.028652002265750088,
0.11366583541147132,0.03516350638599198,
0.11371571072319202,0.05297042985056888,
0.11376558603491271,0.023657588839392778,
0.11381546134663342,-0.002340644683484938,
0.11386533665835412,0.014113662684448457,
0.11391521197007481,-0.011196066361076017,
0.11396508728179551,0.0048199830586720185,
0.1140149625935162,0.033320949580327115,
0.1140648379052369,0.016439932231813545,
0.11411471321695761,-0.0023186296689588215,
0.1141645885286783,0.016454847675725665,
0.114214463840399,-0.0005441935916113277,
0.1142643391521197,0.022186202858265364,
0.1143142144638404,0.01086470881230184,
0.1143640897755611,0.059767129627074984,
0.1144139650872818,0.03438606166432372,
0.1144638403990025,0.013331037601940475,
0.11451371571072319,0.021381664651527275,
0.11456359102244389,0.020528983140008245,
0.11461346633416458,0.03821887430096514,
0.11466334164588529,0.03464608113428425,
0.11471321695760599,0.052365141133254516,
0.11476309226932668,0.0253429687484117,
0.11481296758104738,0.0215418055575063,
0.11486284289276807,0.0473233524953658,
0.11491271820448878,0.014323073193561254,
0.11496259351620948,0.00883571432959547,
0.11501246882793018,0.03404343481205231,
0.11506234413965087,0.03340361023520895,
0.11511221945137157,0.006421498991285631,
0.11516209476309226,0.04222700766585865,
0.11521197007481297,0.016979016355851397,
0.11526184538653367,0.027432228155443727,
0.11531172069825436,0.03593136640672965,
0.11536159600997506,0.01723925289542736,
0.11541147132169575,0.014411598736350187,
0.11546134663341646,0.02861727436118661,
0.11551122194513716,0.035385814623551656,
0.11556109725685786,0.026886493464483095,
0.11561097256857855,0.022116470559036885,
0.11566084788029925,0.037092054013907805,
0.11571072319201996,0.010489812994746793,
0.11576059850374065,-0.004657058208349468,
0.11581047381546135,0.022352650535848582,
0.11586034912718204,0.0341809262917552,
0.11591022443890274,0.02355188042351801,
0.11596009975062344,0.02022564155002854,
0.11600997506234415,0.026571495745125445,
0.11605985037406484,0.03610237494339204,
0.11610972568578554,0.04380608063805054,
0.11615960099750623,0.05232824625971083,
0.11620947630922693,0.025740158301029395,
0.11625935162094764,0.016686535643002102,
0.11630922693266833,0.06136763479045448,
0.11635910224438903,0.025637936157451725,
0.11640897755610972,0.05143264968194583,
0.11645885286783042,0.03921482155520366,
0.11650872817955112,0.024965238525957535,
0.11655860349127183,0.03218433408912944,
0.11660847880299252,0.025301942086815674,
0.11665835411471322,0.04623201777071398,
0.11670822942643391,0.03746730098198297,
0.11675810473815461,0.03569522518985642,
0.11680798004987532,0.028229467182942905,
0.11685785536159601,0.02784246497324781,
0.11690773067331671,0.0168145178843108,
0.1169576059850374,0.030263395728915284,
0.1170074812967581,0.033975317432006,
0.1170573566084788,0.00494591369022708,
0.1171072319201995,0.02947097844205564,
0.1171571072319202,0.02418147199279589,
0.1172069825436409,0.05068381204025271,
0.1172568578553616,0.020819841814828766,
0.11730673316708229,0.0467240713341827,
0.117356608478803,0.03272089938780733,
0.1174064837905237,0.015992477975146843,
0.11745635910224439,0.03266963306473255,
0.11750623441396509,0.03976366426975695,
0.11755610972568578,0.04483884018500926,
0.11760598503740648,0.020547717477196862,
0.11765586034912719,0.02651303864889669,
0.11770573566084788,0.018239399505295337,
0.11775561097256858,-0.004157272135637116,
0.11780548628428927,-0.008499303658060876,
0.11785536159600997,0.05549535892481579,
0.11790523690773068,0.034749604253118085,
0.11795511221945137,0.007568590948729689,
0.11800498753117207,0.025203815858030932,
0.11805486284289277,0.030307830797280104,
0.11810473815461346,0.03247228588582116,
0.11815461346633417,0.018392134495817527,
0.11820448877805487,0.03359866717041937,
0.11825436408977556,0.02939490720894182,
0.11830423940149626,0.03846750364102117,
0.11835411471321695,0.0038113216170590214,
0.11840399002493765,0.03980135658505668,
0.11845386533665836,0.017355095648252102,
0.11850374064837906,0.0018786510419909301,
0.11855361596009975,0.032707432963529105,
0.11860349127182045,0.012046293634220061,
0.11865336658354114,0.030116083441794325,
0.11870324189526185,0.03287026743186131,
0.11875311720698255,0.020796296075667672,
0.11880299251870324,0.016320141810856465,
0.11885286783042394,0.012174264592963776,
0.11890274314214463,-0.0018227032672367416,
0.11895261845386533,0.03501512282948849,
0.11900249376558604,0.00868495874054242,
0.11905236907730674,-0.024077689136478224,
0.11910224438902743,0.021960404292114474,
0.11915211970074813,0.029492283993144998,
0.11920199501246882,0.039691614665802795,
0.11925187032418953,0.006982190816658672,
0.11930174563591023,0.02727987507536822,
0.11935162094763092,0.02329906547484546,
0.11940149625935162,0.02568274584431445,
0.11945137157107232,0.01385645050429194,
0.11950124688279301,0.03343237845283142,
0.11955112219451372,0.012921235387020173,
0.11960099750623442,0.05922196330554646,
0.11965087281795511,0.0054909619170268875,
0.11970074812967581,0.0192055275614603,
0.1197506234413965,0.020552320798677384,
0.11980049875311721,0.04112060839503626,
0.11985037406483791,0.034001429720484304,
0.1199002493765586,-0.014498617956507542,
0.1199501246882793,0.011384513872024792,
0.12,0.007640073995167026,
0.1200498753117207,0.03125278133669618,
0.1200997506234414,0.025361494913215633,
0.1201496259351621,1.233434721267801e-05,
0.12019950124688279,-0.0044724791401173705,
0.12024937655860349,0.037346529794289166,
0.12029925187032418,0.04712055917089947,
0.1203491271820449,0.030486156504471576,
0.12039900249376559,0.024666361710072613,
0.12044887780548628,-0.0023096944668752513,
0.12049875311720698,0.0003307005141876731,
0.12054862842892768,-0.01455874990136153,
0.12059850374064839,0.044312044789196876,
0.12064837905236908,-0.020384381666594675,
0.12069825436408978,0.03281600318293654,
0.12074812967581047,0.03788694186785797,
0.12079800498753117,0.01491575972182855,
0.12084788029925186,0.03373448999264163,
0.12089775561097257,0.0080390344647749,
0.12094763092269327,0.01855860702894901,
0.12099750623441397,0.024087964626962454,
0.12104738154613466,0.016709916890107555,
0.12109725685785536,-0.00475011062907885,
0.12114713216957607,0.006770276045508565,
0.12119700748129676,0.01722622532864407,
0.12124688279301746,0.0011843718187606826,
0.12129675810473815,0.03732115580963443,
0.12134663341645885,0.006804185531247407,
0.12139650872817954,0.012010455497550861,
0.12144638403990025,0.029462900696632724,
0.12149625935162095,-0.016146967465734047,
0.12154613466334165,0.01871284603401199,
0.12159600997506234,0.0066274017523075875,
0.12164588528678304,0.015870658104098007,
0.12169576059850375,0.0015309413383738585,
0.12174563591022444,0.022530542542642182,
0.12179551122194514,0.009352319691932273,
0.12184538653366583,-0.002668655000604406,
0.12189526184538653,0.020200673556379833,
0.12194513715710723,0.020366237809447237,
0.12199501246882793,-0.011398324343700496,
0.12204488778054863,-0.010039416204095507,
0.12209476309226933,0.0074369770443547655,
0.12214463840399002,0.014288017474511968,
0.12219451371571072,-0.01571549911729727,
0.12224438902743143,-0.01818986492868231,
0.12229426433915212,0.04456020692525372,
0.12234413965087282,-0.005311755970001066,
0.12239401496259351,0.008215716637434192,
0.12244389027431421,0.011421088025125627,
0.12249376558603492,-0.032553017921759575,
0.12254364089775562,0.0018527725284941392,
0.12259351620947631,0.0020662712196381555,
0.122643391521197,0.015392599296075147,
0.1226932668329177,-0.0019735079180490432,
0.1227431421446384,0.019652539664401593,
0.12279301745635911,0.010998791343722504,
0.1228428927680798,0.007094591951819673,
0.1228927680798005,0.0051818816018724834,
0.1229426433915212,0.0025563281542066193,
0.12299251870324189,-0.006821876858987775,
0.1230423940149626,-0.00032895401068303845,
0.1230922693266833,0.00675168927963109,
0.12314214463840399,0.014364402217652757,
0.12319201995012469,0.008859047933456304,
0.12324189526184538,-0.00760852382250779,
0.12329177057356608,0.004765619396636039,
0.12334164588528679,0.007592946966293876,
0.12339152119700748,0.012731516463731952,
0.12344139650872818,-0.010128903147579756,
0.12349127182044888,-0.011110205669250774,
0.12354114713216957,-0.00958136207469323,
0.12359102244389028,-0.017803242211635886,
0.12364089775561098,0.005313066221544921,
0.12369077306733167,-0.00071079637642988,
0.12374064837905237,0.03700218080529474,
0.12379052369077306,-0.0023092148662216734,
0.12384039900249376,0.003266194213127083,
0.12389027431421447,-0.009952098965104156,
0.12394014962593516,0.02181851189342494,
0.12399002493765586,-0.014987112789109408,
0.12403990024937656,0.0010213565835596782,
0.12408977556109725,0.009374630258042482,
0.12413965087281796,-0.006363025729275751,
0.12418952618453866,0.0035575513987541815,
0.12423940149625935,0.00021825636070470222,
0.12428927680798005,-0.009939268548429615,
0.12433915211970074,-0.014789549618759945,
0.12438902743142144,-0.024305969877930777,
0.12443890274314215,-0.015068970896435567,
0.12448877805486284,0.0004456538352413074,
0.12453865336658354,0.00621449996710698,
0.12458852867830424,0.00797725202728016,
0.12463840399002493,-0.004772901535484277,
0.12468827930174564,-0.015968049454591935,
0.12473815461346634,-0.0053287462533155375,
0.12478802992518703,0.004664911987606548,
0.12483790523690773,-0.000834382153851676,
0.12488778054862842,0.0059483285342741415,
0.12493765586034913,-0.00938451362502852,
0.12498753117206983,0.012819476976549912,
0.12503740648379053,-0.012485847388921844,
0.12508728179551123,-0.020782883361984545,
0.12513715710723192,-0.008014175269228515,
0.12518703241895263,-0.013019096984193205,
0.1252369077306733,-0.020304573185949026,
0.12528678304239402,-0.005281343923727883,
0.1253366583541147,-0.01895575385672542,
0.1253865336658354,0.0096127101539732,
0.12543640897755612,-0.014045946762734103,
0.1254862842892768,-0.007821582622312875,
0.1255361596009975,-0.0033007119991006985,
0.1255860349127182,-0.00872688535064315,
0.1256359102244389,-0.004966097297561672,
0.1256857855361596,-0.008112485700893466,
0.1257356608478803,-0.026056730933871796,
0.125785536159601,-0.04739961324192232,
0.12583541147132168,-0.021451191499664696,
0.1258852867830424,-0.014581269585973312,
0.1259351620947631,-0.0063321771745163905,
0.12598503740648379,-0.007615386004962541,
0.1260349127182045,0.0036981676426281127,
0.12608478802992518,-0.015300220263906586,
0.1261346633416459,-0.02977872013846823,
0.1261845386533666,0.008971313419242863,
0.12623441396508728,-0.012024143766800853,
0.126284289276808,-0.025349832069226204,
0.12633416458852867,-0.026004000663260255,
0.12638403990024938,-0.009581003235510043,
0.1264339152119701,-0.004103843338963025,
0.12648379052369077,-0.03820101429760645,
0.12653366583541148,-0.009867119221878828,
0.12658354114713216,-0.008860627562222435,
0.12663341645885287,-0.00421162609269365,
0.12668329177057355,-0.020155820142307705,
0.12673316708229426,0.005016095102884413,
0.12678304239401497,0.012870452915822127,
0.12683291770573565,-0.0060990315874091755,
0.12688279301745636,-0.01313611703582778,
0.12693266832917705,-0.020205762025934645,
0.12698254364089775,-0.02572057922083248,
0.12703241895261846,-0.006507028045545801,
0.12708229426433915,-0.009298584301883687,
0.12713216957605986,-0.013970732028548438,
0.12718204488778054,-0.02220873706943485,
0.12723192019950125,-0.011813875922573831,
0.12728179551122196,-0.009727894361500549,
0.12733167082294264,-0.01974329477678135,
0.12738154613466335,-0.009569500156769623,
0.12743142144638403,-0.028921887666223105,
0.12748129675810474,0.003295727233683982,
0.12753117206982545,9.407295731657037e-05,
0.12758104738154613,-0.009784379636349986,
0.12763092269326684,-0.0024013931966652092,
0.12768079800498752,-0.021968205670927683,
0.12773067331670823,-0.03266919244779901,
0.1277805486284289,-0.024478585356244198,
0.12783042394014962,0.01086769102167125,
0.12788029925187033,-0.004652202482927278,
0.12793017456359101,-0.01643398920857194,
0.12798004987531172,-0.010167351048785647,
0.1280299251870324,-0.027337307297226013,
0.12807980049875312,0.0017586554821860927,
0.12812967581047383,-0.028368268865638313,
0.1281795511221945,-0.01183185273874556,
0.12822942643391522,-0.036306758558901975,
0.1282793017456359,-0.002153281205648905,
0.1283291770573566,-0.007525266662821493,
0.12837905236907732,-0.013217166897771608,
0.128428927680798,-0.014183062181135905,
0.1284788029925187,-0.01803779984470023,
0.1285286783042394,0.00036750915823903236,
0.1285785536159601,-0.02249264652278734,
0.1286284289276808,-0.0069446790783304875,
0.1286783042394015,0.017612668586206498,
0.1287281795511222,0.005445042520992181,
0.12877805486284288,0.014166112323748654,
0.1288279301745636,-0.005531047983833436,
0.1288778054862843,0.004452465702184508,
0.12892768079800498,-0.017351337775235866,
0.1289775561097257,-0.03502283557690505,
0.12902743142144638,-0.011226213261117664,
0.12907730673316709,-0.03686178301208612,
0.12912718204488777,0.003909294019106077,
0.12917705735660848,-0.011545918777154596,
0.1292269326683292,0.01217377124889407,
0.12927680798004987,-0.026884169620275795,
0.12932668329177058,-0.0027282230730314443,
0.12937655860349126,-0.014152855672968704,
0.12942643391521197,-0.0020009592398234875,
0.12947630922693268,0.004601036970721229,
0.12952618453865336,0.02458872622430936,
0.12957605985037407,0.013205763136095809,
0.12962593516209475,-0.007462005625448606,
0.12967581047381546,0.045892695671455194,
0.12972568578553617,0.01690631790834856,
0.12977556109725685,-0.003334289243313012,
0.12982543640897756,-0.0009230375822595306,
0.12987531172069824,-0.0013212835558479852,
0.12992518703241895,0.0048698798499896495,
0.12997506234413966,0.002084412599074192,
0.13002493765586035,-0.005610464185544894,
0.13007481296758105,0.0006594584471983191,
0.13012468827930174,0.009332524938331865,
0.13017456359102245,-0.014675784068971626,
0.13022443890274316,0.016792180534044625,
0.13027431421446384,-0.01912047601142012,
0.13032418952618455,0.009092788697578336,
0.13037406483790523,-0.007265426002275357,
0.13042394014962594,-0.02234762149285216,
0.13047381546134662,-0.015828007870420498,
0.13052369077306733,0.016686627057126844,
0.13057356608478804,0.0037107818815325724,
0.13062344139650872,0.015581133986430218,
0.13067331670822943,0.01882045556054249,
0.1307231920199501,-0.014502766488800889,
0.13077306733167082,0.029311743431945553,
0.13082294264339153,-0.010130531064398625,
0.13087281795511221,0.02175894963933491,
0.13092269326683292,0.04020015423708789,
0.1309725685785536,0.0046684776068145195,
0.13102244389027431,-0.008157073704330737,
0.13107231920199502,0.011867260355540712,
0.1311221945137157,0.011700274232904428,
0.13117206982543642,0.019172603099322533,
0.1312219451371571,0.009000430974485088,
0.1312718204488778,-0.007420175254179458,
0.13132169576059852,0.011420191301517061,
0.1313715710723192,0.035425648342694877,
0.1314214463840399,0.010621468098867087,
0.1314713216957606,0.019974102704554915,
0.1315211970074813,-0.009226711707922405,
0.13157107231920198,0.029808622166126432,
0.1316209476309227,0.02408011757712856,
0.1316708229426434,-0.0032021163438021444,
0.13172069825436408,0.02947050942225049,
0.1317705735660848,0.026439872556219064,
0.13182044887780547,-0.00832732677324734,
0.13187032418952618,0.03490779154262713,
0.1319201995012469,0.02442918006342363,
0.13197007481296757,0.013461521839816828,
0.13201995012468828,0.0187973644446736,
0.13206982543640897,0.031744306864169645,
0.13211970074812968,0.009553730087015608,
0.13216957605985039,0.0035723331911331046,
0.13221945137157107,-0.025192388259309015,
0.13226932668329178,-0.0032525782844138856,
0.13231920199501246,-0.0005393669590631738,
0.13236907730673317,0.010888167223990218,
0.13241895261845388,0.06280674778269632,
0.13246882793017456,0.011209486081445907,
0.13251870324189527,0.005288318750432551,
0.13256857855361595,0.029147456327826636,
0.13261845386533666,0.01813539498792825,
0.13266832917705737,0.017072376544078154,
0.13271820448877805,-0.009302164466482944,
0.13276807980049876,-0.012445146448054493,
0.13281795511221944,0.0036786024001946444,
0.13286783042394015,0.030936767917152424,
0.13291770573566083,0.026717439020253652,
0.13296758104738154,0.03362462161346594,
0.13301745635910225,0.0071840150066510115,
0.13306733167082294,0.025094816756024173,
0.13311720698254365,0.03798052968465,
0.13316708229426433,0.01012042990296442,
0.13321695760598504,0.016588932350302885,
0.13326683291770575,0.04907063594634066,
0.13331670822942643,0.04891623784799534,
0.13336658354114714,0.017046532088512385,
0.13341645885286782,0.008318020843327025,
0.13346633416458853,0.03146222881886417,
0.13351620947630924,0.04180406610880197,
0.13356608478802992,0.04573058592019613,
0.13361596009975063,0.007326526448935436,
0.1336658354114713,0.026488878366565785,
0.13371571072319202,0.024055113483885806,
0.13376558603491273,0.04641642032004564,
0.1338154613466334,0.011084161669122525,
0.13386533665835412,0.005804710012128466,
0.1339152119700748,0.041757397276173364,
0.13396508728179551,0.0086263863742226,
0.1340149625935162,0.017479912126873342,
0.1340648379052369,0.02789421921396824,
0.13411471321695762,0.03432021857774087,
0.1341645885286783,0.025213358288127798,
0.134214463840399,0.0074211253495287816,
0.1342643391521197,0.03397010629438937,
0.1343142144638404,0.041669018979189426,
0.1343640897755611,0.017317297443906345,
0.1344139650872818,0.026796172421360297,
0.1344638403990025,0.008570358179649552,
0.13451371571072318,0.050158694519160496,
0.1345635910224439,0.0283352129959449,
0.1346134663341646,0.0021076232248362844,
0.13466334164588528,0.0355642135543047,
0.134713216957606,0.017334733685866154,
0.13476309226932667,0.01803326141013297,
0.13481296758104738,0.014106548741284627,
0.1348628428927681,0.0391562538943278,
0.13491271820448877,0.03381148950276077,
0.13496259351620948,0.01119741199506816,
0.13501246882793017,0.04990112400404803,
0.13506234413965088,0.022188410485056854,
0.13511221945137158,0.006802748113285292,
0.13516209476309227,0.03719204839896959,
0.13521197007481298,0.019476948684304315,
0.13526184538653366,0.020191662125092942,
0.13531172069825437,0.02767916590387831,
0.13536159600997505,0.01466404268506146,
0.13541147132169576,0.020782432974549875,
0.13546134663341647,0.025778278421152555,
0.13551122194513715,0.02734265047286837,
0.13556109725685786,0.0328928969544599,
0.13561097256857854,0.024227686391275177,
0.13566084788029925,0.021328731633475692,
0.13571072319201996,0.04244065091093873,
0.13576059850374064,0.019988274397675004,
0.13581047381546135,0.05055373775571595,
0.13586034912718203,0.04624935305958014,
0.13591022443890274,0.034090305189036926,
0.13596009975062345,0.03745616738212211,
0.13600997506234414,0.015906806150834958,
0.13605985037406484,0.03406933790089444,
0.13610972568578553,-0.0117869281458967,
0.13615960099750624,0.02859900943666879,
0.13620947630922695,0.031438232273481366,
0.13625935162094763,0.03223299442428359,
0.13630922693266834,0.03112778423736229,
0.13635910224438902,0.05722630900073317,
0.13640897755610973,0.05192961358698173,
0.1364588528678304,0.052371072066808244,
0.13650872817955112,0.05118308819770029,
0.13655860349127183,0.03155452180486961,
0.1366084788029925,0.03240190956829122,
0.13665835411471322,0.028964277375137085,
0.1367082294264339,0.06885023489676512,
0.1367581047381546,0.005508472481622052,
0.13680798004987532,0.009392002361471665,
0.136857855361596,0.03353661795930131,
0.1369077306733167,0.044813087114243116,
0.1369576059850374,0.004601957004822372,
0.1370074812967581,0.03887971284323921,
0.13705735660847881,0.047247728966420946,
0.1371072319201995,0.05522031108102181,
0.1371571072319202,0.0480357421840337,
0.1372069825436409,0.03505648975252208,
0.1372568578553616,0.065956893371221,
0.1373067331670823,0.04164649619816914,
0.137356608478803,0.02984343350829854,
0.1374064837905237,0.03810059008164565,
0.13745635910224438,0.03239435497887104,
0.1375062344139651,0.0353688660724253,
0.1375561097256858,0.02286944560173263,
0.13760598503740648,0.025383026727770857,
0.1376558603491272,0.025576232697800766,
0.13770573566084787,0.0567513091601976,
0.13775561097256858,0.010175219414609308,
0.13780548628428926,0.016062183698987785,
0.13785536159600997,0.059580375074490086,
0.13790523690773068,0.017432896947550416,
0.13795511221945136,0.031387563422029384,
0.13800498753117207,0.06035330421673073,
0.13805486284289276,0.03650290961409383,
0.13810473815461347,0.04161876973597783,
0.13815461346633418,0.060864880109897664,
0.13820448877805486,0.022135238500104102,
0.13825436408977557,0.034027333364858685,
0.13830423940149625,0.034693534324499814,
0.13835411471321696,0.014536877081651713,
0.13840399002493767,0.03985401508430589,
0.13845386533665835,0.017830348330917296,
0.13850374064837906,0.04065677212517481,
0.13855361596009974,0.04275399259467921,
0.13860349127182045,0.019091933756971807,
0.13865336658354116,0.022345537104596587,
0.13870324189526184,0.007812106991448624,
0.13875311720698255,0.03269634500475543,
0.13880299251870323,0.01365912133217162,
0.13885286783042394,0.045143619143817454,
0.13890274314214462,0.009274288244815732,
0.13895261845386533,0.010931155871397398,
0.13900249376558604,0.028590463551483022,
0.13905236907730673,0.03762513023720224,
0.13910224438902744,0.026707788431196065,
0.13915211970074812,0.01652763190106976,
0.13920199501246883,0.018596023700076462,
0.13925187032418954,0.017876847205897425,
0.13930174563591022,0.011671926777031416,
0.13935162094763093,0.03225824881196148,
0.1394014962593516,0.009216038690083835,
0.13945137157107232,0.06406818947839332,
0.13950124688279303,0.040809847472402835,
0.1395511221945137,0.03084255994837707,
0.13960099750623442,0.03251523304719579,
0.1396508728179551,0.012948452368808497,
0.1397007481296758,0.019373984307966486,
0.13975062344139652,0.008369419880906703,
0.1398004987531172,0.011757390449359053,
0.1398503740648379,0.005961171710638652,
0.1399002493765586,0.03518883084068272,
0.1399501246882793,0.014125352045033533,
0.14,0.03066354651117699,
0.1400498753117207,0.003161626848491337,
0.1400997506234414,0.011265862217114049,
0.1401496259351621,-0.00781500433461375,
0.1401995012468828,0.036935788181692956,
0.14024937655860348,0.027430568203219916,
0.1402992518703242,0.010398386634276403,
0.1403491271820449,0.018718817243591198,
0.14039900249376558,-0.002156092009893803,
0.1404488778054863,-0.006874670237838179,
0.14049875311720697,0.02680966806300944,
0.14054862842892768,0.009936682955685467,
0.1405985037406484,0.026069893052590762,
0.14064837905236907,0.020440417752666543,
0.14069825436408978,0.010392383278965502,
0.14074812967581046,0.013337970649233113,
0.14079800498753117,0.0002110966876724251,
0.14084788029925188,0.006870698062911275,
0.14089775561097256,0.017093847492551398,
0.14094763092269327,0.034380209065501655,
0.14099750623441396,0.014553219534188668,
0.14104738154613466,0.004007324082458765,
0.14109725685785537,0.024105434976636267,
0.14114713216957606,0.021076842802662227,
0.14119700748129677,0.015748598979260637,
0.14124688279301745,-0.006145014660802396,
0.14129675810473816,0.017787728591225377,
0.14134663341645887,0.013983328480568423,
0.14139650872817955,0.0060772319793304325,
0.14144638403990026,-0.009360973797659147,
