time,amplitude,label
0.0,-0.012450497655979421,
4.987531172069826e-05,-0.016039229285573237,
9.975062344139652e-05,-0.011862608260176965,
0.00014962593516209475,-0.00862435866692434,
0.00019950124688279303,0.008480788556268853,
0.00024937655860349125,-0.033032391286877724,
0.0002992518703241895,0.008689842374882652,
0.00034912718204488776,-0.019667450730241946,
0.00039900249376558606,-0.02984548528669266,
0.0004488778054862843,-0.010567257593080718,
0.0004987531172069825,-0.017537710821905392,
0.0005486284289276808,-0.016002035128873732,
0.000598503740648379,-0.010071399537123677,
0.0006483790523690773,0.01010227879546181,
0.0006982543640897755,0.007829993836643998,
0.0007481296758104738,-0.021340938231187465,
0.0007980049875311721,0.0030772958393687506,
0.0008478802992518703,0.018921470167267786,
0.0008977556109725686,-0.024928001957565556,
0.0009476309226932668,0.0018480349520833897,
0.000997506234413965,-0.035200489475597514,
0.0010473815461346633,0.00848095686705053,
0.0010972568578553616,-0.009607000997216677,
0.00114713216957606,0.0025504158326903077,
0.001197007481296758,-0.021632994651746118,
0.0012468827930174563,-0.008647612895303435,
0.0012967581047381546,-0.03374926295943896,
0.001346633416458853,-0.03006540340662478,
0.001396508728179551,-0.0018733749735336007,
0.0014463840399002493,-0.021963049185684078,
0.0014962593516209476,-0.025642753117428113,
0.001546134663341646,-0.023977622589724572,
0.0015960099750623442,-0.021378568666635872,
0.0016458852867830423,0.0005459226001656168,
0.0016957605985037406,-0.011875798291735717,
0.001745635910224439,-0.006555750561145114,
0.0017955112219451373,-0.03085202583884477,
0.0018453865336658353,-0.011903627840581195,
0.0018952618453865336,-0.006949339468054521,
0.001945137157107232,-0.03545076774102504,
0.00199501246882793,-0.0070790584719288875,
0.0020448877805486283,-0.005320626628393876,
0.0020947630922693266,-0.005449450984397236,
0.002144638403990025,-0.01701422574189128,
0.0021945137157107233,-0.014619697227433667,
0.0022443890274314216,-0.0013501112036106758,
0.00229426433915212,0.01471664974291808,
0.0023441396508728177,-0.006822455733177728,
0.002394014962593516,-0.006558730275913808,
0.0024438902743142144,0.00907564387874271,
0.0024937655860349127,0.006307590294129171,
0.002543640897755611,-0.008002993053060365,
0.0025935162094763093,0.018991428578543267,
0.0026433915211970076,0.007455230011485708,
0.002693266832917706,-0.0060608393375776795,
0.002743142144638404,-0.011397613848629674,
0.002793017456359102,0.03019219961199429,
0.0028428927680798004,0.01323353023262024,
0.0028927680798004987,0.00397731117809584,
0.002942643391521197,0.01117246951455824,
0.0029925187032418953,0.0006175772361275093,
0.0030423940149625936,-0.0011019831691073316,
0.003092269326683292,-0.02399478445382259,
0.00314214463840399,-0.0060355516280509065,
0.0031920199501246885,-0.0014428928152452622,
0.0032418952618453864,0.03873546628433075,
0.0032917705735660847,0.005645248203910278,
0.003341645885286783,-0.0032071940405025983,
0.0033915211970074813,0.008589204295913339,
0.0034413965087281796,0.029437931395941624,
0.003491271820448878,0.002463269513069774,
0.003541147132169576,0.00952859575350445,
0.0035910224438902745,0.02513061959781896,
0.0036408977556109724,-0.002821508853334876,
0.0036907730673316707,-0.011407416676122568,
0.003740648379052369,-0.011429495836457196,
0.0037905236907730673,0.002364066940782061,
0.0038403990024937656,0.009252862376160832,
0.003890274314214464,0.0005275705479815488,
0.003940149625935162,-0.00615353001323239,
0.00399002493765586,0.026929212022802684,
0.004039900249376558,-0.02384833465926725,
0.004089775561097257,-0.0011724226040101642,
0.004139650872817955,-0.00012100783226422392,
0.004189526184538653,0.023778920129078993,
0.004239401496259352,-0.011850266479647289,
0.00428927680798005,-0.0005730977118224758,
0.004339152119700748,0.017954605644130695,
0.0043890274314214465,-0.007380134863248063,
0.004438902743142145,-0.0012567816918800934,
0.004488778054862843,-0.0003014088909885342,
0.004538653366583541,0.02618477536097462,
0.00458852867830424,0.002617389324336616,
0.004638403990024938,0.020671922171702068,
0.0046882793017456355,0.024138636327084642,
0.004738154613466334,0.009777732894733156,
0.004788029925187032,0.012439281589601735,
0.00483790523690773,0.02332434593808605,
0.004887780548628429,0.0017088247741634914,
0.004937655860349127,0.03263392264527575,
0.004987531172069825,-0.007079712537967074,
0.005037406483790524,-0.001971145572221141,
0.005087281795511222,0.014273308821951311,
0.00513715710723192,0.005120437381720631,
0.0051870324189526185,0.008791233735741531,
0.005236907730673317,0.03417789868492983,
0.005286783042394015,0.022883775924637615,
0.0053366583541147134,0.0254206001477304,
0.005386533665835412,0.02710743278413559,
0.00543640897755611,-0.013454920613802596,
0.005486284289276808,0.040130441143161916,
0.005536159600997507,0.026045558185390158,
0.005586034912718204,0.03918208428896948,
0.005635910224438902,0.0005812226990703617,
0.005685785536159601,0.008030128742690816,
0.005735660847880299,0.0005078679732092462,
0.005785536159600997,0.0075965851148098364,
0.005835411471321696,0.014756662425589187,
0.005885286783042394,0.021066377387360773,
0.005935162094763092,-0.0086973134044886,
0.0059850374064837905,0.0053791410190741715,
0.006034912718204489,0.024959164836797387,
0.006084788029925187,0.04190724375843577,
0.0061346633416458855,-0.001311823438943427,
0.006184538653366584,0.04272692882047368,
0.006234413965087282,0.02926275976385192,
0.00628428927680798,0.009860045287704011,
0.006334164588528679,0.00663772128522307,
0.006384039900249377,0.03700538362064177,
0.006433915211970074,0.011600039319495933,
0.006483790523690773,0.03255419232750188,
0.006533665835411471,0.01299089286175907,
0.006583541147132169,0.00869366365896016,
0.006633416458852868,0.021419018540064897,
0.006683291770573566,0.031922562053723444,
0.006733167082294264,0.025823218018610775,
0.0067830423940149626,0.024949804365420103,
0.006832917705735661,0.003137855992363773,
0.006882793017456359,0.03187808196056492,
0.0069326683291770575,0.047733871295432675,
0.006982543640897756,-0.007251369732428025,
0.007032418952618454,0.0011635604787987308,
0.007082294264339152,0.0037604169636214213,
0.007132169576059851,0.02077501073505681,
0.007182044887780549,0.026085094542884713,
0.007231920199501247,0.010901394028210666,
0.007281795511221945,0.013968265208872895,
0.007331670822942643,0.024980965493885277,
0.007381546134663341,0.04677811788203767,
0.00743142144638404,0.014032115668662344,
0.007481296758104738,-0.0022639854002052297,
0.007531172069825436,0.023343540674039095,
0.007581047381546135,0.014433804000427814,
0.007630922693266833,0.03226718973694381,
0.007680798004987531,0.044308286981335473,
0.0077306733167082295,0.029679901028255067,
0.007780548628428928,-0.001855151231833902,
0.007830423940149626,0.04539141187190618,
0.007880299251870324,0.02132914805332444,
0.007930174563591023,0.050957786486871964,
0.00798004987531172,0.009161821926104218,
0.00802992518703242,0.028890064329118566,
0.008079800498753117,0.025668908160399184,
0.008129675810473816,0.020403632381580473,
0.008179551122194513,0.04004649996392945,
0.008229426433915213,0.022755572896715252,
0.00827930174563591,0.01392801246300747,
0.00832917705735661,0.004973384387439678,
0.008379052369077307,0.04356267420278155,
0.008428927680798006,0.019520177985216165,
0.008478802992518703,0.007190728915278584,
0.0085286783042394,0.03118990548335932,
0.0085785536159601,0.029258203362005596,
0.008628428927680797,0.01519838525257045,
0.008678304239401496,0.00971986689726467,
0.008728179551122194,0.02284153747595194,
0.008778054862842893,0.045115798640377514,
0.00882793017456359,0.013207067683341935,
0.00887780548628429,0.02539494531389495,
0.008927680798004987,0.0227547332023093,
0.008977556109725686,0.04366223762300779,
0.009027431421446384,0.04207571489972525,
0.009077306733167083,0.005784205939916265,
0.00912718204488778,0.017017952828164113,
0.00917705735660848,0.011320867842450625,
0.009226932668329177,0.037275571670345786,
0.009276807980049876,0.049057912721668845,
0.009326683291770574,0.012576145492461121,
0.009376558603491271,-0.006065360180235256,
0.00942643391521197,0.03281921898298908,
0.009476309226932668,0.010101363065175959,
0.009526184538653367,-0.010573223010747531,
0.009576059850374064,0.028993768886835906,
0.009625935162094763,0.025263007137357265,
0.00967581047381546,0.028298475925827328,
0.00972568578553616,0.020237793546605116,
0.009775561097256857,-0.011784052608471072,
0.009825436408977557,0.0269745018052565,
0.009875311720698254,0.017865231839805176,
0.009925187032418953,0.01075054474147093,
0.00997506234413965,0.016279194170515487,
0.01002493765586035,0.0366834755805655,
0.010074812967581047,0.004804067660573822,
0.010124688279301746,0.005899270621636468,
0.010174563591022444,0.019216652295287486,
0.010224438902743141,0.029093760044442443,
0.01027431421446384,-0.001386450724075186,
0.010324189526184538,0.023043978204949397,
0.010374064837905237,0.035361751943475024,
0.010423940149625935,0.0007374668582580419,
0.010473815461346634,0.019956365652170516,
0.010523690773067331,0.013073898748103212,
0.01057356608478803,0.032696377178294,
0.010623441396508728,0.003083298015050492,
0.010673316708229427,0.02424685920980235,
0.010723192019950124,0.026205893471125556,
0.010773067331670824,-0.01176260319316324,
0.010822942643391521,0.025449679438376165,
0.01087281795511222,0.009135045517552795,
0.010922693266832918,-0.006087419133813863,
0.010972568578553617,-0.002468750287459057,
0.011022443890274314,0.02687091379448053,
0.011072319201995013,0.010240271669015916,
0.01112219451371571,0.023499706544170183,
0.011172069825436408,0.01663639495620107,
0.011221945137157107,0.009970139753375759,
0.011271820448877805,0.014073107378460788,
0.011321695760598504,0.006954506922763131,
0.011371571072319201,0.009177175249976606,
0.0114214463840399,0.00378478045263652,
0.011471321695760598,0.00040885289397290733,
0.011521197007481297,0.02341846929921037,
0.011571072319201995,0.014776036605282334,
0.011620947630922694,0.006300836187597684,
0.011670822942643391,-0.0010136844112527185,
0.01172069825436409,-0.003359822232103505,
0.011770573566084788,-0.0033671778743475126,
0.011820448877805487,0.01795052890090984,
0.011870324189526184,0.009686064136792948,
0.011920199501246884,0.008424476906489804,
0.011970074812967581,0.03237771907781261,
0.012019950124688279,0.0022022314278606877,
0.012069825436408978,-0.009919890852766542,
0.012119700748129675,-0.005080083250754285,
0.012169576059850374,0.014513277179126868,
0.012219451371571072,0.00374857524240316,
0.012269326683291771,-0.004424909445220459,
0.012319201995012468,0.00834384890472912,
0.012369077306733168,-0.012661310854970267,
0.012418952618453865,-0.005821635149516473,
0.012468827930174564,0.017607574725327656,
0.012518703241895262,0.023295750578554642,
0.01256857855361596,-0.01474457673610953,
0.012618453865336658,-0.01167992727419459,
0.012668329177057357,0.037912930847997114,
0.012718204488778055,-0.004924990927908086,
0.012768079800498754,0.02878387094129277,
0.012817955112219451,-0.013934462979205434,
0.012867830423940149,-0.007333031627288358,
0.012917705735660848,-0.0005604000061337276,
0.012967581047381545,0.00266964299065273,
0.013017456359102245,0.01105206606548391,
0.013067331670822942,-0.003316700419950861,
0.013117206982543641,-0.005279268492694636,
0.013167082294264339,-0.007139475207656735,
0.013216957605985038,0.01536052970507476,
0.013266832917705735,0.02906827196776171,
0.013316708229426434,0.011506572879648892,
0.013366583541147132,0.01636280234529675,
0.013416458852867831,0.0050411352943551,
0.013466334164588529,-0.002490086331548249,
0.013516209476309228,-0.0013903021708599505,
0.013566084788029925,-0.009390773736013104,
0.013615960099750624,-0.017246375753724435,
0.013665835411471322,0.013510665022413448,
0.01371571072319202,-0.026039502397870777,
0.013765586034912718,0.0037922102788071647,
0.013815461346633416,-0.009255223249593533,
0.013865336658354115,-0.01513781037572,
0.013915211970074812,0.024807143126350902,
0.013965087281795512,-0.002664179419317929,
0.014014962593516209,0.0031767248849692885,
0.014064837905236908,-0.008025769519558856,
0.014114713216957606,-0.03339451201024296,
0.014164588528678305,-0.0187427433314319,
0.014214463840399002,0.0061683030164393065,
0.014264339152119701,-0.02013336760498756,
0.014314214463840399,-0.023110951455344718,
0.014364089775561098,0.01027491142285827,
0.014413965087281795,-0.012391894682952192,
0.014463840399002495,-0.027399099786842483,
0.014513715710723192,-0.028895590619989815,
0.01456359102244389,-0.00022584070138608435,
0.014613466334164589,-0.019790266155369343,
0.014663341645885286,-0.006368462689816219,
0.014713216957605985,-0.03517951269949195,
0.014763092269326683,-0.03203657822475296,
0.014812967581047382,-0.013608946471135346,
0.01486284289276808,0.0020765749417646744,
0.014912718204488778,0.006488995039025511,
0.014962593516209476,-0.02392627210672331,
0.015012468827930175,-0.02201356982923762,
0.015062344139650873,-0.010280588846157838,
0.015112219451371572,0.02180931796460186,
0.01516209476309227,-0.014356730763263187,
0.015211970074812968,-0.017348545130955583,
0.015261845386533666,-0.02763535325470685,
0.015311720698254365,-0.011172905410026959,
0.015361596009975062,-0.005467710358129133,
0.01541147132169576,0.0011010481593171726,
0.015461346633416459,-0.010316016164406328,
0.015511221945137156,-0.003877513006427233,
0.015561097256857856,-0.03616077822280393,
0.015610972568578553,-0.00092607818825707,
0.015660847880299252,-0.015766767106657708,
0.01571072319201995,-0.029795398731282518,
0.015760598503740647,-0.046651859456304096,
0.015810473815461346,0.00545260126137183,
0.015860349127182045,-0.007453604872691209,
0.015910224438902745,-0.0192510367545439,
0.01596009975062344,-0.01192977094824514,
0.01600997506234414,-0.015698707098306525,
0.01605985037406484,-0.03251023422528061,
0.016109725685785538,-0.03311954760590739,
0.016159600997506234,-0.01151681582549004,
0.016209476309226933,-0.012086260710970626,
0.016259351620947632,-0.02994823266923165,
0.016309226932668328,-0.04490105487902303,
0.016359102244389027,0.0036886521644881667,
0.016408977556109726,-0.006936972712900337,
0.016458852867830425,-0.02757484826542647,
0.01650872817955112,0.020185547852051004,
0.01655860349127182,-0.007202498303080148,
0.01660847880299252,-0.00519659128130137,
0.01665835411471322,-0.01327628720333406,
0.016708229426433914,-0.020450890715681947,
0.016758104738154613,-0.03324340504877232,
0.016807980049875312,0.001185440604752383,
0.01685785536159601,-0.013486026304770068,
0.016907730673316707,-0.020020400498910254,
0.016957605985037406,-0.032240220182164506,
0.017007481296758106,-0.032851191068407226,
0.0170573566084788,-0.04166509440270194,
0.0171072319201995,-0.009393626774275196,
0.0171571072319202,-0.015911232096892144,
0.0172069825436409,-0.024406690814844555,
0.017256857855361595,-0.01244101711083561,
0.017306733167082294,-0.02378301256254505,
0.017356608478802993,-0.03351876214212019,
0.017406483790523692,-0.018853528134728074,
0.017456359102244388,0.014173420896465564,
0.017506234413965087,-0.03589115087712669,
0.017556109725685786,-0.018232662627896513,
0.017605985037406485,-0.040964839064290035,
0.01765586034912718,-0.019225389783290255,
0.01770573566084788,-0.00598654844643203,
0.01775561097256858,-0.0184010363356908,
0.01780548628428928,-0.04275557216606353,
0.017855361596009974,-0.004921265472239899,
0.017905236907730673,-0.01838445562210684,
0.017955112219451373,-0.016376109915496352,
0.018004987531172068,-0.007207686156132289,
0.018054862842892767,-0.030772991688154717,
0.018104738154613467,-0.02935531359748899,
0.018154613466334166,-0.018101987289311738,
0.01820448877805486,-0.012872679193858259,
0.01825436408977556,-0.022344503308364017,
0.01830423940149626,-0.013576142424227042,
0.01835411471321696,-0.017848202377562603,
0.018403990024937655,-0.018979687191368125,
0.018453865336658354,-0.03281476463791806,
0.018503740648379053,-0.03085887742064366,
0.018553615960099752,-0.03900768120445294,
0.018603491271820448,-0.0050270719042394465,
0.018653366583541147,-0.0006711659015473034,
0.018703241895261846,-0.003702778988324454,
0.018753117206982542,-0.011310376039108146,
0.01880299251870324,-0.04101514610390808,
0.01885286783042394,0.005473926701515943,
0.01890274314214464,-0.005068967533089988,
0.018952618453865335,-0.012581084744804235,
0.019002493765586034,-0.012901322067719278,
0.019052369077306733,-0.01262411272639441,
0.019102244389027433,0.001468306410782702,
0.01915211970074813,-0.0018893667206282341,
0.019201995012468828,-0.017408742266256643,
0.019251870324189527,-0.03208732244140493,
0.019301745635910226,-0.0012108566267718928,
0.01935162094763092,-5.472883430463968e-05,
0.01940149625935162,-0.019366604248804077,
0.01945137157107232,-0.028437442963485146,
0.01950124688279302,-0.005789224030581979,
0.019551122194513715,-0.03465781789156922,
0.019600997506234414,-0.024343496335448526,
0.019650872817955113,-0.01439807407282775,
0.01970074812967581,-0.042233884039143604,
0.019750623441396508,-0.011442490135471387,
0.019800498753117207,-0.011467732213463581,
0.019850374064837906,0.0019703089423884525,
0.019900249376558602,-0.016059204018336357,
0.0199501246882793,-0.02456007813191903,
0.02,-0.024809281054141,
0.0200498753117207,-0.05268934311019102,
0.020099750623441395,-0.024977249857590998,
0.020149625935162094,0.016895130714182596,
0.020199501246882794,-0.03350118292268625,
0.020249376558603493,-0.017141332290207614,
0.02029925187032419,-0.025137163285035985,
0.020349127182044888,-0.014099859480832123,
0.020399002493765587,-0.016152894650185802,
0.020448877805486283,0.008963121331319235,
0.02049875311720698,-0.020643164569787573,
0.02054862842892768,-0.008997760130040871,
0.02059850374064838,-0.03444447094279059,
0.020648379052369076,-0.018871281267946675,
0.020698254364089775,-0.02460392895617581,
0.020748129675810474,-0.006960466384704524,
0.020798004987531173,-0.0019270242519126759,
0.02084788029925187,-0.007646286528435634,
0.020897755610972568,-0.029601437977466213,
0.020947630922693267,8.920942284451963e-05,
0.020997506234413967,-0.017384229212821668,
0.021047381546134662,-0.029032899139195812,
0.02109725685785536,0.002494777728225714,
0.02114713216957606,0.022027927856686762,
0.02119700748129676,-0.019466212948548202,
0.021246882793017455,-0.0035192805446729687,
0.021296758104738155,-0.029172064264002474,
0.021346633416458854,-0.01648661574053432,
0.02139650872817955,-0.03634815904707957,
0.02144638403990025,-0.003724799275430135,
0.021496259351620948,-0.010446938034518561,
0.021546134663341647,-0.006793632199304465,
0.021596009975062343,-0.023819983097167968,
0.021645885286783042,-0.016064082177199866,
0.02169576059850374,-0.011039612196246046,
0.02174563591022444,-0.007035231122725187,
0.021795511221945136,-0.003668730890046013,
0.021845386533665835,0.01624855888572639,
0.021895261845386534,-0.015273512777756295,
0.021945137157107233,0.023630330150318513,
0.02199501246882793,-0.012520908897928793,
0.02204488778054863,-0.018975144305740353,
0.022094763092269327,0.002279443814450782,
0.022144638403990027,0.0012823592132501366,
0.022194513715710722,-0.013063478952338194,
0.02224438902743142,-0.019141505177017817,
0.02229426433915212,-0.012946125297460045,
0.022344139650872816,0.016661293254373405,
0.022394014962593516,-0.004658553616000151,
0.022443890274314215,0.002684994750764888,
0.022493765586034914,0.013924857187423222,
0.02254364089775561,-0.000487248386432605,
0.02259351620947631,-0.008383018714983294,
0.022643391521197008,0.006238385573082055,
0.022693266832917707,0.016254979274352356,
0.022743142144638403,0.003445805245467928,
0.022793017456359102,-0.011151241616984036,
0.0228428927680798,-0.020989262675856882,
0.0228927680798005,-0.006446549512518789,
0.022942643391521196,-0.028034061831983974,
0.022992518703241895,0.0022176268181852985,
0.023042394014962594,0.028256937220066485,
0.02309226932668329,0.004169477111316641,
0.02314214463840399,-0.003215421557815844,
0.02319201995012469,0.0062808398193138215,
0.023241895261845388,0.0027440945528350597,
0.023291770573566083,0.014012754114968707,
0.023341645885286783,0.005803069944208556,
0.02339152119700748,0.0010983058275854537,
0.02344139650872818,0.0054118344630887764,
0.023491271820448877,0.0034183650170658266,
0.023541147132169576,0.004168323625867108,
0.023591022443890275,0.012016778745318219,
0.023640897755610974,0.0087647273483983,
0.02369077306733167,0.01990403583590799,
0.02374064837905237,0.014843183763644498,
0.023790523690773068,0.01808059653266162,
0.023840399002493767,0.012016217925818869,
0.023890274314214463,0.012948253920549883,
0.023940149625935162,0.03191911269341209,
0.02399002493765586,0.019472475617513817,
0.024039900249376557,-0.010877701555117514,
0.024089775561097256,0.03765393717781625,
0.024139650872817955,0.022302109347897267,
0.024189526184538655,0.009904815015662328,
0.02423940149625935,0.008739810924824253,
0.02428927680798005,0.014254762790461473,
0.02433915211970075,0.009922368142341098,
0.024389027431421448,0.013922300419102052,
0.024438902743142144,0.00831135225558394,
0.024488778054862843,0.011458766535083391,
0.024538653366583542,0.03335236795206771,
0.02458852867830424,0.03757118359522254,
0.024638403990024937,0.010535515635616461,
0.024688279301745636,0.019508337501768815,
0.024738154613466335,0.033642901296474785,
0.02478802992518703,-0.0033149366996175957,
0.02483790523690773,0.0019141103248964588,
0.02488778054862843,-0.009940993934635314,
0.02493765586034913,0.03510580806714983,
0.024987531172069824,0.021799161107107237,
0.025037406483790523,0.03399085763518753,
0.025087281795511222,0.003873563530291009,
0.02513715710723192,0.01885939320370012,
0.025187032418952617,0.013318322635359673,
0.025236907730673316,0.03162888170967926,
0.025286783042394016,0.0166601423431667,
0.025336658354114715,-0.0014387096233550861,
0.02538653366583541,0.024796290072131404,
0.02543640897755611,-0.004994327454740204,
0.02548628428927681,0.04043369430401823,
0.025536159600997508,0.0031726693456230765,
0.025586034912718204,0.0173843216525489,
0.025635910224438903,-0.002871045922758258,
0.025685785536159602,0.03577375693604716,
0.025735660847880298,0.027037848912549213,
0.025785536159600997,0.01881050811665479,
0.025835411471321696,0.01875158233246254,
0.025885286783042395,0.05910797077167599,
0.02593516209476309,0.02151756714973397,
0.02598503740648379,0.025467760500788365,
0.02603491271820449,0.021958662564657415,
0.02608478802992519,0.02891941913162251,
0.026134663341645884,-0.011426430766061053,
0.026184538653366583,0.006775128582909778,
0.026234413965087282,0.04427063093001074,
0.02628428927680798,0.040933890580403906,
0.026334164588528677,0.013024850251840418,
0.026384039900249377,0.03986440670698055,
0.026433915211970076,0.0392237228285088,
0.02648379052369077,0.0386341916101286,
0.02653366583541147,0.033563879947659775,
0.02658354114713217,0.03607616155218149,
0.02663341645885287,0.0266798970759254,
0.026683291770573565,0.043455633422853135,
0.026733167082294264,0.024611388229191324,
0.026783042394014963,0.03037570909701473,
0.026832917705735662,0.030034257740837712,
0.026882793017456358,0.003361871600694507,
0.026932668329177057,0.0108267616876518,
0.026982543640897756,0.0488472361934565,
0.027032418952618455,0.031609841998564675,
0.02708229426433915,0.042184747142436356,
0.02713216957605985,0.029416151023863246,
0.02718204488778055,0.04174875098606801,
0.02723192019950125,0.024271701833865428,
0.027281795511221944,0.0340116342573262,
0.027331670822942643,0.01860371510903213,
0.027381546134663343,0.016011180967897803,
0.02743142144638404,0.014923475730502917,
0.027481296758104738,0.032848336306583265,
0.027531172069825437,0.016603127116889382,
0.027581047381546136,0.04363547513293934,
0.02763092269326683,0.04278367976085909,
0.02768079800498753,0.029370664725179324,
0.02773067331670823,0.02274865211715816,
0.02778054862842893,0.04171974596949572,
0.027830423940149625,-0.002623507159477588,
0.027880299251870324,0.011057838187526507,
0.027930174563591023,0.012764496423806367,
0.027980049875311722,0.017728575544793044,
0.028029925187032418,0.003442983750485691,
0.028079800498753117,0.027429238199794894,
0.028129675810473816,0.030562618650270264,
0.028179551122194512,0.02762841378409709,
0.02822942643391521,0.026495588546745694,
0.02827930174563591,0.020418678305868004,
0.02832917705735661,0.012269213055053366,
0.028379052369077305,0.016773314333345217,
0.028428927680798004,0.01731181333147531,
0.028478802992518704,0.028528371055544875,
0.028528678304239403,0.006645315344811605,
0.0285785536159601,0.02678422042717382,
0.028628428927680798,0.03215817199208795,
0.028678304239401497,0.003998091422051812,
0.028728179551122196,0.0040659448969695006,
0.02877805486284289,0.026121311784195727,
0.02882793017456359,0.005724123383594534,
0.02887780548628429,0.024683736807392602,
0.02892768079800499,0.026023720565574955,
0.028977556109725685,0.02906845150047359,
0.029027431421446384,0.04358025586426577,
0.029077306733167083,0.03627212945614133,
0.02912718204488778,0.024458098524060837,
0.029177057356608478,0.02673302342949676,
0.029226932668329177,0.018350109546407232,
0.029276807980049877,0.0026919947822796816,
0.029326683291770572,0.03259305517899552,
0.02937655860349127,0.007438222736778414,
0.02942643391521197,0.027869083540944382,
0.02947630922693267,0.016539771696282984,
0.029526184538653365,0.025122337360057517,
0.029576059850374065,0.0138111808147246,
0.029625935162094764,-0.01054019269583607,
0.029675810473815463,0.04499960046717896,
0.02972568578553616,0.013303063769074634,
0.029775561097256858,-0.00592049556064295,
0.029825436408977557,0.020097341526509268,
0.029875311720698253,0.014991582004107532,
0.029925187032418952,0.03233291934478566,
0.02997506234413965,0.03526262236013801,
0.03002493765586035,0.025524981478809803,
0.030074812967581046,0.010508017586938591,
0.030124688279301745,0.012806162339835428,
0.030174563591022444,0.04664919663152395,
0.030224438902743143,-0.000777747339405839,
0.03027431421446384,0.013400618433003681,
0.03032418952618454,-0.005517573179369829,
0.030374064837905237,0.0034623413892631277,
0.030423940149625937,0.030831367532403023,
0.030473815461346632,0.000871547860328014,
0.03052369077306733,0.04605844466213136,
0.03057356608478803,0.028731133416834545,
0.03062344139650873,0.024353832992540878,
0.030673316708229426,0.011164164594166625,
0.030723192019950125,0.007638124588437926,
0.030773067331670824,0.004325632405814912,
0.03082294264339152,0.015153908711210884,
0.03087281795511222,0.03601206480702354,
0.030922693266832918,0.018791220380096445,
0.030972568578553617,0.028847786848443507,
0.031022443890274313,0.011330114227511446,
0.031072319201995012,0.004706509838138976,
0.03112219451371571,0.015164868658555012,
0.03117206982543641,0.005170235800134622,
0.031221945137157106,-0.009815832533688016,
0.03127182044887781,0.047488158649227695,
0.031321695760598504,0.028464198406754418,
0.0313715710723192,0.029263177193928583,
0.0314214463840399,0.013320417682086444,
0.0314713216957606,-0.00960313819244944,
0.031521197007481294,-0.0077964421441878776,
0.031571072319202,0.053523605938503804,
0.03162094763092269,0.013297038658054174,
0.03167082294264339,0.024930530853067852,
0.03172069825436409,0.0022097838534355175,
0.03177057356608479,0.014656780646563256,
0.03182044887780549,0.007256855291342678,
0.031870324189526185,-0.003978105130458523,
0.03192019950124688,0.010483084517674117,
0.03197007481296758,0.03413480848847707,
0.03201995012468828,0.024478463266963083,
0.032069825436408975,0.008028004900052253,
0.03211970074812968,0.02798112994993892,
0.03216957605985037,0.025706658153009508,
0.032219451371571076,0.007549443879812332,
0.03226932668329177,0.014160079717827314,
0.03231920199501247,0.013947648679962866,
0.03236907730673317,-0.024971532524905225,
0.032418952618453865,0.025819915206515966,
0.03246882793017456,0.012060610281458571,
0.032518703241895264,0.00034338027740820655,
0.03256857855361596,-0.024568913656287522,
0.032618453865336655,-0.01106864349894728,
0.03266832917705736,0.005511572499861509,
0.032718204488778053,0.017999525050881416,
0.032768079800498756,-0.02060677376357737,
0.03281795511221945,0.008777478212348611,
0.03286783042394015,0.027881010022405513,
0.03291770573566085,-0.0060191819456613515,
0.032967581047381546,0.021875508847058446,
0.03301745635910224,-0.02267417166925624,
0.033067331670822944,0.023446473197485943,
0.03311720698254364,-0.014969236984979713,
0.03316708229426434,-0.007834840416720395,
0.03321695760598504,-0.002913741051751069,
0.033266832917705734,-0.00654340182048243,
0.03331670822942644,0.02695595309909648,
0.03336658354114713,0.01820126074595689,
0.03341645885286783,0.006700694806193551,
0.03346633416458853,-0.01650513027451462,
0.033516209476309226,-0.007201514537596699,
0.03356608478802992,0.007115120739963929,
0.033615960099750625,-0.016643674016312032,
0.03366583541147132,0.003642499521741285,
0.03371571072319202,-0.000533335173261801,
0.03376558603491272,-0.00319680049054055,
0.033815461346633414,-0.011937556028741522,
0.03386533665835412,-0.018522714769903983,
0.03391521197007481,-0.016849414546118727,
0.03396508728179551,0.0007500149831100337,
0.03401496259351621,0.019553380461037544,
0.03406483790523691,-0.003355490656915141,
0.0341147132169576,0.005147803066879354,
0.034164588528678305,-0.00664388961731051,
0.034214463840399,-0.016642889689328196,
0.034264339152119704,0.009308783540527681,
0.0343142144638404,0.008941326827500791,
0.034364089775561095,-0.008479739439581385,
0.0344139650872818,-0.013150842937787944,
0.03446384039900249,-0.02683726357298359,
0.03451371571072319,-0.010260916559186074,
0.03456359102244389,-0.0045175254942598116,
0.03461346633416459,0.006933810504314061,
0.03466334164588529,-0.008980094702848825,
0.034713216957605986,0.01032707003415856,
0.03476309226932668,-0.005307592407945,
0.034812967581047384,-0.029238808589515573,
0.03486284289276808,-0.038738968551120065,
0.034912718204488775,-0.01336928274163911,
0.03496259351620948,-0.0251224979524756,
0.035012468827930174,-0.030037632124864586,
0.03506234413965087,-0.005840033392143405,
0.03511221945137157,-0.0322798497385073,
0.03516209476309227,-0.02377392600703051,
0.03521197007481297,0.0006905220424515898,
0.035261845386533666,0.0021934981704324445,
0.03531172069825436,-0.026174487947028126,
0.035361596009975065,-0.010058249257410558,
0.03541147132169576,0.02184641051758212,
0.035461346633416456,-0.04040210952635642,
0.03551122194513716,-0.011419797786538245,
0.035561097256857854,-0.0041023194905759446,
0.03561097256857856,-0.007255264815095638,
0.03566084788029925,0.012309408012544078,
0.03571072319201995,-0.007065710448974292,
0.03576059850374065,-0.014741442642172238,
0.03581047381546135,0.020196060025616174,
0.03586034912718204,-0.017929474195026412,
0.035910224438902745,-0.01664060476429998,
0.03596009975062344,-0.024493299511146108,
0.036009975062344136,-0.020495512887078453,
0.03605985037406484,-0.017088538190227293,
0.036109725685785535,-0.04021577544759443,
0.03615960099750624,-0.01230321983624982,
0.03620947630922693,0.0015827329519919088,
0.03625935162094763,-0.03672874992627708,
0.03630922693266833,-0.022911763485409502,
0.03635910224438903,0.0041758097529165355,
0.03640897755610972,-0.011690418893704127,
0.036458852867830426,-0.017808950507003308,
0.03650872817955112,0.008429269685951563,
0.036558603491271824,0.00222975733546164,
0.03660847880299252,-0.019930034545472465,
0.036658354114713215,0.009919588932677189,
0.03670822942643392,-0.005527703878379909,
0.036758104738154614,-0.012691873627747603,
0.03680798004987531,-0.008057068759824051,
0.03685785536159601,0.00626105506117889,
0.03690773067331671,0.01039133406493336,
0.0369576059850374,-0.01753222388222811,
0.037007481296758106,-0.04808618189616659,
0.0370573566084788,-0.003804927058851732,
0.037107231920199504,-0.008800515178750521,
0.0371571072319202,-0.02570303211900892,
0.037206982543640896,-0.0464678596662287,
0.0372568578553616,-0.010468396055924069,
0.037306733167082294,-0.015282832305317785,
0.03735660847880299,-0.019960564209736884,
0.03740648379052369,-0.03122852258283136,
0.03745635910224439,-0.020211765374944263,
0.037506234413965084,-0.0128689056335494,
0.037556109725685786,-0.026359759963644133,
0.03760598503740648,0.002771069576915308,
0.037655860349127185,0.005456328600343327,
0.03770573566084788,-0.039352097535256605,
0.037755610972568576,0.00029496992844674913,
0.03780548628428928,-0.014940654914016627,
0.037855361596009975,-0.02703813441859343,
0.03790523690773067,-0.013854661465064021,
0.03795511221945137,-0.026246404600543047,
0.03800498753117207,-0.02283923565680506,
0.03805486284289277,-0.02700934457331207,
0.03810473815461347,-0.011775269557115886,
0.03815461346633416,-0.00760951268257507,
0.038204488778054865,-0.022001887420856306,
0.03825436408977556,-0.022758821131275465,
0.03830423940149626,-0.027215111728281983,
0.03835411471321696,-0.03337886048839568,
0.038403990024937655,-0.037800444368373806,
0.03845386533665835,-0.03990747181479253,
0.03850374064837905,-0.012396566823177784,
0.03855361596009975,-0.012432904159548487,
0.03860349127182045,0.008499062580148091,
0.03865336658354115,-0.019768727065652858,
0.03870324189526184,-0.032479275872882254,
0.038753117206982546,-0.03691989563610222,
0.03880299251870324,-0.000353253823854479,
0.03885286783042394,0.010042944954153296,
0.03890274314214464,-0.013574709771800206,
0.038952618453865336,-0.007807926573589216,
0.03900249376558604,-0.033053847974436654,
0.039052369077306734,-0.016706312394775314,
0.03910224438902743,-0.04350460516795532,
0.03915211970074813,-0.006668553117198587,
0.03920199501246883,-0.021674771526876444,
0.039251870324189524,-0.03238290975880069,
0.039301745635910226,0.015806341191377356,
0.03935162094763092,-0.0017923247024247396,
0.03940149625935162,0.00625482419360382,
0.03945137157107232,-0.003016199874263898,
0.039501246882793016,-0.04711115972465273,
0.03955112219451372,-0.028979200550296867,
0.039600997506234414,-0.02149415389085621,
0.03965087281795511,-0.02970630886459949,
0.03970074812967581,-0.029743829416637748,
0.03975062344139651,-0.009374096214202035,
0.039800498753117204,-0.00875527498793462,
0.03985037406483791,-0.016806074639527973,
0.0399002493765586,-0.011802974992982048,
0.039950124688279305,-0.017174753403955946,
0.04,-0.04399861091145726,
0.0400498753117207,-0.013020611244667146,
0.0400997506234414,-0.02069894733275377,
0.040149625935162095,-0.018869464112865983,
0.04019950124688279,-0.028500525509039296,
0.04024937655860349,-0.004045298198521718,
0.04029925187032419,-0.017507254694168684,
0.040349127182044885,-0.016359157858828875,
0.04039900249376559,-0.01870711707107154,
0.04044887780548628,0.0037583642113929606,
0.040498753117206986,-0.026132805013804637,
0.04054862842892768,0.005062397494569824,
0.04059850374064838,-0.010379241588283798,
0.04064837905236908,0.005552534027598284,
0.040698254364089775,-0.018969061019483785,
0.04074812967581047,0.01874679067822231,
0.040798004987531174,-0.016204805887806824,
0.04084788029925187,0.009119632560972347,
0.040897755610972565,-0.012650025456277619,
0.04094763092269327,0.003198760675919588,
0.04099750623441396,-0.009968148496432464,
0.041047381546134666,0.0053094230564976735,
0.04109725685785536,-0.017331619970620597,
0.04114713216957606,0.01242866834768533,
0.04119700748129676,-0.016404119767495257,
0.041246882793017456,-0.03792987621201244,
0.04129675810473815,-0.028133006286747107,
0.041346633416458854,-0.01135742665395408,
0.04139650872817955,-0.009765919692954225,
0.04144638403990025,0.000824178025074832,
0.04149625935162095,-0.03725799897897866,
0.041546134663341644,0.0016848332354952042,
0.04159600997506235,0.000692963119000768,
0.04164588528678304,-0.007296367084367643,
0.04169576059850374,0.0063114366358067355,
0.04174563591022444,-0.007322038109196752,
0.041795511221945136,-0.009053203332793861,
0.04184538653366583,-0.0007357953706176737,
0.041895261845386535,0.01141390969742399,
0.04194513715710723,-0.004709404222641171,
0.04199501246882793,-0.014129670191015653,
0.04204488778054863,-0.004728458489255131,
0.042094763092269324,0.0022916243220979164,
0.04214463840399003,0.0017224561961335385,
0.04219451371571072,-0.013213765696367761,
0.04224438902743142,-0.024162226919368996,
0.04229426433915212,-0.009166326476846433,
0.04234413965087282,0.011910608301867397,
0.04239401496259352,0.0018112765005176394,
0.042443890274314215,0.006159337891660004,
0.04249376558603491,-0.003619917218108143,
0.042543640897755614,-0.006566428120455577,
0.04259351620947631,-0.001106649108224226,
0.042643391521197005,0.03168852630510047,
0.04269326683291771,-0.030199516932730958,
0.0427431421446384,-0.013291926214640553,
0.0427930174563591,0.013239627569417683,
0.0428428927680798,0.011487980766904667,
0.0428927680798005,0.012329111840720162,
0.0429426433915212,0.014438673588611436,
0.042992518703241896,-0.025463322038622574,
0.04304239401496259,0.025305293130654997,
0.043092269326683294,0.023277872759740928,
0.04314214463840399,0.038615961699309934,
0.043192019950124685,0.02450308926420425,
0.04324189526184539,0.011299698487576981,
0.043291770573566084,-0.018919258294547728,
0.043341645885286786,0.018178975623855776,
0.04339152119700748,0.0011578038114379834,
0.04344139650872818,0.01190694186296875,
0.04349127182044888,0.020360959033209294,
0.043541147132169576,-0.0028975272421234363,
0.04359102244389027,0.0017652993283042628,
0.043640897755610975,0.005694623941123026,
0.04369077306733167,-0.024584064674721448,
0.043740648379052366,0.013012233653339107,
0.04379052369077307,0.03003208296129438,
0.043840399002493764,0.01388985086745214,
0.04389027431421447,0.0038122287846447346,
0.04394014962593516,0.008310285238273775,
0.04399002493765586,0.018642401422680414,
0.04403990024937656,0.03858660540945417,
0.04408977556109726,0.008058992670767432,
0.04413965087281795,0.006960294871988608,
0.044189526184538655,0.0383739114823998,
0.04423940149625935,0.015472614140696235,
0.04428927680798005,0.031639487332001524,
0.04433915211970075,-0.02400212214161003,
0.044389027431421445,0.014359924793953581,
0.04443890274314215,0.009066630723180383,
0.04448877805486284,0.024130386637910103,
0.04453865336658354,0.015207268249292475,
0.04458852867830424,0.03000030494804482,
0.04463840399002494,0.015475358999015554,
0.04468827930174563,0.007011570063891525,
0.044738154613466335,-0.011242408685001752,
0.04478802992518703,0.009504172383755975,
0.044837905236907734,0.006813589289160628,
0.04488778054862843,0.020874280533800534,
0.044937655860349125,0.031101968859618974,
0.04498753117206983,0.0280324370971868,
0.045037406483790524,0.01407878326532557,
0.04508728179551122,-0.0093959754579039,
0.04513715710723192,-0.004336622721693346,
0.04518703241895262,0.027964788486804143,
0.04523690773067331,0.014788685754600125,
0.045286783042394016,0.01501315604041137,
0.04533665835411471,-0.00013124252147674043,
0.045386533665835414,-0.008553971806801914,
0.04543640897755611,0.0296838755806932,
0.045486284289276806,0.024458987273017208,
0.04553615960099751,-0.0032854631417247974,
0.045586034912718204,0.016037365147262343,
0.0456359102244389,0.029749197903616093,
0.0456857855361596,0.0046297118739661355,
0.0457356608478803,0.014220357723483158,
0.045785536159601,0.012660817136414352,
0.045835411471321696,0.0023232809526367235,
0.04588528678304239,0.018340985345145715,
0.045935162094763095,0.013770407204110107,
0.04598503740648379,0.023156992306592333,
0.046034912718204486,0.02569639269669516,
0.04608478802992519,0.010843194302392818,
0.046134663341645885,0.017985305837327832,
0.04618453865336658,0.02832558908947095,
0.04623441396508728,0.019752260109323367,
0.04628428927680798,-0.017074214564054585,
0.04633416458852868,0.04367086913173675,
0.04638403990024938,0.008097887842519663,
0.04643391521197007,0.025534700264905386,
0.046483790523690775,0.04111076226911049,
0.04653366583541147,0.04195430286236081,
0.04658354114713217,0.04182241525556209,
0.04663341645885287,0.03314019565018414,
0.046683291770573565,0.03687965922997944,
0.04673316708229427,0.015489584342512241,
0.04678304239401496,0.02989896495626554,
0.04683291770573566,0.04764599744959927,
0.04688279301745636,-0.00012827076984882682,
0.04693266832917706,0.03798879971140014,
0.04698254364089775,0.02762993518105631,
0.047032418952618456,0.014176670868533671,
0.04708229426433915,0.025416536508761453,
0.04713216957605985,0.035167353055928566,
0.04718204488778055,0.025662090197549666,
0.047231920199501246,0.02229824056806775,
0.04728179551122195,0.005501841437978473,
0.047331670822942644,0.016766688519248105,
0.04738154613466334,0.04054530739478757,
0.04743142144638404,0.026812621566241857,
0.04748129675810474,0.015209030685968555,
0.047531172069825434,0.026886481632795237,
0.047581047381546136,0.03909057477103281,
0.04763092269326683,0.03926235172338058,
0.047680798004987535,0.04546151379637337,
0.04773067331670823,0.016404505872431606,
0.047780548628428926,0.028263063947545047,
0.04783042394014963,0.028065151998437607,
0.047880299251870324,0.0003606111107863942,
0.04793017456359102,0.02766714140045578,
0.04798004987531172,0.03298201174940994,
0.04802992518703242,0.031052649178360505,
0.048079800498753114,0.05059338856252024,
0.04812967581047382,0.007847878014414101,
0.04817955112219451,0.01633502188207264,
0.048229426433915215,0.002671146494252496,
0.04827930174563591,0.0265221040179583,
0.048329177057356607,0.025276383040699398,
0.04837905236907731,0.027831942250679257,
0.048428927680798005,0.02465002704071977,
0.0484788029925187,0.020971841034958784,
0.0485286783042394,0.05166753744062426,
0.0485785536159601,0.026830545495536234,
0.048628428927680795,0.0066573454508084,
0.0486783042394015,0.024589008395197936,
0.04872817955112219,0.04126982000396151,
0.048778054862842896,0.045416258583641296,
0.04882793017456359,0.0076785669582241835,
0.04887780548628429,0.030154271323641523,
0.04892768079800499,0.01568725996952557,
0.048977556109725685,0.0301950918103724,
0.04902743142144638,0.027607316418097202,
0.049077306733167084,-0.004462734956341637,
0.04912718204488778,0.012351980012630211,
0.04917705735660848,0.024748001251346952,
0.04922693266832918,0.00290383119493956,
0.04927680798004987,0.007791135545574809,
0.049326683291770576,-0.00985658460535705,
0.04937655860349127,0.0164172862268841,
0.04942643391521197,0.013261673495801218,
0.04947630922693267,0.022120381502103423,
0.049526184538653366,0.018518390158207734,
0.04957605985037406,0.0030900700948443827,
0.049625935162094764,0.0390369187062502,
0.04967581047381546,-0.0055890763461049695,
0.04972568578553616,0.03377055525387061,
0.04977556109725686,0.03085448842151651,
0.049825436408977554,-0.002215109542349398,
0.04987531172069826,0.02377453783315587,
0.04992518703241895,0.0354202441040814,
0.04997506234413965,0.024023326190144547,
0.05002493765586035,0.015982401424556262,
0.050074812967581046,0.01695541464366658,
0.05012468827930175,0.013866563755725234,
0.050174563591022445,0.009645849555681048,
0.05022443890274314,0.011970611829355429,
0.05027431421446384,0.009565737017921494,
0.05032418952618454,0.0035491469992946154,
0.050374064837905234,0.009200540720800409,
0.05042394014962594,0.0023845306033749448,
0.05047381546134663,0.046025325477910745,
0.05052369077306733,0.021114092287762995,
0.05057356608478803,0.021835453681902334,
0.05062344139650873,0.0275020102315175,
0.05067331670822943,0.017443068216142485,
0.050723192019950125,0.028210829829379704,
0.05077306733167082,0.009075800761559151,
0.050822942643391524,0.0177772399412874,
0.05087281795511222,0.013484810385270688,
0.050922693266832915,-0.009635300721322716,
0.05097256857855362,0.016369602573218484,
0.05102244389027431,0.005406170344277603,
0.051072319201995016,-0.006831131450214143,
0.05112219451371571,0.006370491062121493,
0.05117206982543641,0.010626255074345095,
0.05122194513715711,0.02726447417223611,
0.051271820448877806,0.033168094209934426,
0.0513216957605985,-0.00952613524801702,
0.051371571072319204,0.02039588847939853,
0.0514214463840399,0.015195342078951036,
0.051471321695760595,0.024004402945810542,
0.0515211970074813,-0.02352364073854731,
0.051571072319201994,-0.03552820032557484,
0.051620947630922696,-0.0031213877650212267,
0.05167082294264339,0.023747727297736408,
0.05172069825436409,0.02332806242987797,
0.05177057356608479,0.017822541346482246,
0.051820448877805486,0.0014387704651993398,
0.05187032418952618,0.014994563089887263,
0.051920199501246884,0.022205795402473923,
0.05197007481296758,0.019523637615312086,
0.052019950124688276,-0.0019206412527756102,
0.05206982543640898,0.003673601461520062,
0.052119700748129674,0.026716406882896254,
0.05216957605985038,-0.0043546206835115946,
0.05221945137157107,-0.005153186046141563,
0.05226932668329177,-0.011727589094171226,
0.05231920199501247,0.0006946880091745159,
0.05236907730673317,0.020083649672816943,
0.05241895261845386,0.02248316348059939,
0.052468827930174565,0.024428166955402314,
0.05251870324189526,0.009467454708585473,
0.05256857855361596,0.027265300085659975,
0.05261845386533666,-0.0024946513097964147,
0.052668329177057355,0.008417616578756688,
0.05271820448877806,-0.005964588733699825,
0.05276807980049875,-0.003013861484458134,
0.05281795511221945,0.015247009216023424,
0.05286783042394015,0.005379161734407603,
0.05291770573566085,-0.030792708748346862,
0.05296758104738154,-0.004564552897735531,
0.053017456359102245,0.016212876693160544,
0.05306733167082294,0.003515852632910934,
0.053117206982543644,0.013437884161558267,
0.05316708229426434,0.028042184178471787,
0.053216957605985035,0.015109053930642706,
0.05326683291770574,0.01034834272056122,
0.053316708229426434,-0.009737003620279037,
0.05336658354114713,0.005939060814048576,
0.05341645885286783,-0.005441133662233982,
0.05346633416458853,-0.0249856178214684,
0.05351620947630923,0.00808626056783213,
0.053566084788029926,-0.02023802042894464,
0.05361596009975062,-0.004555110876966561,
0.053665835411471324,-0.017983543936985993,
0.05371571072319202,-0.013979882573295039,
0.053765586034912716,-0.005174964874011178,
0.05381546134663342,0.009105572039952024,
0.053865336658354114,0.031044365232213975,
0.05391521197007481,0.006865106602485137,
0.05396508728179551,-0.0009160292715752979,
0.05401496259351621,-0.021923673910821312,
0.05406483790523691,-0.009431464099855406,
0.054114713216957606,0.01024082980154874,
0.0541645885286783,-0.0006311954056979268,
0.054214463840399005,-0.03101684386958742,
0.0542643391521197,0.010398851902443234,
0.054314214463840396,0.007947791649031737,
0.0543640897755611,-0.00992771198356079,
0.054413965087281795,-0.014506205725805216,
0.0544638403990025,-0.016768645071032474,
0.05451371571072319,-0.0013045375348548615,
0.05456359102244389,-0.0009703974494399397,
0.05461346633416459,-0.01410801145976554,
0.05466334164588529,-0.009867166125045552,
0.05471321695760598,0.001875581950553029,
0.054763092269326685,-0.0072330887425402605,
0.05481296758104738,-0.0016743057537552805,
0.05486284289276808,-0.027249026858063824,
0.05491271820448878,-0.020723779457657802,
0.054962593516209475,-0.013128928738124178,
0.05501246882793018,-0.021045908572851546,
0.05506234413965087,-0.02504263807497261,
0.05511221945137157,0.0218578741745961,
0.05516209476309227,-0.04850083570610879,
0.05521197007481297,-0.04494384351390791,
0.05526184538653366,-0.022928146683233414,
0.055311720698254366,0.0022990873305195596,
0.05536159600997506,-0.011017356340437774,
0.05541147132169576,0.007697414189673939,
0.05546134663341646,-4.101851873347141e-05,
0.055511221945137156,-0.01113677344332174,
0.05556109725685786,-0.014296599636031408,
0.055610972568578554,-0.013477146596180732,
0.05566084788029925,-0.03800916815171912,
0.05571072319201995,-0.02469254091445787,
0.05576059850374065,-0.006433061149227161,
0.055810473815461344,-0.025280885489164774,
0.055860349127182046,-0.007286918532535914,
0.05591022443890274,-0.0078502045847542,
0.055960099750623445,-0.005559053909635203,
0.05600997506234414,0.020318223737258927,
0.056059850374064836,0.006468428008531766,
0.05610972568578554,-0.027408925411972748,
0.056159600997506234,-0.01765840296200008,
0.05620947630922693,-0.026369739098840786,
0.05625935162094763,-0.018718642269966196,
0.05630922693266833,-0.0044675386627529325,
0.056359102244389024,-0.017417024309808866,
0.05640897755610973,-0.006058684084932312,
0.05645885286783042,-0.0369989267127325,
0.056508728179551125,-0.028594515314548673,
0.05655860349127182,-0.008369432371524054,
0.056608478802992516,-0.005575979428140766,
0.05665835411471322,-0.03595674039114881,
0.056708229426433915,-0.0224151514545934,
0.05675810473815461,-0.0063320556253030225,
0.05680798004987531,-0.013957997629127878,
0.05685785536159601,-0.026535431997536385,
0.05690773067331671,-0.007352234538044531,
0.05695760598503741,-0.023864314910125858,
0.0570074812967581,-0.026288122174739612,
0.057057356608478806,-0.026623550261629644,
0.0571072319201995,-0.01620576912644418,
0.0571571072319202,-0.012238031178072949,
0.0572069825436409,-0.010312714967040377,
0.057256857855361595,-0.005746056109515828,
0.05730673316708229,0.00015384842915656255,
0.057356608478802994,-0.04108551084098139,
0.05740648379052369,0.009960104873644814,
0.05745635910224439,-0.010753960231107265,
0.05750623441396509,-0.02393911722458299,
0.05755610972568578,-0.0332649407221855,
0.057605985037406486,-0.007824530391477055,
0.05765586034912718,0.007227394994491078,
0.05770573566084788,-0.003535347335281899,
0.05775561097256858,-0.009190000807717673,
0.057805486284289276,-0.0022440152745699295,
0.05785536159600998,-0.025034762884559483,
0.057905236907730674,-0.0004963604847617667,
0.05795511221945137,-0.005418562743351812,
0.05800498753117207,-0.009569649002452121,
0.05805486284289277,-0.004513897754841003,
0.058104738154613464,-0.024287451212795234,
0.05815461346633417,-0.0038308060564092635,
0.05820448877805486,-0.01077860526595233,
0.05825436408977556,-0.005208990323561567,
0.05830423940149626,-0.013811295246738225,
0.058354114713216956,-0.02390129733384037,
0.05840399002493766,-0.024586833782763884,
0.058453865336658355,-0.009410828877867945,
0.05850374064837905,-0.007407477499928797,
0.05855361596009975,0.006972921362829497,
0.05860349127182045,-0.006550199323372639,
0.058653366583541144,0.00014397959286775383,
0.05870324189526185,-0.021310388275229186,
0.05875311720698254,-0.035324352026601925,
0.05880299251870324,0.004893937812364829,
0.05885286783042394,-0.022957035883820483,
0.05890274314214464,-0.029420514682630978,
0.05895261845386534,-0.025771526126644392,
0.059002493765586035,-0.0003153743993785513,
0.05905236907730673,-0.03222384599026219,
0.059102244389027433,-0.014555694020888747,
0.05915211970074813,0.0013548786539941526,
0.059201995012468825,0.00683722433087092,
0.05925187032418953,0.0006368726001942729,
0.05930174563591022,0.004119192680179157,
0.059351620947630926,-0.030173933023291948,
0.05940149625935162,-0.014221840577778116,
0.05945137157107232,-0.006582740768399682,
0.05950124688279302,-0.02550294588502327,
0.059551122194513716,0.003405922799515194,
0.05960099750623441,0.0014219586427634944,
0.059650872817955114,-0.0013320250941534616,
0.05970074812967581,-0.021583554975182502,
0.059750623441396505,0.01672352384579623,
0.05980049875311721,0.015360661677791211,
0.059850374064837904,-0.014844275023113526,
0.059900249376558606,-0.029076407947477304,
0.0599501246882793,-0.0014772641256543054,
0.06,-5.37122400033601e-05,
0.0600498753117207,-0.017702918646628683,
0.060099750623441396,-0.0016808397488249794,
0.06014962593516209,-0.010713467088284658,
0.060199501246882794,-0.015092544818692374,
0.06024937655860349,-0.018420406016084405,
0.06029925187032419,-0.005663738778692502,
0.06034912718204489,-0.0014066709698102881,
0.060399002493765584,-0.009146303012313672,
0.06044887780548629,-0.011941899822816026,
0.06049875311720698,-0.03516913391207332,
0.06054862842892768,-0.044270800581100736,
0.06059850374064838,-0.0359485770600302,
0.06064837905236908,-0.02766163769125841,
0.06069825436408977,-0.014671940473064832,
0.060748129675810475,0.012478142357632959,
0.06079800498753117,-0.00790999904181549,
0.06084788029925187,-0.001257246624469647,
0.06089775561097257,-0.0072031712066206715,
0.060947630922693265,0.009915600734394113,
0.06099750623441397,-0.02232091452405969,
0.06104738154613466,-0.01867527226797526,
0.06109725685785536,-0.012410865624120346,
0.06114713216957606,-0.016244837819606735,
0.06119700748129676,0.007534458055665736,
0.06124688279301746,-0.017852297507942518,
0.061296758104738155,-0.01092546160363304,
0.06134663341645885,-0.011942277528243426,
0.061396508728179554,-0.011702476245052853,
0.06144638403990025,-0.0035386589847120524,
0.061496259351620945,-0.015360272969185816,
0.06154613466334165,-0.008069153147570163,
0.061596009975062344,0.0004684503522696566,
0.06164588528678304,-0.016234749353668424,
0.06169576059850374,-0.012559580316721723,
0.06174563591022444,0.026380436789273085,
0.06179551122194514,-0.009424487384339746,
0.061845386533665836,0.003922431340815041,
0.06189526184538653,0.015569043449842092,
0.061945137157107234,0.003479530153025214,
0.06199501246882793,0.04025660948223744,
0.062044887780548626,0.003063431907908291,
0.06209476309226933,-0.018531032616759344,
0.062144638403990024,0.013296262293540723,
0.06219451371571072,-0.002537653593755051,
0.06224438902743142,0.006358530951034866,
0.06229426433915212,-0.006472181127067356,
0.06234413965087282,0.0020408351441733386,
0.062394014962593516,-0.0020565898746363266,
0.06244389027431421,-0.010127367063313185,
0.062493765586034915,0.00924168829928679,
0.06254364089775562,0.007815527011748242,
0.06259351620947631,-0.0010968907204985134,
0.06264339152119701,0.029834391259517135,
0.0626932668329177,0.017569723346996715,
0.0627431421446384,-0.0015402435120202016,
0.0627930174563591,-0.018812691019455895,
0.0628428927680798,0.008640396861296782,
0.0628927680798005,0.005628211912033268,
0.0629426433915212,-0.004581364711430498,
0.06299251870324189,-0.007307557746872927,
0.06304239401496259,0.015069584453501095,
0.0630922693266833,0.032811946685471494,
0.063142144638404,0.013065086461994554,
0.06319201995012469,-0.006437387535763371,
0.06324189526184539,0.005824914671751922,
0.06329177057356608,0.016544142194584846,
0.06334164588528678,0.003966930645791199,
0.06339152119700749,0.03741542214025769,
0.06344139650872818,0.0274425807256585,
0.06349127182044888,0.0028607299787468633,
0.06354114713216957,-0.01395143385275648,
0.06359102244389027,0.018273115092379187,
0.06364089775561098,0.004378627968725834,
0.06369077306733167,0.0011395266069896444,
0.06374064837905237,0.00766934286754096,
0.06379052369077307,-0.010472544579622073,
0.06384039900249376,-0.004779351161101999,
0.06389027431421446,0.032611982195735724,
0.06394014962593517,0.011039426645237696,
0.06399002493765586,-0.007767713405306308,
0.06403990024937656,-0.00023361460467485537,
0.06408977556109725,-0.009903422422156898,
0.06413965087281795,0.002445465019079645,
0.06418952618453866,-0.006219200738600541,
0.06423940149625935,0.015189508489635907,
0.06428927680798005,-0.002566107355925308,
0.06433915211970075,0.037768122807146906,
0.06438902743142144,0.02002362964901082,
0.06443890274314215,0.004771600657398614,
0.06448877805486285,0.010266255939285696,
0.06453865336658354,0.01617471645501129,
0.06458852867830424,0.022909564974424514,
0.06463840399002493,0.01733798475543701,
0.06468827930174563,-0.0018821112226726743,
0.06473815461346634,0.031111516994817845,
0.06478802992518704,0.04345468366682795,
0.06483790523690773,0.025445940791085933,
0.06488778054862843,0.028949244562636048,
0.06493765586034912,0.026180276344349558,
0.06498753117206983,0.0333782067349621,
0.06503740648379053,0.030563101157296366,
0.06508728179551122,0.023944488636539352,
0.06513715710723192,0.006847595619663048,
0.06518703241895261,0.02322466035280758,
0.06523690773067331,0.01133091704446209,
0.06528678304239402,0.046478055054016705,
0.06533665835411472,0.03701990770873406,
0.06538653366583541,0.021174226393056002,
0.06543640897755611,0.043681333799814356,
0.0654862842892768,0.04505684807064245,
0.06553615960099751,0.02199435431805693,
0.06558603491271821,0.044481399572958435,
0.0656359102244389,0.0158599410971641,
0.0656857855361596,0.03307089415745984,
0.0657356608478803,0.020857498495391882,
0.06578553615960099,0.015194453341156006,
0.0658354114713217,0.018797235265316087,
0.0658852867830424,0.027224249893321614,
0.06593516209476309,0.007042971318809252,
0.06598503740648379,0.017207609023755385,
0.06603491271820448,0.006344566621282291,
0.06608478802992519,0.03627900017647515,
0.06613466334164589,0.03165376187344352,
0.06618453865336658,0.0027218424609013955,
0.06623441396508728,0.031229764146434504,
0.06628428927680798,0.026957644930242657,
0.06633416458852869,0.013493920554192568,
0.06638403990024938,0.023742011151297017,
0.06643391521197008,-0.0022817838760644214,
0.06648379052369077,0.025891538104272943,
0.06653366583541147,0.011087504824001736,
0.06658354114713216,0.023526189545159025,
0.06663341645885287,0.04612774146109032,
0.06668329177057357,0.014354578193805001,
0.06673316708229426,0.024399136942219103,
0.06678304239401496,0.03717747994440834,
0.06683291770573566,0.02020135505119485,
0.06688279301745637,0.019613622421063223,
0.06693266832917706,0.02313295707326018,
0.06698254364089776,0.015542359204181283,
0.06703241895261845,0.022325291828987237,
0.06708229426433915,0.016512423648950548,
0.06713216957605984,0.021355058891432886,
0.06718204488778055,0.040119490598013986,
0.06723192019950125,0.023251092131867847,
0.06728179551122195,0.031226019104199833,
0.06733167082294264,0.04139178467417472,
0.06738154613466334,0.015887254027211407,
0.06743142144638405,0.01404581331387129,
0.06748129675810474,0.04034091100061409,
0.06753117206982544,0.018211853005193436,
0.06758104738154613,0.015023967031460535,
0.06763092269326683,0.024518159054834097,
0.06768079800498752,0.036460408981785375,
0.06773067331670823,0.02695294440727847,
0.06778054862842893,0.014891677803765475,
0.06783042394014963,0.0353501665685919,
0.06788029925187032,0.031166048493916465,
0.06793017456359102,0.031161376400812676,
0.06798004987531173,0.01382836687001617,
0.06802992518703242,-0.0070291248195213304,
0.06807980049875312,0.03066266071722607,
0.06812967581047381,0.04261743212533242,
0.06817955112219451,0.0237126773678659,
0.0682294264339152,0.02093615110520734,
0.06827930174563591,0.04493818385132632,
0.06832917705735661,0.011338692327176063,
0.0683790523690773,0.009750811461889932,
0.068428927680798,0.035571862005892976,
0.0684788029925187,0.022788668312199965,
0.06852867830423941,0.019830709032976755,
0.0685785536159601,0.04200203410657137,
0.0686284289276808,0.024437320550299686,
0.0686783042394015,0.047494703216473574,
0.06872817955112219,0.01468598727297984,
0.0687780548628429,0.04170092802311433,
0.0688279301745636,0.009821717752631284,
0.06887780548628429,0.026640603529010043,
0.06892768079800499,0.04103086758462285,
0.06897755610972568,0.008193205296772692,
0.06902743142144638,0.018307886997305192,
0.06907730673316709,0.026020434864690155,
0.06912718204488778,0.03117729819778254,
0.06917705735660848,0.04312105547097249,
0.06922693266832917,0.046616208023763844,
0.06927680798004987,0.05074278809093509,
0.06932668329177058,0.031070458039594705,
0.06937655860349128,0.015684535694889402,
0.06942643391521197,0.04747615094460021,
0.06947630922693267,0.011142435344060266,
0.06952618453865336,0.007542625002303564,
0.06957605985037406,0.0014377192835122628,
0.06962593516209477,0.03175425115297969,
0.06967581047381546,0.023995630857262664,
0.06972568578553616,0.005102513254282605,
0.06977556109725686,0.013085019326115482,
0.06982543640897755,-0.006963098120626201,
0.06987531172069826,0.01702062288515955,
0.06992518703241896,0.0447219444096443,
0.06997506234413965,0.036021062690347334,
0.07002493765586035,0.021375942065961634,
0.07007481296758104,0.007668683219743079,
0.07012468827930174,0.020322759088005408,
0.07017456359102245,0.035598258615583654,
0.07022443890274314,0.03204116730064995,
0.07027431421446384,0.05991808148955789,
0.07032418952618454,0.017240410127917632,
0.07037406483790523,-0.0033708340589455807,
0.07042394014962594,0.027002567452743334,
0.07047381546134664,0.009031676288668003,
0.07052369077306733,0.036534334493796866,
0.07057356608478803,0.065018713191383,
0.07062344139650872,0.004542519750643506,
0.07067331670822943,0.006703748155897209,
0.07072319201995013,0.038694609875836415,
0.07077306733167082,0.05174702577570625,
0.07082294264339152,0.025806509793459095,
0.07087281795511222,0.04103278625333576,
0.07092269326683291,0.014936221226931405,
0.07097256857855362,0.0173469346788105,
0.07102244389027432,0.013460628168875438,
0.07107231920199501,0.01497596242199332,
0.07112219451371571,0.017013237204715113,
0.0711720698254364,0.023908286328623858,
0.07122194513715711,0.008230974696448816,
0.07127182044887781,-0.006594073802255542,
0.0713216957605985,0.002132145153882794,
0.0713715710723192,0.013272867125252854,
0.0714214463840399,0.0007404198340390158,
0.07147132169576059,0.03963815931492436,
0.0715211970074813,0.0009676561774595912,
0.071571072319202,0.019799384494284485,
0.0716209476309227,0.009632906336063583,
0.07167082294264339,-0.011147310208190377,
0.07172069825436408,-0.003015629025163365,
0.0717705735660848,0.0018546489352370844,
0.07182044887780549,0.031030109393309573,
0.07187032418952619,0.026036558963511564,
0.07192019950124688,-0.018054611388241434,
0.07197007481296758,0.005182623204783848,
0.07201995012468827,0.012435202286364248,
0.07206982543640898,0.00502323905141701,
0.07211970074812968,0.019011655528349186,
0.07216957605985037,0.0028631195536118125,
0.07221945137157107,0.013032851362192963,
0.07226932668329177,-0.010321083580876307,
0.07231920199501247,-0.0005825325224809354,
0.07236907730673317,0.022046064318457,
0.07241895261845387,0.02190549666564695,
0.07246882793017456,0.012316995262318785,
0.07251870324189526,0.03095637081409055,
0.07256857855361595,0.017760095467592794,
0.07261845386533666,0.007816746323369365,
0.07266832917705736,0.00017518030204246183,
0.07271820448877805,0.0406743615513506,
0.07276807980049875,0.004144257077925009,
0.07281795511221945,0.022053137736956954,
0.07286783042394016,0.008972739572604537,
0.07291770573566085,0.015663258600112258,
0.07296758104738155,-0.00211857327081852,
0.07301745635910224,-0.015119648634927266,
0.07306733167082294,0.0047157094865085715,
0.07311720698254365,0.008374737525345845,
0.07316708229426434,0.00925793828348987,
0.07321695760598504,-0.003559405066585921,
0.07326683291770573,0.007567594119109915,
0.07331670822942643,-0.0025400817621150005,
0.07336658354114713,0.005013673301618452,
0.07341645885286784,-0.001962064119273619,
0.07346633416458853,0.006588331364442134,
0.07351620947630923,0.024575582282582976,
0.07356608478802992,0.006306014196361756,
0.07361596009975062,0.004214122966669707,
0.07366583541147133,-0.003115142591675561,
0.07371571072319202,-0.006199766713018883,
0.07376558603491272,-0.007713858940619989,
0.07381546134663342,-0.022379929499223867,
0.07386533665835411,-0.024163784782172248,
0.0739152119700748,0.010371316764887858,
0.07396508728179552,0.004838617916777074,
0.07401496259351621,-0.007744019480947466,
0.07406483790523691,0.00013112614954185293,
0.0741147132169576,-0.0007263024647013432,
0.0741645885286783,0.006239714713796605,
0.07421446384039901,0.015378014995828759,
0.0742643391521197,-0.014314462024017698,
0.0743142144638404,0.0011065149998160826,
0.0743640897755611,-0.017431134945510268,
0.07441396508728179,0.0023757577086635957,
0.07446384039900249,0.015039351138762069,
0.0745137157107232,-0.015019650359792754,
0.07456359102244389,0.03690502222360377,
0.07461346633416459,-0.004337674193568536,
0.07466334164588528,-0.0008390402540843457,
0.07471321695760598,-0.03925911345149716,
0.07476309226932669,-0.0003781232071906667,
0.07481296758104738,-0.00460563081869985,
0.07486284289276808,-0.011588233416251034,
0.07491271820448878,-0.017906337835273286,
0.07496259351620947,-0.012259685566855447,
0.07501246882793017,0.0007787399695784293,
0.07506234413965088,-0.012559696730204982,
0.07511221945137157,-0.009303140358297969,
0.07516209476309227,-0.008707019723373087,
0.07521197007481296,-0.0025624663277743712,
0.07526184538653366,-0.01801053110311092,
0.07531172069825437,-0.030457777737224745,
0.07536159600997507,0.00014390595218088942,
0.07541147132169576,-0.017770836219129227,
0.07546134663341646,-0.024604603335206674,
0.07551122194513715,-0.008246281762007479,
0.07556109725685786,-0.025382017300802646,
0.07561097256857856,0.006164366718265429,
0.07566084788029925,-0.002832548059374532,
0.07571072319201995,0.0007257334199600417,
0.07576059850374064,-0.003262483953491508,
0.07581047381546134,0.008481838011440696,
0.07586034912718205,0.01418161874572879,
0.07591022443890275,0.01591631989230173,
0.07596009975062344,-0.03488432277656373,
0.07600997506234414,-0.02629996438375638,
0.07605985037406483,0.007713342942640271,
0.07610972568578554,0.0019715729151322456,
0.07615960099750624,0.005832133668088952,
0.07620947630922693,-0.009053536088811551,
0.07625935162094763,-0.0217643354057808,
0.07630922693266833,-0.033146284880340375,
0.07635910224438902,-0.0054971019338354065,
0.07640897755610973,-0.01903350328155379,
0.07645885286783043,-0.02122593371991515,
0.07650872817955112,-0.009187146798213343,
0.07655860349127182,-0.004609525728638661,
0.07660847880299251,-0.0002764535371450171,
0.07665835411471322,-0.016366919440391623,
0.07670822942643392,-0.03325450841683872,
0.07675810473815461,-0.0028445040916654386,
0.07680798004987531,-0.017012112602225682,
0.076857855361596,-0.019078483675429345,
0.0769077306733167,-0.024087689567641034,
0.07695760598503741,-0.007761343861582107,
0.0770074812967581,-0.03097290672728816,
0.0770573566084788,0.005137647847323554,
0.0771072319201995,0.026258190750951607,
0.0771571072319202,0.00838966976319128,
0.0772069825436409,-0.002426854546441981,
0.0772568578553616,0.0007489832945110839,
0.0773067331670823,0.0005315785324583894,
0.07735660847880299,-0.03704838306470715,
0.07740648379052369,-0.02713834425700308,
0.0774563591022444,0.009516236364206112,
0.07750623441396509,-0.029154592963130728,
0.07755610972568579,0.004463119486516591,
0.07760598503740648,-0.0014220604816532149,
0.07765586034912718,-0.012374379112444869,
0.07770573566084787,-0.023915402052462162,
0.07775561097256858,-0.013598608116961066,
0.07780548628428928,-0.01031948507862073,
0.07785536159600998,-0.005276936042030054,
0.07790523690773067,-0.006634597722230798,
0.07795511221945137,0.0022874562287728273,
0.07800498753117208,-0.03849481062845788,
0.07805486284289277,-0.023891223343012462,
0.07810473815461347,-0.012704331087003532,
0.07815461346633416,-0.004357074435125147,
0.07820448877805486,-0.013786771712955427,
0.07825436408977555,0.0025393319140245337,
0.07830423940149626,-0.00039697738361734944,
0.07835411471321696,-0.0014741801394780214,
0.07840399002493766,-0.005743148154681944,
0.07845386533665835,-0.018554669231945018,
0.07850374064837905,-0.0038666195623991324,
0.07855361596009976,-0.001477560438798306,
0.07860349127182045,0.001167959494821921,
0.07865336658354115,-0.009864517799998807,
0.07870324189526184,-0.016739985650709145,
0.07875311720698254,-0.010273772483482449,
0.07880299251870324,-0.0006715568266064918,
0.07885286783042394,-0.00853477359619554,
0.07890274314214464,-0.008116613565653099,
0.07895261845386534,-0.018213026084920175,
0.07900249376558603,-0.010534851106747506,
0.07905236907730673,-0.03901966845563802,
0.07910224438902744,-0.01844804876000881,
0.07915211970074813,-0.031235255730794942,
0.07920199501246883,0.0015694949059298635,
0.07925187032418952,0.0004411344314990493,
0.07930174563591022,-0.012858840453388488,
0.07935162094763092,0.008981401393562325,
0.07940149625935163,-0.02718019910827715,
0.07945137157107232,-0.009266331066735863,
0.07950124688279302,0.0053905246112552554,
0.07955112219451371,0.003128974822175815,
0.07960099750623441,-0.0010443203081872045,
0.07965087281795512,-0.017605000734460044,
0.07970074812967581,0.001856873369374618,
0.07975062344139651,-0.0006062526551140947,
0.0798004987531172,-0.019154663631569105,
0.0798503740648379,-0.025222907754740873,
0.07990024937655861,-0.004653896312971366,
0.0799501246882793,-0.010498298961540751,
0.08,0.012774101111154946,
0.0800498753117207,-0.006477012363625906,
0.0800997506234414,0.015376100341119902,
0.08014962593516209,-0.0035468643434324104,
0.0801995012468828,-0.015943838850612818,
0.0802493765586035,-0.027745158798895733,
0.08029925187032419,-0.015824755087239316,
0.08034912718204489,-0.023114725694321454,
0.08039900249376558,-0.023196550578227178,
0.08044887780548629,-0.0050420642581127766,
0.08049875311720699,-0.002157877796047339,
0.08054862842892768,0.009550502646070864,
0.08059850374064838,-0.0029339281605854335,
0.08064837905236907,0.014810583772165166,
0.08069825436408977,-0.010783719957903108,
0.08074812967581048,-0.008853815021589731,
0.08079800498753117,-0.0024666719199886978,
0.08084788029925187,-0.020122083481782897,
0.08089775561097257,-0.02169194821444891,
0.08094763092269326,-0.018572996927176743,
0.08099750623441397,-0.0321559817844179,
0.08104738154613467,-0.005887441440795934,
0.08109725685785536,0.005068081166664123,
0.08114713216957606,-0.020123706710629203,
0.08119700748129675,0.0064872982685095035,
0.08124688279301745,0.011864782707511314,
0.08129675810473816,-0.0034404798655420874,
0.08134663341645886,-0.01472913229343202,
0.08139650872817955,0.010153357047457269,
0.08144638403990025,-0.0018441650254209679,
0.08149625935162094,0.00975033333062755,
0.08154613466334165,0.006679336263363262,
0.08159600997506235,0.022147262209370945,
0.08164588528678304,-0.0019931182886061076,
0.08169576059850374,-0.017327913212909694,
0.08174563591022443,-0.021723653729230172,
0.08179551122194513,-0.010898723264478445,
0.08184538653366584,-0.02549498946577332,
0.08189526184538654,0.004570031845570931,
0.08194513715710723,0.027647740406154496,
0.08199501246882793,0.005024974553619474,
0.08204488778054862,-0.019938653703179123,
0.08209476309226933,0.00313969700586488,
0.08214463840399003,0.010715200162700451,
0.08219451371571072,0.003483987311347602,
0.08224438902743142,0.015281591988908471,
0.08229426433915212,0.020926859068738812,
0.08234413965087282,0.02796310651293265,
0.08239401496259352,-0.009911812090710948,
0.08244389027431422,-0.025830408986262564,
0.08249376558603491,-0.0036236151224460847,
0.08254364089775561,-0.0028732386094785537,
0.0825935162094763,-0.006233449181589204,
0.08264339152119701,0.00020339883834061614,
0.08269326683291771,-0.01414796552565818,
0.0827431421446384,0.008025890103209792,
0.0827930174563591,-0.015693427233258613,
0.0828428927680798,0.0037766888196184025,
0.0828927680798005,-0.01823962017601225,
0.0829426433915212,0.003976916194973836,
0.0829925187032419,0.014013064196213993,
0.08304239401496259,0.002481418163568335,
0.08309226932668329,0.021676124283940404,
0.08314214463840398,0.023853926243397036,
0.0831920199501247,0.00461434651753183,
0.08324189526184539,-0.01052072266799446,
0.08329177057356608,0.02419756234790178,
0.08334164588528678,0.01320804633511877,
0.08339152119700748,0.03347072185215958,
0.08344139650872819,-0.004937025876813288,
0.08349127182044888,-0.0040729681514086475,
0.08354114713216958,0.010351493075919704,
0.08359102244389027,0.006810522554503829,
0.08364089775561097,-0.006722090116764244,
0.08369077306733166,0.0426351696335992,
0.08374064837905237,0.024912405945937806,
0.08379052369077307,-0.002460085471634378,
0.08384039900249377,0.008145136692383283,
0.08389027431421446,0.02578699003226051,
0.08394014962593516,0.007247805248397657,
0.08399002493765587,0.011353045816469579,
0.08403990024937656,0.0193353308303357,
0.08408977556109726,0.005377695865919012,
0.08413965087281795,-0.015282615685637525,
0.08418952618453865,0.018229391837795227,
0.08423940149625936,0.026450132897647194,
0.08428927680798005,0.03884159084650378,
0.08433915211970075,-0.0032818901504560634,
0.08438902743142145,0.00965542602414977,
0.08443890274314214,0.015313849256734902,
0.08448877805486284,0.019047257172264312,
0.08453865336658355,0.026948882700348033,
0.08458852867830424,0.020450269284085398,
0.08463840399002494,0.01451948603866306,
0.08468827930174563,0.016285813392315208,
0.08473815461346633,0.0028051539782618894,
0.08478802992518704,0.03255252931059549,
0.08483790523690773,0.037588383468906444,
0.08488778054862843,0.02168600853532132,
0.08493765586034913,0.04158090482913865,
0.08498753117206982,0.01629737071157038,
0.08503740648379052,0.03294192681425273,
0.08508728179551123,-0.001026645758334381,
0.08513715710723192,0.00679099927811861,
0.08518703241895262,0.040163014520064544,
0.08523690773067331,0.021612973624515745,
0.08528678304239401,0.015673452334213585,
0.08533665835411472,0.02455417153944887,
0.08538653366583542,0.016964513308602176,
0.08543640897755611,0.008097419593723724,
0.0854862842892768,0.028809482012104926,
0.0855361596009975,0.0291313838787624,
0.0855860349127182,0.0251956164858348,
0.08563591022443891,0.007111845550630011,
0.0856857855361596,0.039849527810799173,
0.0857356608478803,0.0377781656422503,
0.085785536159601,0.015561889052251478,
0.08583541147132169,0.0330948844390906,
0.0858852867830424,0.03520622521902757,
0.0859351620947631,0.02359892113719346,
0.08598503740648379,0.035868202863156104,
0.08603491271820449,0.03761858085423304,
0.08608478802992518,0.006444271162607002,
0.08613466334164588,0.024870201367332832,
0.08618453865336659,0.0373676122207439,
0.08623441396508728,0.023135884219479656,
0.08628428927680798,0.02102989597857566,
0.08633416458852868,0.022757809408411492,
0.08638403990024937,0.001797890919160345,
0.08643391521197008,0.03903273803991541,
0.08648379052369078,0.03544439353888057,
0.08653366583541147,0.02192845151996587,
0.08658354114713217,0.030553497041142453,
0.08663341645885286,-0.010928467319710984,
0.08668329177057357,0.03842013769799568,
0.08673316708229427,0.04105594155160525,
0.08678304239401496,0.013042101475440162,
0.08683291770573566,0.046200058753567946,
0.08688279301745636,0.01742057919821282,
0.08693266832917705,0.020731584666053574,
0.08698254364089776,0.010221769589112818,
0.08703241895261846,0.0337112646960419,
0.08708229426433915,0.03469819927987436,
0.08713216957605985,0.02077317664017936,
0.08718204488778054,0.041917904636195186,
0.08723192019950125,0.04132404623345692,
0.08728179551122195,0.040519956665273936,
0.08733167082294264,0.054496990715096574,
0.08738154613466334,0.0425103790342774,
0.08743142144638404,0.028219526903176313,
0.08748129675810473,0.028016324440584973,
0.08753117206982544,0.03459447532629999,
0.08758104738154614,0.03515028677714034,
0.08763092269326683,0.01895646800291512,
0.08768079800498753,0.03133533320009871,
0.08773067331670822,0.033577974743612175,
0.08778054862842893,0.01473682277549977,
0.08783042394014963,0.03144181769284375,
0.08788029925187033,0.009135952956680338,
0.08793017456359102,0.0504597856837965,
0.08798004987531172,-0.00550152894297478,
0.08802992518703241,0.032905764142058765,
0.08807980049875312,0.03539641848340006,
0.08812967581047382,0.07943681519531862,
0.08817955112219451,0.03239788270105284,
0.08822942643391521,0.010325052692475693,
0.0882793017456359,0.03280189589103367,
0.08832917705735661,0.03973381712281142,
0.08837905236907731,0.02844696703881573,
0.088428927680798,0.023781663428638192,
0.0884788029925187,0.04021483396759275,
0.0885286783042394,0.012931011413290876,
0.0885785536159601,0.026941498499904293,
0.0886284289276808,0.03319256218607584,
0.0886783042394015,0.026667436499219863,
0.0887281795511222,0.01898527059457443,
0.08877805486284289,0.04806777952565909,
0.08882793017456359,0.022418034621632502,
0.0888778054862843,0.04703770916173722,
0.08892768079800499,0.03009410519560558,
0.08897755610972569,0.013529530029766082,
0.08902743142144638,0.009721047533235869,
0.08907730673316708,0.028917390956227577,
0.08912718204488779,0.011081154537574807,
0.08917705735660848,0.03214900824966357,
0.08922693266832918,0.03184961222234294,
0.08927680798004987,0.04897153231280186,
0.08932668329177057,0.020282544578202506,
0.08937655860349127,0.02853266895365651,
0.08942643391521198,0.050496003839254275,
0.08947630922693267,0.041443908227938406,
0.08952618453865337,0.01634262546814262,
0.08957605985037406,0.02573494744780007,
0.08962593516209476,0.0402216872604183,
0.08967581047381547,0.015103723717909252,
0.08972568578553616,0.017222975789021603,
0.08977556109725686,0.0008133645208361212,
0.08982543640897755,0.009640593577254329,
0.08987531172069825,0.02034354997365992,
0.08992518703241895,0.03474083173327408,
0.08997506234413966,-0.0005724680958414004,
0.09002493765586035,0.020678358130019756,
0.09007481296758105,0.018027914530600226,
0.09012468827930174,0.02820765874470622,
0.09017456359102244,0.020918446412651566,
0.09022443890274315,0.0037740151982402458,
0.09027431421446384,0.037157798560741716,
0.09032418952618454,0.018274978439670367,
0.09037406483790524,0.04725273703744279,
0.09042394014962593,0.0003114465276013549,
0.09047381546134663,0.01401045637887819,
0.09052369077306734,0.02050688246520684,
0.09057356608478803,0.015168604391596802,
0.09062344139650873,0.012262012595176132,
0.09067331670822942,0.02309845656017604,
0.09072319201995012,0.015236407155721837,
0.09077306733167083,0.02878624952962932,
0.09082294264339152,0.022021132908171398,
0.09087281795511222,0.03544755636605365,
0.09092269326683292,-0.01462505468032069,
0.09097256857855361,0.0296094492336115,
0.09102244389027432,0.016621739362255587,
0.09107231920199502,0.017919990635356712,
0.09112219451371571,0.003943432994722107,
0.09117206982543641,0.032763790856848635,
0.0912219451371571,-0.01398482728806253,
0.0912718204488778,0.0003424580651027881,
0.09132169576059851,0.018424819782821854,
0.0913715710723192,0.016106805355588623,
0.0914214463840399,0.020368958525351456,
0.0914713216957606,0.026800610932761256,
0.09152119700748129,0.014844247572021201,
0.091571072319202,0.020977140487938185,
0.0916209476309227,0.027921385109970512,
0.09167082294264339,0.027050295546726326,
0.09172069825436409,0.024836521345653315,
0.09177057356608478,0.008020346609434736,
0.09182044887780548,0.026601722627874524,
0.09187032418952619,0.010970966539755973,
0.09192019950124689,0.011386713696155617,
0.09197007481296758,0.01921486644797503,
0.09201995012468828,0.006287054634006569,
0.09206982543640897,0.021886950576569815,
0.09211970074812968,-0.00645178268474568,
0.09216957605985038,0.02838597352542688,
0.09221945137157107,0.014836286334728308,
0.09226932668329177,0.0008877125001890071,
0.09231920199501246,0.010907817953082509,
0.09236907730673316,-0.012247051801512887,
0.09241895261845387,0.0016934636060804246,
0.09246882793017457,0.030205640720677704,
0.09251870324189526,-0.010460718852765385,
0.09256857855361596,-0.007728411198509998,
0.09261845386533665,0.037211932746348805,
0.09266832917705736,-0.012055638432181201,
0.09271820448877806,0.015218367890859237,
0.09276807980049875,-0.0020969419357583508,
0.09281795511221945,0.025795835004035594,
0.09286783042394015,0.02140507312661997,
0.09291770573566084,0.028070394277462503,
0.09296758104738155,0.01594524379318112,
0.09301745635910225,0.016014821536166988,
0.09306733167082294,-0.011243137829789893,
0.09311720698254364,0.024513923380246272,
0.09316708229426433,-0.0011450197611831033,
0.09321695760598504,0.004102205668726634,
0.09326683291770574,0.03581884594612705,
0.09331670822942643,0.010557977523858116,
0.09336658354114713,-0.01582989300572256,
0.09341645885286783,0.020646876690950163,
0.09346633416458854,0.003915713167818456,
0.09351620947630923,-0.02865251423838678,
0.09356608478802993,0.0020419411425115653,
0.09361596009975062,-0.012641132581269943,
0.09366583541147132,0.012249827789095892,
0.09371571072319201,-0.012571958843736162,
0.09376558603491272,0.02100214986451689,
0.09381546134663342,-0.010828933638708769,
0.09386533665835411,0.019442637833221983,
0.09391521197007481,0.008277864200980912,
0.0939650872817955,0.015740145488430682,
0.09401496259351622,-0.0002022760032583447,
0.09406483790523691,0.021330205547581773,
0.09411471321695761,0.024376446976472316,
0.0941645885286783,-0.010020499528178935,
0.094214463840399,0.0007047698177385377,
0.0942643391521197,-0.03365276635816583,
0.0943142144638404,-0.026306225250088848,
0.0943640897755611,0.021484721418097468,
0.0944139650872818,0.0021856660840426055,
0.09446384039900249,0.001509187502058985,
0.09451371571072319,0.000853171487546244,
0.0945635910224439,0.013864118488226876,
0.09461346633416459,0.016077931956058982,
0.09466334164588529,0.005111686854751131,
0.09471321695760598,-0.0031295416595500773,
0.09476309226932668,0.0014412301616604627,
0.09481296758104737,-0.013252258425851954,
0.09486284289276808,0.0033618330527951526,
0.09491271820448878,-0.02155921389375165,
0.09496259351620948,0.017915656641708015,
0.09501246882793017,0.0303448597470838,
0.09506234413965087,-0.017235096165445433,
0.09511221945137158,-0.011072317878787687,
0.09516209476309227,-0.016077801054009865,
0.09521197007481297,0.002084749629066694,
0.09526184538653366,-0.005932242087730919,
0.09531172069825436,-0.007609670817475817,
0.09536159600997507,-0.004736776506938004,
0.09541147132169576,-0.0010481334478683792,
0.09546134663341646,-0.02463821798730024,
0.09551122194513716,-0.03700586865981969,
0.09556109725685785,0.0155518200522723,
0.09561097256857855,-0.008600160759145579,
0.09566084788029926,0.012148523801722126,
0.09571072319201995,-0.008406804304248797,
0.09576059850374065,-0.010252829376066017,
0.09581047381546134,0.007179389877013147,
0.09586034912718204,0.0038011866960986507,
0.09591022443890275,0.0076663175085761506,
0.09596009975062345,0.015355208127530232,
0.09600997506234414,-0.022571469854513075,
0.09605985037406484,0.004803195253383446,
0.09610972568578553,-0.0015326170156033068,
0.09615960099750623,0.0012340291302658027,
0.09620947630922694,0.017649985738553517,
0.09625935162094763,-0.01208144052673118,
0.09630922693266833,-0.009340777170688496,
0.09635910224438902,-0.01071503836762791,
0.09640897755610972,-0.02198527129099387,
0.09645885286783043,0.0030975148703513856,
0.09650872817955113,0.030761936597580912,
0.09655860349127182,-0.003377900635118493,
0.09660847880299252,-0.009377201848046704,
0.09665835411471321,-0.030374124155998546,
0.09670822942643391,-0.01577840179965044,
0.09675810473815462,-0.03709979117328409,
0.09680798004987531,-0.021934530347766986,
0.09685785536159601,-0.020417056482138547,
0.0969077306733167,-0.012453681723246107,
0.0969576059850374,-0.029851818664490333,
0.09700748129675811,-0.011004555563392124,
0.0970573566084788,-0.010388346673071066,
0.0971072319201995,-0.0359917987427809,
0.0971571072319202,-0.02233010764008758,
0.0972069825436409,-0.01521937668580527,
0.09725685785536159,-0.01929880065091704,
0.0973067331670823,-0.013139082559176667,
0.097356608478803,-0.003101265564687908,
0.09740648379052369,-0.020881689552066415,
0.09745635910224439,-0.022885198407273356,
0.09750623441396508,-0.02897382221820446,
0.09755610972568579,0.010829468167730737,
0.09760598503740649,-0.010481916556622478,
0.09765586034912718,-0.017526765212123638,
0.09770573566084788,-0.025397983666758425,
0.09775561097256857,-0.007319752623942282,
0.09780548628428928,-0.01051631846252648,
0.09785536159600998,-0.016903231102515313,
0.09790523690773068,0.013089234794906299,
0.09795511221945137,-0.0344103180997697,
0.09800498753117207,0.0017807055606150896,
0.09805486284289276,-0.007867690710010127,
0.09810473815461347,-0.01773127605005275,
0.09815461346633417,-0.013626292858049182,
0.09820448877805486,-0.004104354186175215,
0.09825436408977556,-0.032172816793317315,
0.09830423940149625,-0.013026822719782838,
0.09835411471321696,-0.043712966615832086,
0.09840399002493766,-0.024127148851959025,
0.09845386533665836,0.023466216752332007,
0.09850374064837905,-0.011528838112997519,
0.09855361596009975,-0.0040543664311631315,
0.09860349127182044,-0.03407520529690822,
0.09865336658354115,0.01143760404264595,
0.09870324189526185,-0.006412079401163286,
0.09875311720698254,0.0014889948737778526,
0.09880299251870324,-0.015817965927599355,
0.09885286783042393,-0.003262999879479275,
0.09890274314214464,0.003313517195839503,
0.09895261845386534,-0.03022950607391401,
0.09900249376558604,-0.008894656104537558,
0.09905236907730673,-0.01347038620212691,
0.09910224438902743,-0.020620882030780847,
0.09915211970074812,-0.013221070792330729,
0.09920199501246883,-0.006969553020324344,
0.09925187032418953,-0.0049596313689963395,
0.09930174563591022,-0.003266107026371706,
0.09935162094763092,0.00011707160356788822,
0.09940149625935162,-0.014666248175269465,
0.09945137157107233,0.0022718648921311365,
0.09950124688279302,-0.034868835858092306,
0.09955112219451372,-0.00047077318754424474,
0.09960099750623441,-0.01708231866074877,
0.09965087281795511,-0.02631741259814875,
0.0997007481296758,0.02023607911841211,
0.09975062344139651,-0.006596281917387039,
0.09980049875311721,-0.004294034664656316,
0.0998503740648379,-0.0038443595891466354,
0.0999002493765586,-0.005223599170286025,
0.0999501246882793,-0.015036545289677518,
0.1,-0.008716241006261595,
0.1000498753117207,0.00960474818493139,
0.1000997506234414,-0.024701119457947517,
0.10014962593516209,-0.029766226681309044,
0.10019950124688279,-0.005933097156180896,
0.1002493765586035,0.010724744847627877,
0.1002992518703242,-0.003786789294085566,
0.10034912718204489,0.0033340816191175897,
0.10039900249376559,-0.02652812938872092,
0.10044887780548628,0.0010804250043269532,
0.10049875311720698,-8.981755603089218e-05,
0.10054862842892769,-0.017428792066849542,
0.10059850374064838,-0.005239814203211636,
0.10064837905236908,-0.004987639065549589,
0.10069825436408977,-0.019232289524867476,
0.10074812967581047,-0.025681564967047092,
0.10079800498753118,0.0018361462438264316,
0.10084788029925187,0.006102885898314362,
0.10089775561097257,-0.014857385123022003,
0.10094763092269327,0.022547617373137194,
0.10099750623441396,9.566367325172364e-06,
0.10104738154613466,0.0035726443411656355,
0.10109725685785537,0.010023163252205768,
0.10114713216957606,0.0020784703974314547,
0.10119700748129676,-0.001173693165444571,
0.10124688279301745,-0.014226608764751451,
0.10129675810473815,-0.02008847848044274,
0.10134663341645886,0.018633359787208578,
0.10139650872817955,0.006101184326996673,
0.10144638403990025,-0.029466890809581186,
0.10149625935162095,0.005041208122382469,
0.10154613466334164,0.012975785553125209,
0.10159600997506234,-0.007802150077978463,
0.10164588528678305,0.011687128723811693,
0.10169576059850374,-0.026297358056426023,
0.10174563591022444,0.017398151126671674,
0.10179551122194513,0.026099162312311366,
0.10184538653366583,-0.005522320908237509,
0.10189526184538654,0.024332860108857025,
0.10194513715710724,-0.010305227296878047,
0.10199501246882793,0.04222650983228577,
0.10204488778054863,0.007356579309867381,
0.10209476309226932,-0.006055145690435773,
0.10214463840399003,0.02425329370973402,
0.10219451371571073,-0.002550224187588608,
0.10224438902743142,-0.0011925717219875,
0.10229426433915212,7.436691460235845e-05,
0.10234413965087281,0.032480778975913595,
0.10239401496259351,0.019656720075779045,
0.10244389027431422,0.0036399060094108445,
0.10249376558603492,-0.0011926309507820382,
0.10254364089775561,0.04434097842950963,
0.10259351620947631,0.0004073252410343991,
0.102643391521197,0.00019245948972384467,
0.10269326683291771,0.012778403918986103,
0.10274314214463841,0.006182034237667002,
0.1027930174563591,0.012960017517364485,
0.1028428927680798,0.0030166500178660394,
0.1028927680798005,0.02452865494391986,
0.10294264339152119,-0.007461913394891289,
0.1029925187032419,0.0074557601385771555,
0.1030423940149626,-0.004121754998686869,
0.10309226932668329,-0.007396175119033243,
0.10314214463840399,0.00223692163128776,
0.10319201995012468,0.0075272353545470525,
0.10324189526184539,0.004227576515984798,
0.10329177057356609,0.04226084287000121,
0.10334164588528678,0.02609462787379828,
0.10339152119700748,-0.013829753999049005,
0.10344139650872818,-0.002349258812786371,
0.10349127182044887,-0.006217620965310269,
0.10354114713216958,0.01314632988531823,
0.10359102244389028,0.02828789259068014,
0.10364089775561097,0.019271754724040857,
0.10369077306733167,0.027202542207246928,
0.10374064837905236,0.010094078345267155,
0.10379052369077307,0.0381054004152282,
0.10384039900249377,0.040532744247758816,
0.10389027431421446,0.03000395671663427,
0.10394014962593516,-0.004605571849208203,
0.10399002493765586,0.015495186752224666,
0.10403990024937655,0.012782998420780362,
0.10408977556109726,0.03263890596462434,
0.10413965087281796,0.017031178476847424,
0.10418952618453865,0.012571918560346342,
0.10423940149625935,0.023320684196075206,
0.10428927680798004,0.025342338248114826,
0.10433915211970075,-0.009861742235188445,
0.10438902743142145,0.020369925832343656,
0.10443890274314215,0.019481264040727215,
0.10448877805486284,0.040344378957839135,
0.10453865336658354,0.04007039586137532,
0.10458852867830425,0.026904689829987102,
0.10463840399002494,0.009471888725730382,
0.10468827930174564,0.02157525178346821,
0.10473815461346633,0.015648702753040783,
0.10478802992518703,-0.0028401735208786125,
0.10483790523690772,0.020297735247418663,
0.10488778054862843,0.016135500145365994,
0.10493765586034913,-0.007328921312112498,
0.10498753117206983,0.030454938033649778,
0.10503740648379052,0.03935306154207592,
0.10508728179551122,0.00551422324955988,
0.10513715710723193,0.028365569067440102,
0.10518703241895262,0.03680369775527405,
0.10523690773067332,-0.0054999804068440565,
0.10528678304239401,0.04545233981171204,
0.10533665835411471,0.025730750749627683,
0.1053865336658354,0.044477962224516256,
0.10543640897755611,0.025112183406731405,
0.10548628428927681,0.021056006808000845,
0.1055361596009975,0.03772691985204995,
0.1055860349127182,0.011868217195039514,
0.1056359102244389,0.01590847780254183,
0.10568578553615961,0.007882258098146126,
0.1057356608478803,0.023125062882420132,
0.105785536159601,0.03158249731162543,
0.1058354114713217,0.018808674575795974,
0.10588528678304239,0.015199630143990974,
0.10593516209476309,0.009889243971779557,
0.1059850374064838,-0.0027464215128851464,
0.10603491271820449,0.02996729290267737,
0.10608478802992519,0.017178184568844117,
0.10613466334164588,0.014069010893989048,
0.10618453865336658,0.004551533159174396,
0.10623441396508729,0.0017073306854203212,
0.10628428927680798,0.03630340698577812,
0.10633416458852868,0.023654016839456175,
0.10638403990024937,0.0486831940612904,
0.10643391521197007,0.00804450977381575,
0.10648379052369077,0.0010516467523554833,
0.10653366583541148,0.04293107345498834,
0.10658354114713217,0.05068746836881947,
0.10663341645885287,0.024425581765295527,
0.10668329177057356,0.03975219515429616,
0.10673316708229426,0.02953645890833228,
0.10678304239401497,0.028089414704631825,
0.10683291770573566,0.019858016413563037,
0.10688279301745636,0.0005031036085272819,
0.10693266832917706,0.011603518931668572,
0.10698254364089775,0.018363826666522663,
0.10703241895261846,0.02733214767912031,
0.10708229426433916,0.03691773629936739,
0.10713216957605985,0.06491513669621185,
0.10718204488778055,0.017879425921253404,
0.10723192019950124,0.02115454402877696,
0.10728179551122194,0.041234624649920226,
0.10733167082294265,0.046878432514936855,
0.10738154613466334,0.019397311256265374,
0.10743142144638404,0.026032569042669602,
0.10748129675810474,0.030712236015282467,
0.10753117206982543,0.004349791001452184,
0.10758104738154614,0.01155030383879686,
0.10763092269326684,0.0491211835729711,
0.10768079800498753,0.016310789420167324,
0.10773067331670823,0.05524565374535152,
0.10778054862842892,0.045260368520662966,
0.10783042394014962,0.009284842607421875,
0.10788029925187033,0.024751528838557624,
0.10793017456359102,0.03122796669509295,
0.10798004987531172,0.02643593317606821,
0.10802992518703242,0.014962900404426495,
0.10807980049875311,0.03950496547543805,
0.10812967581047382,0.009405844784338924,
0.10817955112219452,0.03593401901908972,
0.10822942643391521,0.038616903520222734,
0.10827930174563591,0.027091504761844992,
0.1083291770573566,0.025901572504649143,
0.1083790523690773,0.028561636496635356,
0.10842892768079801,-0.017784036431774536,
0.1084788029925187,0.009449531597263128,
0.1085286783042394,0.03630695459836968,
0.1085785536159601,0.023134315786002342,
0.10862842892768079,0.01724804740249506,
0.1086783042394015,0.018125742664600757,
0.1087281795511222,0.025912598168443015,
0.1087780548628429,0.023055897941019657,
0.10882793017456359,0.02681122278183363,
0.10887780548628428,0.05145829831985697,
0.108927680798005,0.02450993884522059,
0.10897755610972569,0.010322308739662635,
0.10902743142144639,0.050780082417025196,
0.10907730673316708,0.009489421679555677,
0.10912718204488778,0.025661930090757193,
0.10917705735660847,0.037197209016908275,
0.10922693266832918,0.026002504723414664,
0.10927680798004988,0.022618868968977936,
0.10932668329177057,0.01679659618363223,
0.10937655860349127,0.02087819055831872,
0.10942643391521197,0.04221630188164607,
0.10947630922693267,0.022185158163586533,
0.10952618453865337,0.03393891883575294,
0.10957605985037407,0.023652655716357034,
0.10962593516209476,0.04062740749326988,
0.10967581047381546,0.003515137020932778,
0.10972568578553615,0.03796799927371612,
0.10977556109725686,0.026668397278024596,
0.10982543640897756,0.024691154313234365,
0.10987531172069825,0.02483291894244742,
0.10992518703241895,0.03504058776371084,
0.10997506234413965,0.015090648011528533,
0.11002493765586036,0.03211082862926669,
0.11007481296758105,0.027159721597064927,
0.11012468827930175,0.03387451310200269,
0.11017456359102244,0.01263449197810891,
0.11022443890274314,0.03443019854370913,
0.11027431421446383,0.0472734171668301,
0.11032418952618454,0.0347565704373323,
0.11037406483790524,0.04553775594463957,
0.11042394014962593,0.03369221915427953,
0.11047381546134663,0.0325327955378846,
0.11052369077306733,0.03556667828001449,
0.11057356608478804,0.02200941935219906,
0.11062344139650873,0.03073683368907518,
0.11067331670822943,-0.0010828124268475355,
0.11072319201995012,-0.01620429132223529,
0.11077306733167082,0.005275184396355511,
0.11082294264339151,-0.005659302680512363,
0.11087281795511222,0.0261971809200689,
0.11092269326683292,-0.0015368846548758745,
0.11097256857855362,0.010464263992181052,
0.11102244389027431,0.03649410061654465,
0.111072319201995,0.03415645237296714,
0.11112219451371572,0.01980243749634064,
0.11117206982543641,0.03784992203048393,
0.11122194513715711,0.025121646932110032,
0.1112718204488778,0.0009434763807341096,
0.1113216957605985,0.02816086052245899,
0.11137157107231921,0.013876064430076237,
0.1114214463840399,0.007146818479799722,
0.1114713216957606,0.01387252404063797,
0.1115211970074813,0.018052357921735467,
0.11157107231920199,0.0020513906459318394,
0.11162094763092269,0.010641306906945883,
0.1116708229426434,0.014975351905494995,
0.11172069825436409,-0.013597133903123325,
0.11177057356608479,0.021204788798338724,
0.11182044887780548,0.028576857112620105,
0.11187032418952618,0.002405393450663129,
0.11192019950124689,0.0004942506989787099,
0.11197007481296758,0.0018543062641294822,
0.11201995012468828,0.006094095256249926,
0.11206982543640898,0.017158331422017132,
0.11211970074812967,0.014595044041167522,
0.11216957605985037,0.01332206013648654,
0.11221945137157108,0.02474173337658037,
0.11226932668329177,-0.004712895217398875,
0.11231920199501247,0.011348167920442086,
0.11236907730673316,0.008283339158920749,
0.11241895261845386,0.002955555808513201,
0.11246882793017457,0.010312535545264425,
0.11251870324189527,0.006357563113922013,
0.11256857855361596,0.008049247482153899,
0.11261845386533666,0.020160704686071486,
0.11266832917705735,0.02266955213487515,
0.11271820448877805,0.018404323355920113,
0.11276807980049876,0.012973215126774629,
0.11281795511221945,-0.02223493628935837,
0.11286783042394015,0.045177363588289915,
0.11291770573566084,0.013735690090974622,
0.11296758104738154,0.011771298158936499,
0.11301745635910225,-0.0014675884285741975,
0.11306733167082295,0.00982455213595945,
0.11311720698254364,0.01881566855095202,
0.11316708229426434,-0.0019932550562429254,
0.11321695760598503,-0.003082821779245015,
0.11326683291770574,0.009381646291643408,
0.11331670822942644,0.024377365214147156,
0.11336658354114713,0.025910462114554444,
0.11341645885286783,0.02286270612952866,
0.11346633416458853,0.022308225059714533,
0.11351620947630922,0.005904853238292282,
0.11356608478802993,-0.019082916071490076,
0.11361596009975063,0.014274212245571072,
0.11366583541147132,-0.007090197513115335,
0.11371571072319202,-0.008997732189755858,
0.11376558603491271,-0.019886370136907368,
0.11381546134663342,-0.00032184084845482625,
0.11386533665835412,0.00016719789546317887,
0.11391521197007481,-0.0009931182510895063,
0.11396508728179551,0.0007446499753107931,
0.1140149625935162,0.015451718065853905,
0.1140648379052369,-0.023537032407474873,
0.11411471321695761,-0.001622007182646688,
0.1141645885286783,-0.01965100765335233,
0.114214463840399,-0.02089626280344906,
0.1142643391521197,0.014036977088428187,
0.1143142144638404,0.01541773018561613,
0.1143640897755611,-0.001191737231717508,
0.1144139650872818,0.027879733217624523,
0.1144638403990025,0.01066628968238446,
0.11451371571072319,0.009153129528699767,
0.11456359102244389,0.014044177659522523,
0.11461346633416458,0.03278448492948391,
0.11466334164588529,0.0041572926289894915,
0.11471321695760599,-0.004706601135703512,
0.11476309226932668,0.0057541483700755906,
0.11481296758104738,-0.021791769390940668,
0.11486284289276807,0.012286064367558304,
0.11491271820448878,-0.009196474167888366,
0.11496259351620948,0.022996727526133118,
0.11501246882793018,0.002592110385327118,
0.11506234413965087,-0.01848802735867338,
0.11511221945137157,0.009340444656426396,
0.11516209476309226,0.004791595430637256,
0.11521197007481297,-0.016505751557543975,
0.11526184538653367,-0.019136326027212755,
0.11531172069825436,-0.013912669721442918,
0.11536159600997506,-0.03031136975672369,
0.11541147132169575,0.004545313399503734,
0.11546134663341646,-0.0070578433033473085,
0.11551122194513716,-0.011805340082070025,
0.11556109725685786,0.010036557439913574,
0.11561097256857855,-0.0016507858246070685,
0.11566084788029925,0.010369395331836279,
0.11571072319201996,0.0015382669470125915,
0.11576059850374065,-0.0033741233804658747,
0.11581047381546135,0.003411060768335269,
0.11586034912718204,-0.0148856453954057,
0.11591022443890274,0.0054699540321747585,
0.11596009975062344,0.007940161371260045,
0.11600997506234415,0.013113503520773067,
0.11605985037406484,-0.007684255933754306,
0.11610972568578554,-0.022140263680118975,
0.11615960099750623,-0.016137011382610873,
0.11620947630922693,-0.025160053239645,
0.11625935162094764,-0.010812078765028285,
0.11630922693266833,0.0016717679433660287,
0.11635910224438903,-0.02807311073121769,
0.11640897755610972,-0.024042565871935706,
0.11645885286783042,-0.02709909115472237,
0.11650872817955112,0.00980462542743539,
0.11655860349127183,0.022732870341780273,
0.11660847880299252,0.012463721845080484,
0.11665835411471322,0.005385135129380174,
0.11670822942643391,-0.019036901181615946,
0.11675810473815461,-0.00871039974969686,
0.11680798004987532,-0.016232157952713697,
0.11685785536159601,-0.01790173012940142,
0.11690773067331671,-0.025421729336660794,
0.1169576059850374,-0.0038907628533253477,
0.1170074812967581,-0.00782049571790001,
0.1170573566084788,-0.002302065807046942,
0.1171072319201995,-0.0020269832424187253,
0.1171571072319202,-0.023056922113665324,
0.1172069825436409,-0.013811898255762761,
0.1172568578553616,0.009516216374293708,
0.11730673316708229,0.011919111583389866,
0.117356608478803,0.0009945416930111552,
0.1174064837905237,-0.023098797312992775,
0.11745635910224439,-0.00742358748377273,
0.11750623441396509,-0.015033828936005564,
0.11755610972568578,-0.026162440108698937,
0.11760598503740648,0.0006138444754629109,
0.11765586034912719,-0.021109253046587093,
0.11770573566084788,-0.029840958466142584,
0.11775561097256858,-0.014669930228656227,
0.11780548628428927,0.0017790140667785764,
0.11785536159600997,-0.004499233145550941,
0.11790523690773068,0.004989594545708241,
0.11795511221945137,0.006394167781828322,
0.11800498753117207,-0.014934389968398378,
0.11805486284289277,0.024276575749107313,
0.11810473815461346,-0.022628249821417874,
0.11815461346633417,0.002470320393370525,
0.11820448877805487,-0.03572566085456838,
0.11825436408977556,-0.0071625676528560235,
0.11830423940149626,-0.04121605060961264,
0.11835411471321695,-0.005910943085536393,
0.11840399002493765,-0.012286724178377041,
0.11845386533665836,-0.011739642976018113,
0.11850374064837906,-0.01447404917218532,
0.11855361596009975,0.0017701347113063294,
0.11860349127182045,-0.02183128471014666,
0.11865336658354114,0.0021139214880821124,
0.11870324189526185,-0.001747141705930778,
0.11875311720698255,-0.03239191997245368,
0.11880299251870324,-0.0028733838686351995,
0.11885286783042394,-0.007304179728552364,
0.11890274314214463,-0.018194399540826252,
0.11895261845386533,-0.03639472814747338,
0.11900249376558604,-0.015962570355251927,
0.11905236907730674,-0.0247005262294066,
0.11910224438902743,0.006889544449038413,
0.11915211970074813,-0.021451050599369238,
0.11920199501246882,0.012256821351347001,
0.11925187032418953,-0.01916985706973493,
0.11930174563591023,-0.019206758745778325,
0.11935162094763092,-0.028606835967175975,
0.11940149625935162,-0.022260815092708712,
0.11945137157107232,-0.02599031410198441,
0.11950124688279301,-0.023304281981594357,
0.11955112219451372,-0.024341865470571378,
0.11960099750623442,-0.04358212163082471,
0.11965087281795511,-0.004529339243277406,
0.11970074812967581,0.00689728205908406,
0.1197506234413965,0.00570255471005604,
0.11980049875311721,-0.011603375057945248,
0.11985037406483791,0.0134455876358097,
0.1199002493765586,-0.03082514248189538,
0.1199501246882793,-0.0026876426898934606,
0.12,-0.0003633313975865025,
0.1200498753117207,-0.015195898256992673,
0.1200997506234414,-0.003022035904721231,
0.1201496259351621,-0.020389518370605333,
0.12019950124688279,-0.002613385419390804,
0.12024937655860349,0.011461140806411984,
0.12029925187032418,-0.016624427267123952,
0.1203491271820449,0.018271169210945445,
0.12039900249376559,-0.027098432942670638,
0.12044887780548628,-0.030209987919082536,
0.12049875311720698,-0.014696992393878734,
0.12054862842892768,0.0035979397277258063,
0.12059850374064839,0.0024076642657970947,
0.12064837905236908,-0.020222049380574182,
0.12069825436408978,0.00435790500293542,
0.12074812967581047,0.007829285183437604,
0.12079800498753117,-0.01238780518232177,
0.12084788029925186,0.01710713372211381,
0.12089775561097257,-0.00915734295379622,
0.12094763092269327,0.012502583641914882,
0.12099750623441397,-0.0161410196499135,
0.12104738154613466,0.014505461422510644,
0.12109725685785536,0.013655799750199009,
0.12114713216957607,-0.032739917787045415,
0.12119700748129676,-0.008338926028187041,
0.12124688279301746,-0.0026027529598892764,
0.12129675810473815,0.008162695816390307,
0.12134663341645885,0.021434683938817787,
0.12139650872817954,-0.005698112865020542,
0.12144638403990025,0.019280130667466165,
0.12149625935162095,0.008735348815418756,
0.12154613466334165,0.0008342660765436345,
0.12159600997506234,0.010057060138220648,
0.12164588528678304,-0.024832473114553284,
0.12169576059850375,0.005025509358874783,
0.12174563591022444,0.019604384197314008,
0.12179551122194514,0.016116885273116686,
0.12184538653366583,-0.00826739173487313,
0.12189526184538653,0.004484658017102957,
0.12194513715710723,0.010698792985986277,
0.12199501246882793,-0.007314705159314752,
0.12204488778054863,0.022676203379967386,
0.12209476309226933,0.009170948611725918,
0.12214463840399002,0.032823179825982096,
0.12219451371571072,0.007032143501112867,
0.12224438902743143,0.024584895651713852,
0.12229426433915212,0.020406802504377132,
0.12234413965087282,-0.017385976004206573,
0.12239401496259351,0.003683499878450964,
0.12244389027431421,-0.005390666405935244,
0.12249376558603492,-5.1342727671320997e-05,
0.12254364089775562,0.019526352076938567,
0.12259351620947631,0.00517472393274665,
0.122643391521197,0.006984254816012406,
0.1226932668329177,-0.0017567143339531945,
0.1227431421446384,0.02827781989921315,
0.12279301745635911,0.01662065430561769,
0.1228428927680798,0.0029432751565808173,
0.1228927680798005,0.01468871144117303,
0.1229426433915212,0.018813779236387277,
0.12299251870324189,0.026935660059459823,
0.1230423940149626,-0.020518191777646466,
0.1230922693266833,0.00976145553449328,
0.12314214463840399,-0.010174712764588843,
0.12319201995012469,0.006787128318001421,
0.12324189526184538,-0.021016337207936792,
0.12329177057356608,0.0035999403286663748,
0.12334164588528679,-0.009103163423831408,
0.12339152119700748,-0.01121605641632337,
0.12344139650872818,0.017988122477334344,
0.12349127182044888,0.025696820780246897,
0.12354114713216957,-0.009243111624317728,
0.12359102244389028,0.006233116097217694,
0.12364089775561098,0.02917832412744455,
0.12369077306733167,0.020360156903059486,
0.12374064837905237,0.009929781006629723,
0.12379052369077306,0.03746914565576391,
0.12384039900249376,0.008164869123569667,
0.12389027431421447,0.02891590100256924,
0.12394014962593516,0.03321117717916811,
0.12399002493765586,0.0038949754444545896,
0.12403990024937656,0.04922018555291503,
0.12408977556109725,0.0017894547610158157,
0.12413965087281796,0.014408044767948075,
0.12418952618453866,0.027711094543484346,
0.12423940149625935,0.02179541877316657,
0.12428927680798005,0.005072949314840784,
0.12433915211970074,0.0016559440251367394,
0.12438902743142144,0.0350688574779499,
0.12443890274314215,0.011865645148246447,
0.12448877805486284,-0.02769621631807332,
0.12453865336658354,0.004729210505698005,
0.12458852867830424,0.008415354790605388,
0.12463840399002493,0.056277024251255914,
0.12468827930174564,0.01326785774000835,
0.12473815461346634,0.03531557549400098,
0.12478802992518703,0.01234317965042029,
0.12483790523690773,0.01034957471790617,
0.12488778054862842,0.010125479586654284,
0.12493765586034913,0.028324715940573408,
0.12498753117206983,0.022579022183302832,
0.12503740648379053,0.04291675968475134,
0.12508728179551123,0.023664055548497907,
0.12513715710723192,0.007941565623238191,
0.12518703241895263,0.01891641226422014,
0.1252369077306733,0.011368304397549002,
0.12528678304239402,0.024475630056890622,
0.1253366583541147,0.013215329336863068,
0.1253865336658354,0.02778862940882262,
0.12543640897755612,0.0038566326339495374,
0.1254862842892768,0.0329571592828503,
0.1255361596009975,0.03941363601895453,
0.1255860349127182,0.03249539750237261,
0.1256359102244389,0.030377509732500634,
0.1256857855361596,0.02366249510093999,
0.1257356608478803,0.02949313286433027,
0.125785536159601,0.04518895004233538,
0.12583541147132168,-0.0005370928724627438,
0.1258852867830424,0.04296010530646844,
0.1259351620947631,0.018982083997986413,
0.12598503740648379,0.025054005086337403,
0.1260349127182045,0.044765272683453934,
0.12608478802992518,0.04362057370112915,
0.1261346633416459,0.02396430178262967,
0.1261845386533666,-0.010888697171617848,
0.12623441396508728,0.03449397213975618,
0.126284289276808,0.049000388764020596,
0.12633416458852867,0.03750080139994271,
0.12638403990024938,0.0371368542521855,
0.1264339152119701,0.018358361485485815,
0.12648379052369077,0.017009186917897025,
0.12653366583541148,0.026259682397913597,
0.12658354114713216,0.019912808607050164,
0.12663341645885287,0.010686730979210607,
0.12668329177057355,0.024619588250706523,
0.12673316708229426,0.008033399186247802,
0.12678304239401497,0.04193105693657227,
0.12683291770573565,0.007851065425950463,
0.12688279301745636,0.01813130514325857,
0.12693266832917705,0.03777372092422236,
0.12698254364089775,0.0368686314735422,
0.12703241895261846,0.043757276030585074,
0.12708229426433915,0.011355575382795947,
0.12713216957605986,0.03329714516048205,
0.12718204488778054,0.005642981851495931,
0.12723192019950125,0.027069855570723236,
0.12728179551122196,0.054938832027363896,
0.12733167082294264,0.02016842925242122,
0.12738154613466335,0.012689779760207829,
0.12743142144638403,0.021766911639793555,
0.12748129675810474,0.018390863901287868,
0.12753117206982545,0.03818102111505089,
0.12758104738154613,0.02111619485165379,
0.12763092269326684,0.03080693547334698,
0.12768079800498752,0.03927711173319989,
0.12773067331670823,0.04288553660686098,
0.1277805486284289,0.044594350494922476,
0.12783042394014962,0.04235453565856983,
0.12788029925187033,0.04668960009418039,
0.12793017456359101,0.03935329826266717,
0.12798004987531172,0.014950587348457486,
0.1280299251870324,-0.006498258317060558,
0.12807980049875312,0.03215534535835427,
0.12812967581047383,0.026294681608256203,
0.1281795511221945,0.02261455443041181,
0.12822942643391522,0.02568284441981998,
0.1282793017456359,0.022196463440666718,
0.1283291770573566,0.01969366114213643,
0.12837905236907732,0.023813574604124192,
0.128428927680798,0.025587829835144744,
0.1284788029925187,0.039981991391433894,
0.1285286783042394,0.029357644358603743,
0.1285785536159601,0.037387872416216265,
0.1286284289276808,0.03322315380780298,
0.1286783042394015,0.03269947724968964,
0.1287281795511222,0.00886534988377052,
0.12877805486284288,0.040521554413344575,
0.1288279301745636,0.04201852114540018,
0.1288778054862843,0.022686319507363342,
0.12892768079800498,0.01448387231194661,
0.1289775561097257,0.012476112909778393,
0.12902743142144638,0.0332794751178445,
0.12907730673316709,0.032066288403071644,
0.12912718204488777,0.01445571270692035,
0.12917705735660848,0.029535573533052556,
0.1292269326683292,0.02785918240587484,
0.12927680798004987,0.007886160868818846,
0.12932668329177058,0.018624509470131334,
0.12937655860349126,0.03045079049096626,
0.12942643391521197,0.02756467748509742,
0.12947630922693268,0.0345452381430311,
0.12952618453865336,0.003349193898221036,
0.12957605985037407,0.03597160046703088,
0.12962593516209475,0.007838557724142974,
0.12967581047381546,0.008598143733628043,
0.12972568578553617,0.016775754430484496,
0.12977556109725685,0.01492488933700887,
0.12982543640897756,0.007579413923061152,
0.12987531172069824,0.016630403330307922,
0.12992518703241895,0.010731604873943925,
0.12997506234413966,0.035766009671952606,
0.13002493765586035,0.04551781234898638,
0.13007481296758105,0.01458101848257058,
0.13012468827930174,0.02560259870369085,
0.13017456359102245,0.021657348247849952,
0.13022443890274316,0.04526881834657208,
0.13027431421446384,0.025988791031232413,
0.13032418952618455,0.005343055109987293,
0.13037406483790523,0.0399836087881138,
0.13042394014962594,0.015621159774863318,
0.13047381546134662,0.03245803275120085,
0.13052369077306733,0.019625295477839866,
0.13057356608478804,0.027712942189381133,
0.13062344139650872,0.024848119094910016,
0.13067331670822943,0.0309233533538718,
0.1307231920199501,0.04128180021032975,
0.13077306733167082,0.027521474228988062,
0.13082294264339153,0.021194396653478054,
0.13087281795511221,0.045622670230284254,
0.13092269326683292,0.020222165592131712,
0.1309725685785536,0.03778611618572361,
0.13102244389027431,0.013741186462642892,
0.13107231920199502,0.020728822134540737,
0.1311221945137157,0.01659227589111388,
0.13117206982543642,0.033111985679529374,
0.1312219451371571,0.0028735657147104833,
0.1312718204488778,0.05484688525382618,
0.13132169576059852,0.021477066372485514,
0.1313715710723192,0.01871548546518366,
0.1314214463840399,0.027581211954848882,
0.1314713216957606,0.012992931198243133,
0.1315211970074813,0.00917511370319777,
0.13157107231920198,0.01640788232151863,
0.1316209476309227,0.024819818643112848,
0.1316708229426434,0.03406426614121115,
0.13172069825436408,0.049992536276001684,
0.1317705735660848,0.031141640660345967,
0.13182044887780547,0.025970160448274614,
0.13187032418952618,0.025843625196609717,
0.1319201995012469,0.025518656522586475,
0.13197007481296757,0.012204432906046319,
0.13201995012468828,0.029901701811669394,
0.13206982543640897,0.00391864392320114,
0.13211970074812968,-0.01658248036723727,
0.13216957605985039,-0.008803548746660714,
0.13221945137157107,0.03426203456305412,
0.13226932668329178,0.025404823349960394,
0.13231920199501246,0.046351548734747394,
0.13236907730673317,-0.008030833466984307,
0.13241895261845388,0.005494067451358921,
0.13246882793017456,0.00770519533635002,
0.13251870324189527,0.0032894354312894766,
0.13256857855361595,-0.016706706448426045,
0.13261845386533666,0.01415491278806118,
0.13266832917705737,0.01013625467187641,
0.13271820448877805,0.004981822744170834,
0.13276807980049876,-0.004632320915042863,
0.13281795511221944,0.009824695431166527,
0.13286783042394015,0.032222702449177985,
0.13291770573566083,-0.013307525475754547,
0.13296758104738154,0.0011863810069614369,
0.13301745635910225,0.01164097297418781,
0.13306733167082294,0.0080511409142735,
0.13311720698254365,-0.0022193586448285008,
0.13316708229426433,0.01590231140110244,
0.13321695760598504,-0.0036153392106391246,
0.13326683291770575,-0.012203189876670018,
0.13331670822942643,0.01821851624308185,
0.13336658354114714,0.01916145976233859,
0.13341645885286782,0.00037433448381118516,
0.13346633416458853,-0.012559601769011816,
0.13351620947630924,0.01431901670744876,
0.13356608478802992,0.011323229124733714,
0.13361596009975063,-0.004076159781578631,
0.1336658354114713,0.02218080214250089,
0.13371571072319202,0.008074074810273637,
0.13376558603491273,0.00574471101306583,
0.1338154613466334,-0.008211489442142037,
0.13386533665835412,0.011269001873310081,
0.1339152119700748,0.00018049515661923074,
0.13396508728179551,-0.004763920171219664,
0.1340149625935162,-0.0022008986869627096,
0.1340648379052369,-0.003057183957713248,
0.13411471321695762,0.001412130281308525,
0.1341645885286783,0.00632568719912245,
0.134214463840399,-0.004987420656987416,
0.1342643391521197,0.0005099954717302686,
0.1343142144638404,-0.027795998348018568,
0.1343640897755611,-0.03325785336809324,
0.1344139650872818,0.0008135497233846835,
0.1344638403990025,0.014843044172116565,
0.13451371571072318,0.0020097523757439317,
0.1345635910224439,0.004423077186530971,
0.1346134663341646,-0.02135982761331378,
0.13466334164588528,-0.013747622493629498,
0.134713216957606,0.020949804261720197,
0.13476309226932667,-0.0053289832090826685,
0.13481296758104738,0.018946224604224658,
0.1348628428927681,-0.012938320824256052,
0.13491271820448877,-0.0010494578777069988,
0.13496259351620948,0.01163067193784971,
0.13501246882793017,-0.015315668308784797,
0.13506234413965088,0.031132414011828098,
0.13511221945137158,-0.017016243693947358,
0.13516209476309227,-0.020801552706224753,
0.13521197007481298,-0.01132833953259737,
0.13526184538653366,-0.02028167817913994,
0.13531172069825437,-0.017825715089101524,
0.13536159600997505,-0.00846634709241819,
0.13541147132169576,8.211935981243448e-05,
0.13546134663341647,-0.01687563924183256,
0.13551122194513715,-0.002723556813933977,
0.13556109725685786,0.007850198846484524,
0.13561097256857854,-0.007925658163261776,
0.13566084788029925,-0.013452283064747647,
0.13571072319201996,0.006167220259949048,
0.13576059850374064,-0.01022124386211987,
0.13581047381546135,-0.00861007023623157,
0.13586034912718203,0.031056565258995666,
0.13591022443890274,-0.002642222763858651,
0.13596009975062345,-0.007815722945538834,
0.13600997506234414,-0.010608435493321444,
0.13605985037406484,0.006901899959641893,
0.13610972568578553,-0.02323311572722459,
0.13615960099750624,-0.01362842893109647,
0.13620947630922695,0.006115011126160769,
0.13625935162094763,-0.025877540411860012,
0.13630922693266834,0.012854736823383677,
0.13635910224438902,-0.018280345394772662,
0.13640897755610973,-0.015319095138383415,
0.1364588528678304,0.009543240795246226,
0.13650872817955112,-0.037432757390004665,
0.13655860349127183,0.016087074175216216,
0.1366084788029925,-0.03466793280218754,
0.13665835411471322,-0.01821964166983122,
0.1367082294264339,-0.018325155534010745,
0.1367581047381546,0.002702961705541804,
0.13680798004987532,-0.004032880706357824,
0.136857855361596,-0.020616611552822836,
0.1369077306733167,-0.0004481627857764025,
0.1369576059850374,-0.008125924312208637,
0.1370074812967581,0.00582925133262731,
0.13705735660847881,-0.018511711943652517,
0.1371072319201995,0.0289539857714498,
0.1371571072319202,0.0013191297005669053,
0.1372069825436409,-0.005679418714785164,
0.1372568578553616,-0.013022935394082193,
0.1373067331670823,-0.006916786776486926,
0.137356608478803,0.011074689191777334,
0.1374064837905237,-0.04400205788709027,
0.13745635910224438,0.0116934470548697,
0.1375062344139651,0.0065902908056872656,
0.1375561097256858,-0.04740247564800175,
0.13760598503740648,-0.022560713947976006,
0.1376558603491272,0.0009375199773130494,
0.13770573566084787,0.008886215720077584,
0.13775561097256858,-0.006427750200997542,
0.13780548628428926,-0.012609499568643219,
0.13785536159600997,0.008514942704659759,
0.13790523690773068,-0.013316879300903557,
0.13795511221945136,0.005671529667874313,
0.13800498753117207,-0.007272865334128079,
0.13805486284289276,-0.01913631060740803,
0.13810473815461347,-0.007512899042389158,
0.13815461346633418,-0.007998001752089551,
0.13820448877805486,-0.01894630975226691,
0.13825436408977557,-0.005743103279624835,
0.13830423940149625,-0.017187791404561364,
0.13835411471321696,-0.01733506373791833,
0.13840399002493767,-0.009355650829724824,
0.13845386533665835,0.016382918338961244,
0.13850374064837906,-0.009465167898447424,
0.13855361596009974,-0.014706409956956532,
0.13860349127182045,0.005707282126267655,
0.13865336658354116,-0.027678169666148434,
0.13870324189526184,-0.006348050895989438,
0.13875311720698255,0.012456314839489089,
0.13880299251870323,-0.017221674213815957,
0.13885286783042394,-0.009285293718796913,
0.13890274314214462,-0.00817199793934304,
0.13895261845386533,0.005270382079513643,
0.13900249376558604,-0.008909749432346717,
0.13905236907730673,0.0016849372042503693,
0.13910224438902744,-0.03397072992866269,
0.13915211970074812,-0.012030435030264863,
0.13920199501246883,-0.021258507161113008,
0.13925187032418954,0.009581377368583544,
0.13930174563591022,-0.011775020584912654,
0.13935162094763093,-0.025845587703212877,
0.1394014962593516,-0.015561176528580719,
0.13945137157107232,-0.006795757410796185,
0.13950124688279303,0.009755619913624941,
0.1395511221945137,-0.006378696200918863,
0.13960099750623442,-0.026255815233545608,
0.1396508728179551,0.003488550442655782,
0.1397007481296758,0.009252862551213274,
0.13975062344139652,0.018227030326916426,
0.1398004987531172,0.0017587471638564455,
0.1398503740648379,-0.04332002828888545,
0.1399002493765586,-0.0035033940445875936,
0.1399501246882793,-0.020536871556355224,
0.14,-0.036708664542466136,
0.1400498753117207,-0.013681148324340026,
0.1400997506234414,-0.017182502401736435,
0.1401496259351621,0.0004464643226022545,
0.1401995012468828,-0.023176261925638913,
0.14024937655860348,0.015803338206467534,
0.1402992518703242,-0.017536020782727393,
0.1403491271820449,-0.020497648733029103,
0.14039900249376558,0.006270046163902502,
0.1404488778054863,-0.011247278867938238,
0.14049875311720697,0.012997077601883154,
0.14054862842892768,-0.0018112903093852036,
0.1405985037406484,0.00575278427005671,
0.14064837905236907,0.006646654755762232,
0.14069825436408978,-0.012105100756698198,
0.14074812967581046,-0.01136017909775366,
0.14079800498753117,-0.032973162092621446,
0.14084788029925188,0.017190878278209358,
0.14089775561097256,0.00549087544276502,
0.14094763092269327,-0.009556991217334635,
0.14099750623441396,0.0168916941236945,
0.14104738154613466,-0.00404526459946322,
0.14109725685785537,-0.02044852111337542,
0.14114713216957606,0.025624350236692357,
0.14119700748129677,-0.00824829330857474,
0.14124688279301745,0.02015236295178792,
0.14129675810473816,-0.0175678094670393,
0.14134663341645887,0.03579531861535766,
0.14139650872817955,0.014166202014235919,
