time,amplitude,label
0.0,0.008965050016642894,
4.987531172069826e-05,-0.0008193757060455291,
9.975062344139652e-05,0.05065365547530826,
0.00014962593516209475,0.0261644275248378,
0.00019950124688279303,-0.017743380406509576,
0.00024937655860349125,0.021148522542266023,
0.0002992518703241895,-0.026465039455937686,
0.00034912718204488776,-0.005337639676710448,
0.00039900249376558606,-0.004313693110004697,
0.0004488778054862843,9.246218013827818e-05,
0.0004987531172069825,0.008420220731099201,
0.0005486284289276808,-0.0022362355242630523,
0.000598503740648379,0.01462455311641941,
0.0006483790523690773,-0.015462287589844284,
0.0006982543640897755,0.022756032732034442,
0.0007481296758104738,0.012985733993379777,
0.0007980049875311721,-0.004347939022464851,
0.0008478802992518703,-0.01407021208646685,
0.0008977556109725686,-0.005471782489942284,
0.0009476309226932668,-0.016734555355725964,
0.000997506234413965,0.013927379206757677,
0.0010473815461346633,-0.01614444508285344,
0.0010972568578553616,0.015752271232025484,
0.00114713216957606,-0.009187015900195378,
0.001197007481296758,0.0039145240043490966,
0.0012468827930174563,0.005367867768299478,
0.0012967581047381546,-0.006571916428885107,
0.001346633416458853,0.025194131810325825,
0.001396508728179551,-0.005112046073065173,
0.0014463840399002493,0.008423735900566857,
0.0014962593516209476,0.0020720051852410586,
0.001546134663341646,-0.0026839282068031774,
0.0015960099750623442,-0.008704762600176483,
0.0016458852867830423,-0.014805544193633724,
0.0016957605985037406,-0.004418122222000649,
0.001745635910224439,-0.0393952050504027,
0.0017955112219451373,-0.020482166136420867,
0.0018453865336658353,-0.005239896178060194,
0.0018952618453865336,-0.01805380852443559,
0.001945137157107232,0.010172036591752273,
0.00199501246882793,-0.019047274423581655,
0.0020448877805486283,0.026146403878145444,
0.0020947630922693266,-0.0011234041911047888,
0.002144638403990025,-0.025341203496697034,
0.0021945137157107233,0.009095877589865818,
0.0022443890274314216,0.007954670583464083,
0.00229426433915212,-0.031711230494510065,
0.0023441396508728177,-0.014364345022643388,
0.002394014962593516,-0.02156931223788624,
0.0024438902743142144,-0.004565028966837777,
0.0024937655860349127,0.004903687365299524,
0.002543640897755611,-0.0041342033033435425,
0.0025935162094763093,-0.020836209734833244,
0.0026433915211970076,-0.00768106507967698,
0.002693266832917706,0.025108848806079786,
0.002743142144638404,-0.0044441144911084645,
0.002793017456359102,-0.028471723918193453,
0.0028428927680798004,-0.0018522774949144664,
0.0028927680798004987,-0.004412190540203082,
0.002942643391521197,0.02186276605569041,
0.0029925187032418953,-0.018454853331826344,
0.0030423940149625936,-0.019307709805174468,
0.003092269326683292,-0.004557554873484977,
0.00314214463840399,-0.016469655812606183,
0.0031920199501246885,0.0021984328188400497,
0.0032418952618453864,-0.021466185200983194,
0.0032917705735660847,-0.0059853630502519715,
0.003341645885286783,-0.027271315318894117,
0.0033915211970074813,-0.018748069611216146,
0.0034413965087281796,-0.023692364036100415,
0.003491271820448878,-0.002766172111945452,
0.003541147132169576,0.008519443144693974,
0.0035910224438902745,-0.028010378428741697,
0.0036408977556109724,-0.017366844328136555,
0.0036907730673316707,-0.033538619383772644,
0.003740648379052369,-0.03812380300252538,
0.0037905236907730673,-0.028758846374054174,
0.0038403990024937656,-0.013466073762071479,
0.003890274314214464,-0.03172226759939513,
0.003940149625935162,-0.0020967883757784123,
0.00399002493765586,-0.0008147806657558126,
0.004039900249376558,0.0005909459364290756,
0.004089775561097257,-0.029630278827685257,
0.004139650872817955,-0.03769128809199855,
0.004189526184538653,-0.02955337620770239,
0.004239401496259352,-0.02404583096649747,
0.00428927680798005,-0.0036003573155452342,
0.004339152119700748,-0.030064353440120872,
0.0043890274314214465,-0.008988437877696707,
0.004438902743142145,-0.01994503586265545,
0.004488778054862843,-0.03040589441448338,
0.004538653366583541,-0.022777076119363998,
0.00458852867830424,-0.010144708463074543,
0.004638403990024938,-0.029441184271474692,
0.0046882793017456355,-0.02317366314285045,
0.004738154613466334,-0.021377556360187146,
0.004788029925187032,0.008802017058516798,
0.00483790523690773,-0.03851288093301411,
0.004887780548628429,-0.02286428038328958,
0.004937655860349127,-0.005230554763335735,
0.004987531172069825,-0.014401719763117962,
0.005037406483790524,-0.008474096015819164,
0.005087281795511222,-0.013341846775624791,
0.00513715710723192,-0.01503122001557702,
0.0051870324189526185,-0.013110627799941993,
0.005236907730673317,-0.019435714880892584,
0.005286783042394015,-0.007091635795560153,
0.0053366583541147134,-0.030492287344625536,
0.005386533665835412,0.016314824710540004,
0.00543640897755611,-0.013973324263834488,
0.005486284289276808,-0.024725700500557148,
0.005536159600997507,-0.008209145621224944,
0.005586034912718204,-0.015459619390502732,
0.005635910224438902,-0.021145149788673663,
0.005685785536159601,-0.033445440687219496,
0.005735660847880299,-0.031085268209256903,
0.005785536159600997,-0.022698030375640145,
0.005835411471321696,-0.03733855113373885,
0.005885286783042394,-0.0036738000197665058,
0.005935162094763092,-0.029805806821042898,
0.0059850374064837905,-0.020501096600081613,
0.006034912718204489,-0.009503484009187588,
0.006084788029925187,-0.03055456979538974,
0.0061346633416458855,0.016517891595922565,
0.006184538653366584,-0.011692824007545715,
0.006234413965087282,-0.02786729666110088,
0.00628428927680798,-0.011573717862700804,
0.006334164588528679,-0.014817160176738665,
0.006384039900249377,-0.03812935968171792,
0.006433915211970074,-0.014352766272440781,
0.006483790523690773,-0.019746477461459126,
0.006533665835411471,-0.02011384677447245,
0.006583541147132169,-0.0067359471263994195,
0.006633416458852868,-0.022344727021411437,
0.006683291770573566,-0.01785445046643236,
0.006733167082294264,-0.017663626150580432,
0.0067830423940149626,-0.009842783981607097,
0.006832917705735661,-0.0500999290235343,
0.006882793017456359,0.004546540915185155,
0.0069326683291770575,-0.018205551517285885,
0.006982543640897756,-0.028524631734221033,
0.007032418952618454,-0.02661387850528916,
0.007082294264339152,-0.00977923595815563,
0.007132169576059851,-0.007686949463105204,
0.007182044887780549,-0.002833319024391729,
0.007231920199501247,-0.02271810061454683,
0.007281795511221945,-0.02192001438876926,
0.007331670822942643,-0.0271371050976289,
0.007381546134663341,-0.005398901753827887,
0.00743142144638404,-0.02799115096567668,
0.007481296758104738,-0.027559101251859557,
0.007531172069825436,-0.005988261976067033,
0.007581047381546135,-0.015208423527593768,
0.007630922693266833,-0.026661372195598988,
0.007680798004987531,-0.06012344260686418,
0.0077306733167082295,-0.03178839462291612,
0.007780548628428928,-0.02295415988204866,
0.007830423940149626,-0.016123421639162416,
0.007880299251870324,-0.01655729375173215,
0.007930174563591023,-0.038257477052366116,
0.00798004987531172,-0.016590643270672372,
0.00802992518703242,-0.027697864059387324,
0.008079800498753117,0.015176087382963548,
0.008129675810473816,-0.004983577238830063,
0.008179551122194513,-0.02294309603540992,
0.008229426433915213,-0.020459162242416798,
0.00827930174563591,-0.018150699702361738,
0.00832917705735661,-0.021505957235568834,
0.008379052369077307,-0.02866975927424903,
0.008428927680798006,-0.0040870585564948755,
0.008478802992518703,-0.007928495914860492,
0.0085286783042394,0.010798304449792077,
0.0085785536159601,-0.004327198968947144,
0.008628428927680797,-0.02079797639393805,
0.008678304239401496,-0.007679139936735683,
0.008728179551122194,-0.02287172977512024,
0.008778054862842893,-0.005140990058053143,
0.00882793017456359,-0.006655991443847496,
0.00887780548628429,-0.006620443846109514,
0.008927680798004987,-0.03717696395970476,
0.008977556109725686,-0.003941637457821684,
0.009027431421446384,0.00507936972832777,
0.009077306733167083,-0.02967696912864054,
0.00912718204488778,-0.02922757036538301,
0.00917705735660848,0.0051930489343056715,
0.009226932668329177,-0.00745142222661451,
0.009276807980049876,-0.022292993072191368,
0.009326683291770574,-0.010141342881575687,
0.009376558603491271,-0.008797935172309455,
0.00942643391521197,-0.007895040260249432,
0.009476309226932668,-0.024812457704910095,
0.009526184538653367,0.005772062739929763,
0.009576059850374064,-0.030032262924265106,
0.009625935162094763,-0.024854984153126612,
0.00967581047381546,-0.04907745245806085,
0.00972568578553616,-0.02686973636953197,
0.009775561097256857,0.007433565581421394,
0.009825436408977557,-0.018724057008013013,
0.009875311720698254,0.0026942301834551674,
0.009925187032418953,0.002105461906562231,
0.00997506234413965,-0.030662323180294215,
0.01002493765586035,0.000875258938380378,
0.010074812967581047,0.007315817720291523,
0.010124688279301746,0.007482070923226717,
0.010174563591022444,-0.00356631658551346,
0.010224438902743141,-0.014784912437658528,
0.01027431421446384,0.006079734613883093,
0.010324189526184538,-0.02198171990880624,
0.010374064837905237,0.006140669473501691,
0.010423940149625935,0.008997280996840086,
0.010473815461346634,-0.010172532924228272,
0.010523690773067331,-0.03508412751017743,
0.01057356608478803,0.0036534714518727156,
0.010623441396508728,0.00549625767825323,
0.010673316708229427,0.009789720105063656,
0.010723192019950124,0.014353708051618766,
0.010773067331670824,0.007306687702760346,
0.010822942643391521,0.0037911921389832248,
0.01087281795511222,-0.0014027614571472317,
0.010922693266832918,-0.003959213322687401,
0.010972568578553617,-0.01047692105607931,
0.011022443890274314,-0.005124326223512817,
0.011072319201995013,-0.011916824500165731,
0.01112219451371571,-0.010929582995438739,
0.011172069825436408,0.021241255108864945,
0.011221945137157107,0.006016027389880693,
0.011271820448877805,0.002311192164958742,
0.011321695760598504,0.015330280550422501,
0.011371571072319201,-3.284801792809936e-05,
0.0114214463840399,-0.0007867918030607214,
0.011471321695760598,-0.013806432805511968,
0.011521197007481297,0.013803399634475761,
0.011571072319201995,0.023172120851244763,
0.011620947630922694,0.021161725074686062,
0.011670822942643391,-0.003744707917609685,
0.01172069825436409,0.022585979393163126,
0.011770573566084788,0.015508662947282212,
0.011820448877805487,0.021718282561069436,
0.011870324189526184,0.0034038936249295828,
0.011920199501246884,0.02284370382338603,
0.011970074812967581,0.007083217198750723,
0.012019950124688279,-0.0074576334658108725,
0.012069825436408978,0.003934778198626243,
0.012119700748129675,-0.0063915259238204285,
0.012169576059850374,-0.0005401620844212446,
0.012219451371571072,-0.012637536869480711,
0.012269326683291771,0.013347049063035204,
0.012319201995012468,0.028270942796193806,
0.012369077306733168,-0.018679092385689076,
0.012418952618453865,-0.005973297501400509,
0.012468827930174564,0.03538086834072647,
0.012518703241895262,0.026249727244979856,
0.01256857855361596,0.021835654294281137,
0.012618453865336658,0.016233516724275372,
0.012668329177057357,0.0030410747996839037,
0.012718204488778055,0.00433564582781906,
0.012768079800498754,0.01702812511602026,
0.012817955112219451,0.016399226529919507,
0.012867830423940149,-0.0006057153806286186,
0.012917705735660848,0.03478850708809535,
0.012967581047381545,0.006186986462962137,
0.013017456359102245,0.03088307463207409,
0.013067331670822942,0.018491644490260035,
0.013117206982543641,0.014574338786944998,
0.013167082294264339,-0.01893732397110813,
0.013216957605985038,0.004014877078907188,
0.013266832917705735,0.0306666739305433,
0.013316708229426434,-0.002214581851738359,
0.013366583541147132,0.014150824557960394,
0.013416458852867831,0.028437058373980716,
0.013466334164588529,-0.0018266982363338864,
0.013516209476309228,0.029853353899917598,
0.013566084788029925,0.007204328411695127,
0.013615960099750624,0.025577994411395463,
0.013665835411471322,-0.014865718352345136,
0.01371571072319202,0.02338459155223926,
0.013765586034912718,-0.005726267429371483,
0.013815461346633416,0.023869681766432407,
0.013865336658354115,0.004899132882043342,
0.013915211970074812,0.03159902979224302,
0.013965087281795512,0.03389563959966847,
0.014014962593516209,0.04325146664107989,
0.014064837905236908,0.04322608937260322,
0.014114713216957606,0.010805131712287253,
0.014164588528678305,0.024139282743898743,
0.014214463840399002,0.02186050812713571,
0.014264339152119701,0.01091670996366689,
0.014314214463840399,0.026074091517057113,
0.014364089775561098,0.02281577486881121,
0.014413965087281795,0.042385604174575875,
0.014463840399002495,0.0003553095444580705,
0.014513715710723192,0.040632378084141114,
0.01456359102244389,0.030294092466136603,
0.014613466334164589,0.007861325690939617,
0.014663341645885286,0.014975516296429127,
0.014713216957605985,-0.005757523727383265,
0.014763092269326683,0.009106261395481367,
0.014812967581047382,0.013530007017626106,
0.01486284289276808,0.03786830783626949,
0.014912718204488778,0.002818582100185908,
0.014962593516209476,0.01716289218491039,
0.015012468827930175,0.0002615230189380348,
0.015062344139650873,0.032262351821775975,
0.015112219451371572,0.010370107950994495,
0.01516209476309227,-0.0088719431691716,
0.015211970074812968,-0.006199895872266999,
0.015261845386533666,0.030767085471450482,
0.015311720698254365,0.034218876082841965,
0.015361596009975062,0.032291019779226174,
0.01541147132169576,0.021916782095105298,
0.015461346633416459,-0.010516613144277851,
0.015511221945137156,0.031308303587686694,
0.015561097256857856,0.02509991109025779,
0.015610972568578553,0.014346362706205141,
0.015660847880299252,0.012742318871173101,
0.01571072319201995,0.023826641901510914,
0.015760598503740647,0.026328859067757174,
0.015810473815461346,0.026003082641422766,
0.015860349127182045,0.030433660425906596,
0.015910224438902745,0.001480092740416588,
0.01596009975062344,0.029996364531404446,
0.01600997506234414,0.027062638763781427,
0.01605985037406484,0.0022641649482892864,
0.016109725685785538,0.006750268718772351,
0.016159600997506234,0.006858833129778391,
0.016209476309226933,0.03111225505968227,
0.016259351620947632,0.041173202468180056,
0.016309226932668328,0.045165214154600765,
0.016359102244389027,0.0351723829568526,
0.016408977556109726,0.02305307154011195,
0.016458852867830425,0.014035915605837935,
0.01650872817955112,0.02152035576759724,
0.01655860349127182,0.036493543811539644,
0.01660847880299252,0.02077315334980737,
0.01665835411471322,0.020479806131566795,
0.016708229426433914,0.02200376761591063,
0.016758104738154613,0.013032353507244543,
0.016807980049875312,0.013041815482029049,
0.01685785536159601,0.027752216193024103,
0.016907730673316707,0.016913710758304334,
0.016957605985037406,-0.0019113131561944996,
0.017007481296758106,0.0491113300013091,
0.0170573566084788,0.028021356875632227,
0.0171072319201995,0.009521403917226699,
0.0171571072319202,0.035157509281968875,
0.0172069825436409,-0.0026289150296624902,
0.017256857855361595,-0.0008195941222592824,
0.017306733167082294,0.013662211901699538,
0.017356608478802993,0.020035498782161643,
0.017406483790523692,0.014674798441136491,
0.017456359102244388,-0.015145045355532662,
0.017506234413965087,6.535621480362186e-06,
0.017556109725685786,0.014487569259976291,
0.017605985037406485,0.013582026556217583,
0.01765586034912718,0.024589235474746576,
0.01770573566084788,0.015126246992256821,
0.01775561097256858,0.008637939054957891,
0.01780548628428928,0.0378402333143439,
0.017855361596009974,0.019204917483745157,
0.017905236907730673,0.036096753958019666,
0.017955112219451373,0.012246858509138717,
0.018004987531172068,0.01686028446953989,
0.018054862842892767,0.0024522204670824957,
0.018104738154613467,0.024555307572281637,
0.018154613466334166,0.021558677205297375,
0.01820448877805486,-0.0045774370497422,
0.01825436408977556,0.026939038000638856,
0.01830423940149626,0.015313327873670885,
0.01835411471321696,0.006770411553926036,
0.018403990024937655,-0.010468358055102647,
0.018453865336658354,0.023081417769587522,
0.018503740648379053,0.031145753093587945,
0.018553615960099752,0.044184813705282586,
0.018603491271820448,0.020441863575418835,
0.018653366583541147,-0.007153910428099148,
0.018703241895261846,0.014306111511012945,
0.018753117206982542,0.003814888341907064,
0.01880299251870324,0.0021318765153718992,
0.01885286783042394,-0.015461424126219215,
0.01890274314214464,0.016893486878959092,
0.018952618453865335,0.020794657929621197,
0.019002493765586034,-0.00042397402534744867,
0.019052369077306733,-0.026017707869935236,
0.019102244389027433,0.016656810320713998,
0.01915211970074813,0.0010642683934745188,
0.019201995012468828,0.023709747140507116,
0.019251870324189527,0.015419704744588023,
0.019301745635910226,0.0002997583015939484,
0.01935162094763092,0.020780767100164597,
0.01940149625935162,0.03816714252339044,
0.01945137157107232,0.01861875747293779,
0.01950124688279302,0.004750246763735397,
0.019551122194513715,-0.014074622854670297,
0.019600997506234414,-0.014433530069532408,
0.019650872817955113,0.009438246190446732,
0.01970074812967581,0.013658559372436579,
0.019750623441396508,0.011510586325482488,
0.019800498753117207,-0.009221909868274269,
0.019850374064837906,0.010686404661788608,
0.019900249376558602,-0.004120428114903823,
0.0199501246882793,0.01576866683072251,
0.02,0.013959055024708622,
0.0200498753117207,-0.02270029615015138,
0.020099750623441395,-0.0019238535683977808,
0.020149625935162094,-0.00023819561279320167,
0.020199501246882794,0.0023020981128500464,
0.020249376558603493,-0.01127896965315798,
0.02029925187032419,-0.01358259578021773,
0.020349127182044888,0.001421612755837558,
0.020399002493765587,0.01756772672859164,
0.020448877805486283,0.023489108101224336,
0.02049875311720698,0.020963572696575998,
0.02054862842892768,0.0022907076217179075,
0.02059850374064838,-0.00782550710443771,
0.020648379052369076,0.010672580010387678,
0.020698254364089775,-0.001613880394428122,
0.020748129675810474,0.00852470939802679,
0.020798004987531173,0.026569664930409125,
0.02084788029925187,-0.010205011212297981,
0.020897755610972568,-0.006086221445309959,
0.020947630922693267,0.012827262027964428,
0.020997506234413967,0.030654138035638736,
0.021047381546134662,-0.00462734670661058,
0.02109725685785536,0.00883953166098123,
0.02114713216957606,-0.02146173806145831,
0.02119700748129676,0.0012716947445393899,
0.021246882793017455,0.0027994952587806574,
0.021296758104738155,-0.0019229397608772894,
0.021346633416458854,-0.003926643860434972,
0.02139650872817955,-0.04127711089961755,
0.02144638403990025,-0.0003358513958694768,
0.021496259351620948,-0.006444703889675483,
0.021546134663341647,-0.005309724039877995,
0.021596009975062343,0.01152820691075406,
0.021645885286783042,0.007040296914581436,
0.02169576059850374,-0.010231949178041268,
0.02174563591022444,-0.010534123276378028,
0.021795511221945136,-0.012408345532725486,
0.021845386533665835,0.005971150969388655,
0.021895261845386534,0.0014186830930092266,
0.021945137157107233,0.014654990161504539,
0.02199501246882793,0.010670574016980957,
0.02204488778054863,-0.005620075194330146,
0.022094763092269327,-0.0006493930134286383,
0.022144638403990027,-0.01968325964169796,
0.022194513715710722,0.01983252991787116,
0.02224438902743142,-0.013455050200513824,
0.02229426433915212,-0.013859075872929973,
0.022344139650872816,-0.001350107355208973,
0.022394014962593516,-0.009271274741315859,
0.022443890274314215,-0.029340753295006426,
0.022493765586034914,-0.003345934244446405,
0.02254364089775561,0.008856506865664453,
0.02259351620947631,-0.008103529432245354,
0.022643391521197008,-0.010179810714901691,
0.022693266832917707,0.013899833336647181,
0.022743142144638403,-0.01774412662567478,
0.022793017456359102,-0.02027472326333396,
0.0228428927680798,0.002114357817086302,
0.0228927680798005,-0.011353097404565348,
0.022942643391521196,-0.053385544711319385,
0.022992518703241895,-0.009307059828546816,
0.023042394014962594,-0.02669522798745161,
0.02309226932668329,-0.016494739182731984,
0.02314214463840399,-0.004642641211372549,
0.02319201995012469,-0.007189183855988565,
0.023241895261845388,-0.020706748614752534,
0.023291770573566083,0.0031911994493659234,
0.023341645885286783,0.0009541230811262458,
0.02339152119700748,0.03667537877745729,
0.02344139650872818,0.01089793068955116,
0.023491271820448877,0.00923008179624176,
0.023541147132169576,-0.0038376280177908756,
0.023591022443890275,-0.014426957156276907,
0.023640897755610974,-0.02870829390003856,
0.02369077306733167,-0.02778338136743213,
0.02374064837905237,-0.004907760313129148,
0.023790523690773068,0.007869516034779013,
0.023840399002493767,0.0025980444523175366,
0.023890274314214463,-0.020488623754247558,
0.023940149625935162,0.0035048568941730626,
0.02399002493765586,0.005076183054592755,
0.024039900249376557,0.0068273677230368465,
0.024089775561097256,0.001984154183746357,
0.024139650872817955,0.003877416096523695,
0.024189526184538655,-0.00037521962110207904,
0.02423940149625935,0.006003541688532328,
0.02428927680798005,0.0004905031765819259,
0.02433915211970075,0.008102044271841208,
0.024389027431421448,-0.018546385854055866,
0.024438902743142144,-0.005473565796811419,
0.024488778054862843,0.004870393529702692,
0.024538653366583542,-0.0047916874019431985,
0.02458852867830424,-0.006338136568829545,
0.024638403990024937,0.004448840414190466,
0.024688279301745636,-0.022717850003251477,
0.024738154613466335,-0.002392425645903652,
0.02478802992518703,-0.020857264631898204,
0.02483790523690773,-0.016394068227101318,
0.02488778054862843,-0.023305247843360598,
0.02493765586034913,-0.030031633755346513,
0.024987531172069824,-0.022674813025255112,
0.025037406483790523,-0.025439963049440975,
0.025087281795511222,-0.014279573552318355,
0.02513715710723192,-0.02490384100152844,
0.025187032418952617,-0.011116881771928312,
0.025236907730673316,0.019226030284512773,
0.025286783042394016,-0.026801107887951058,
0.025336658354114715,-0.030358812646216905,
0.02538653366583541,-0.055590302760796725,
0.02543640897755611,-0.022347939823631462,
0.02548628428927681,0.017403019615551494,
0.025536159600997508,-0.04003462311787343,
0.025586034912718204,-0.0011597996987310656,
0.025635910224438903,-0.03050477159969848,
0.025685785536159602,-0.04790589574700439,
0.025735660847880298,-0.0459692436177683,
0.025785536159600997,-0.02820217655970593,
0.025835411471321696,-0.00874744323900676,
0.025885286783042395,-0.04037649781751543,
0.02593516209476309,-0.030001034718616246,
0.02598503740648379,-0.027023516232766786,
0.02603491271820449,-0.038994464259609354,
0.02608478802992519,-0.019725856418654073,
0.026134663341645884,-0.014102037021036858,
0.026184538653366583,-0.026074085931350216,
0.026234413965087282,-0.053704123589015135,
0.02628428927680798,-0.036339415073122605,
0.026334164588528677,0.013449798736047892,
0.026384039900249377,-0.04367790728558439,
0.026433915211970076,-0.01928747502679568,
0.02648379052369077,-0.009950767639925282,
0.02653366583541147,-0.02205257932034732,
0.02658354114713217,-0.017537085352840393,
0.02663341645885287,-0.0015346092646975201,
0.026683291770573565,-0.01992517152364555,
0.026733167082294264,-0.02032091348418132,
0.026783042394014963,-0.020116612533825712,
0.026832917705735662,-0.005711094735205095,
0.026882793017456358,-0.007658247606111888,
0.026932668329177057,-0.01230640963331267,
0.026982543640897756,0.003994086360431564,
0.027032418952618455,0.0003058773996256134,
0.02708229426433915,-0.006192476056323504,
0.02713216957605985,-0.009376068871390177,
0.02718204488778055,0.0013665511529357618,
0.02723192019950125,-0.0324349775058303,
0.027281795511221944,0.013249791263997647,
0.027331670822942643,-0.03267216967864475,
0.027381546134663343,-0.020239365727202238,
0.02743142144638404,0.00025747272597826873,
0.027481296758104738,-0.026541677183827078,
0.027531172069825437,-0.0018217549477790047,
0.027581047381546136,0.016812254556350284,
0.02763092269326683,-0.015443280404497625,
0.02768079800498753,-0.035183166687807715,
0.02773067331670823,0.0028108101866214687,
0.02778054862842893,-0.016445535383310422,
0.027830423940149625,-0.028312935603445933,
0.027880299251870324,-0.014463343994286039,
0.027930174563591023,0.0016786521465039922,
0.027980049875311722,-0.006585558960545221,
0.028029925187032418,-0.007312649548206371,
0.028079800498753117,-0.0075277881908754635,
0.028129675810473816,-0.011530685875133133,
0.028179551122194512,-0.0008564801487709554,
0.02822942643391521,-0.02880490765567433,
0.02827930174563591,-0.040644487834905284,
0.02832917705735661,-0.025981464537971656,
0.028379052369077305,0.0013706657561094876,
0.028428927680798004,-0.020162492684847138,
0.028478802992518704,-0.012306670416247598,
0.028528678304239403,0.009668901747885872,
0.0285785536159601,0.00039674123944162705,
0.028628428927680798,-0.012093444473512273,
0.028678304239401497,-0.018851772568174295,
0.028728179551122196,-0.006141100286946283,
0.02877805486284289,0.01104175766097297,
0.02882793017456359,-0.008508903028100702,
0.02887780548628429,-0.020431416547406517,
0.02892768079800499,-0.03768502331012896,
0.028977556109725685,-0.007095419302430753,
0.029027431421446384,-0.026880984124382456,
0.029077306733167083,0.04471941375892452,
0.02912718204488778,0.004284014696391133,
0.029177057356608478,-0.00684108353484286,
0.029226932668329177,-0.019250616773915184,
0.029276807980049877,-0.004409528009921284,
0.029326683291770572,-0.01724666563406544,
0.02937655860349127,-0.004057852280759925,
0.02942643391521197,-0.022480449921882674,
0.02947630922693267,0.0032662678051193113,
0.029526184538653365,0.013057493933806574,
0.029576059850374065,-0.0228855494677905,
0.029625935162094764,0.01849665632049235,
0.029675810473815463,0.024023150437165745,
0.02972568578553616,0.015127644211138887,
0.029775561097256858,-0.015787043207606773,
0.029825436408977557,-0.006000987536854025,
0.029875311720698253,0.016729879018788134,
0.029925187032418952,-0.006449202197294102,
0.02997506234413965,0.0036702065201101846,
0.03002493765586035,0.004569164683862819,
0.030074812967581046,-0.013356587901834218,
0.030124688279301745,-0.024384166709923837,
0.030174563591022444,0.004190036447375217,
0.030224438902743143,0.040726916435101006,
0.03027431421446384,0.009528827864505159,
0.03032418952618454,0.021736140309577115,
0.030374064837905237,0.009908455401905329,
0.030423940149625937,0.016479728846674004,
0.030473815461346632,0.015493065524229122,
0.03052369077306733,0.004007907347960164,
0.03057356608478803,0.00378426055645505,
0.03062344139650873,-0.009597002004299717,
0.030673316708229426,-0.015042461094034157,
0.030723192019950125,-0.0018620352041245928,
0.030773067331670824,0.00045945951797033194,
0.03082294264339152,0.024448007414915648,
0.03087281795511222,-0.0181648259107154,
0.030922693266832918,0.013353817587718673,
0.030972568578553617,-0.0027425528579702145,
0.031022443890274313,0.0009049760951980986,
0.031072319201995012,-0.01627082474666912,
0.03112219451371571,-0.01572129723787643,
0.03117206982543641,0.00925659431615623,
0.031221945137157106,-0.0027325273833572602,
0.03127182044887781,0.021512256021854595,
0.031321695760598504,-0.01311342837776086,
0.0313715710723192,0.014930074305528824,
0.0314214463840399,-0.015211012360353354,
0.0314713216957606,0.005071354751325175,
0.031521197007481294,0.02364064677704044,
0.031571072319202,0.019965961554309943,
0.03162094763092269,0.03014910398107849,
0.03167082294264339,0.0018243651616877236,
0.03172069825436409,0.02440415616246067,
0.03177057356608479,0.010668362820098655,
0.03182044887780549,0.0015856028221079939,
0.031870324189526185,0.02576047182361368,
0.03192019950124688,0.04882316032198766,
0.03197007481296758,0.02698104032013486,
0.03201995012468828,0.013171571177439053,
0.032069825436408975,-0.0016711940397826346,
0.03211970074812968,0.007237391241417033,
0.03216957605985037,0.012570594350064385,
0.032219451371571076,0.0017270804723837126,
0.03226932668329177,0.005014347620534416,
0.03231920199501247,0.03756470117628581,
0.03236907730673317,0.020057782799475777,
0.032418952618453865,0.0038432004244542007,
0.03246882793017456,0.007089316242335224,
0.032518703241895264,-0.0003451152445422701,
0.03256857855361596,0.014496825614850975,
0.032618453865336655,0.011776093672361458,
0.03266832917705736,0.021728202749450167,
0.032718204488778053,-0.02109938936894716,
0.032768079800498756,-0.00496693270316202,
0.03281795511221945,-0.0028301142762104034,
0.03286783042394015,0.019711962099173915,
0.03291770573566085,0.02314170565422314,
0.032967581047381546,0.010550356673158389,
0.03301745635910224,0.002270343731001283,
0.033067331670822944,0.01646963185500844,
0.03311720698254364,0.02370477651433859,
0.03316708229426434,0.024173884150143515,
0.03321695760598504,0.005843819619653119,
0.033266832917705734,-0.01291893876764063,
0.03331670822942644,0.003039353432519206,
0.03336658354114713,0.0024176887379691227,
0.03341645885286783,0.02008425223637955,
0.03346633416458853,0.0005213858509404042,
0.033516209476309226,0.022436232764282322,
0.03356608478802992,0.004494925063911319,
0.033615960099750625,0.05803043181212461,
0.03366583541147132,0.027447910890940605,
0.03371571072319202,-0.00598623463875448,
0.03376558603491272,0.02413243858089327,
0.033815461346633414,0.036661762483307436,
0.03386533665835412,0.015833124138739427,
0.03391521197007481,0.02660886882462002,
0.03396508728179551,0.049697869070980664,
0.03401496259351621,0.026696698215298274,
0.03406483790523691,0.015513438135969053,
0.0341147132169576,0.0032748632873071323,
0.034164588528678305,0.01866964727739005,
0.034214463840399,0.007723058576425322,
0.034264339152119704,0.02091656528299268,
0.0343142144638404,0.0017879262928462286,
0.034364089775561095,0.016577988147153996,
0.0344139650872818,0.03749522533238493,
0.03446384039900249,0.03223171020245179,
0.03451371571072319,0.025789473689018644,
0.03456359102244389,0.03779866404083445,
0.03461346633416459,0.044026257039227634,
0.03466334164588529,0.022141768137650394,
0.034713216957605986,-0.008326017408398726,
0.03476309226932668,0.01412767777253916,
0.034812967581047384,0.004381091830774519,
0.03486284289276808,0.013701327282835409,
0.034912718204488775,0.046602752251770935,
0.03496259351620948,0.011668376988209574,
0.035012468827930174,0.01464150433889401,
0.03506234413965087,0.012899769891644439,
0.03511221945137157,0.017482381891925088,
0.03516209476309227,0.025293002197291668,
0.03521197007481297,0.009417847200820601,
0.035261845386533666,0.01145414000243108,
0.03531172069825436,0.01033642279587199,
0.035361596009975065,0.011805813005062,
0.03541147132169576,0.0063340202251438195,
0.035461346633416456,0.0450541878876817,
0.03551122194513716,0.03774706877770686,
0.035561097256857854,0.028118050398934703,
0.03561097256857856,0.04987749314098949,
0.03566084788029925,0.03540879759812888,
0.03571072319201995,0.04337747235920151,
0.03576059850374065,0.013720363262120316,
0.03581047381546135,0.005696834121241688,
0.03586034912718204,0.019402649323312808,
0.035910224438902745,0.01923563894331048,
0.03596009975062344,0.03389124315469744,
0.036009975062344136,0.028716877388979854,
0.03605985037406484,0.0005114790541821297,
0.036109725685785535,0.04113835248103423,
0.03615960099750624,0.02178289595481569,
0.03620947630922693,0.013121401961662107,
0.03625935162094763,0.026581634937618774,
0.03630922693266833,0.021361437230878806,
0.03635910224438903,0.016746275402147865,
0.03640897755610972,-0.002560905093016985,
0.036458852867830426,0.02821984480709394,
0.03650872817955112,0.03260570807768738,
0.036558603491271824,0.04379817005192713,
0.03660847880299252,0.023061518121241298,
0.036658354114713215,0.04055923844008508,
0.03670822942643392,0.018607139218806003,
0.036758104738154614,0.02640069050021546,
0.03680798004987531,-0.010740850172528345,
0.03685785536159601,0.0165462725668456,
0.03690773067331671,0.034020916170616165,
0.0369576059850374,0.03658642455676333,
0.037007481296758106,0.02528464485064986,
0.0370573566084788,0.016601092515979052,
0.037107231920199504,0.015416896047823907,
0.0371571072319202,0.025957364147799325,
0.037206982543640896,0.014340763192219741,
0.0372568578553616,0.009838232008788283,
0.037306733167082294,0.016900108040143105,
0.03735660847880299,0.02622250334920765,
0.03740648379052369,0.01715127801316324,
0.03745635910224439,-0.010080610019637965,
0.037506234413965084,0.030057636904082287,
0.037556109725685786,0.03308875566805815,
0.03760598503740648,0.006415034588998128,
0.037655860349127185,0.024748285130556734,
0.03770573566084788,0.011366572053695134,
0.037755610972568576,0.02765494840072241,
0.03780548628428928,0.019163138842313462,
0.037855361596009975,0.02968274650405079,
0.03790523690773067,0.035703705628600174,
0.03795511221945137,0.03666707292914009,
0.03800498753117207,0.038416970655757,
0.03805486284289277,0.026884137362383407,
0.03810473815461347,0.017213047589189477,
0.03815461346633416,0.006156728731449254,
0.038204488778054865,-0.010649530215456955,
0.03825436408977556,0.027512740609242227,
0.03830423940149626,0.016639219865363365,
0.03835411471321696,-0.009942903134259728,
0.038403990024937655,0.013983981177942363,
0.03845386533665835,0.03795258067778944,
0.03850374064837905,0.021609386275692533,
0.03855361596009975,0.012348912641519348,
0.03860349127182045,0.03522424295498475,
0.03865336658354115,0.021890802054399278,
0.03870324189526184,0.01046185785678375,
0.038753117206982546,0.030359970009222796,
0.03880299251870324,0.024896236698009028,
0.03885286783042394,0.0005952259901674199,
0.03890274314214464,0.015018297339390823,
0.038952618453865336,0.03175768053562984,
0.03900249376558604,0.025434687726567533,
0.039052369077306734,-0.007236268683402101,
0.03910224438902743,-0.0018884889156126471,
0.03915211970074813,0.02594359856956386,
0.03920199501246883,0.002849794228930889,
0.039251870324189524,0.02811425766177571,
0.039301745635910226,0.01548761669289943,
0.03935162094763092,-0.006740843483157247,
0.03940149625935162,-0.01080568557002147,
0.03945137157107232,0.019203160698780083,
0.039501246882793016,-0.007094906820002368,
0.03955112219451372,0.041635874248450194,
0.039600997506234414,0.009989307315492966,
0.03965087281795511,0.0065691158865114506,
0.03970074812967581,-0.020022171646778983,
0.03975062344139651,0.0006463162698112056,
0.039800498753117204,0.017126745272496663,
0.03985037406483791,-0.018279257294398214,
0.0399002493765586,0.020417395969161544,
0.039950124688279305,0.030542221872119094,
0.04,0.0016151079187697983,
0.0400498753117207,0.018958943741687016,
0.0400997506234414,0.020682018927283736,
0.040149625935162095,-0.0001392292065609188,
0.04019950124688279,0.01587996138470655,
0.04024937655860349,-0.005935905145340575,
0.04029925187032419,-0.009156712489338241,
0.040349127182044885,0.005014750243422601,
0.04039900249376559,-0.014442414569087063,
0.04044887780548628,0.00839915352158233,
0.040498753117206986,0.023690261290778517,
0.04054862842892768,0.018014355645593505,
0.04059850374064838,0.006807812586951227,
0.04064837905236908,-0.0050359997004919,
0.040698254364089775,0.02066962563131232,
0.04074812967581047,0.009075395729889794,
0.040798004987531174,-0.01384411198107882,
0.04084788029925187,0.0147101596547087,
0.040897755610972565,-0.014343458140704833,
0.04094763092269327,-0.0018955824976709034,
0.04099750623441396,0.02282352212677953,
0.041047381546134666,0.012253968339307645,
0.04109725685785536,-0.025852222265407062,
0.04114713216957606,0.006080302933565802,
0.04119700748129676,0.0016651973249203521,
0.041246882793017456,-0.009333368654083813,
0.04129675810473815,0.0007987309805327198,
0.041346633416458854,0.00563378303553971,
0.04139650872817955,0.005246520872279285,
0.04144638403990025,-0.008971753863611726,
0.04149625935162095,-0.020034476845559812,
0.041546134663341644,0.01716199666806041,
0.04159600997506235,0.017257112829658344,
0.04164588528678304,-0.005065802761919794,
0.04169576059850374,-0.003628409765599888,
0.04174563591022444,0.002427877324998732,
0.041795511221945136,-0.0005114943262057125,
0.04184538653366583,0.01911518537262498,
0.041895261845386535,-0.005018938675066597,
0.04194513715710723,0.007670975395833671,
0.04199501246882793,-0.019923263527671528,
0.04204488778054863,-0.02072818923192607,
0.042094763092269324,0.013941494220168356,
0.04214463840399003,0.012827705244371705,
0.04219451371571072,-0.01984592185326984,
0.04224438902743142,-0.01892177657718333,
0.04229426433915212,0.012357744942046452,
0.04234413965087282,0.015487198248611644,
0.04239401496259352,0.012437672191763026,
0.042443890274314215,-0.008639657008249691,
0.04249376558603491,0.002841920928870983,
0.042543640897755614,0.0263381114973313,
0.04259351620947631,0.007140320020073693,
0.042643391521197005,-0.031090592059231655,
0.04269326683291771,0.007320052256866888,
0.0427431421446384,0.00030071188642576477,
0.0427930174563591,-0.009266504338200147,
0.0428428927680798,-0.004425887148473761,
0.0428927680798005,0.016468295568051884,
0.0429426433915212,0.0062687498037634435,
0.042992518703241896,-0.007748937072942964,
0.04304239401496259,-0.01063709035662758,
0.043092269326683294,-0.005884829778996048,
0.04314214463840399,-0.020337570790387585,
0.043192019950124685,-0.020460851641097753,
0.04324189526184539,-0.006053707197019806,
0.043291770573566084,-0.02833141251221817,
0.043341645885286786,-0.02776349225752424,
0.04339152119700748,-0.029146181679001414,
0.04344139650872818,-0.0232934186589939,
0.04349127182044888,-0.012394780198100338,
0.043541147132169576,-0.00015822852300500893,
0.04359102244389027,0.0068740827596809485,
0.043640897755610975,-0.0333175738511042,
0.04369077306733167,-0.035054374005539665,
0.043740648379052366,-0.013825138242989048,
0.04379052369077307,-0.014498590633849248,
0.043840399002493764,-0.0013179324140280366,
0.04389027431421447,0.010314856577635615,
0.04394014962593516,-0.0018025134707787653,
0.04399002493765586,-0.010589944504377703,
0.04403990024937656,-0.01891969059669612,
0.04408977556109726,-0.006864291323971651,
0.04413965087281795,-0.014469226866740154,
0.044189526184538655,0.0029756716784409953,
0.04423940149625935,-0.014493795524164172,
0.04428927680798005,-0.022399328829959483,
0.04433915211970075,-0.013500496950250176,
0.044389027431421445,0.0069818691220485795,
0.04443890274314215,-0.013300617815653034,
0.04448877805486284,-0.023732667674219297,
0.04453865336658354,-0.02876486770073588,
0.04458852867830424,-0.014487599456636711,
0.04463840399002494,-0.014296931808052204,
0.04468827930174563,-0.009997776165047313,
0.044738154613466335,-0.015895755177779566,
0.04478802992518703,-0.01958598263085745,
0.044837905236907734,-0.03994312787918944,
0.04488778054862843,-0.014366538047094934,
0.044937655860349125,-0.03343199944970111,
0.04498753117206983,-0.01990665200152266,
0.045037406483790524,-0.01487179629104218,
0.04508728179551122,-0.021735637591542442,
0.04513715710723192,0.01086761644782332,
0.04518703241895262,-0.021315463716689596,
0.04523690773067331,0.030266977775039693,
0.045286783042394016,-0.0023756326829597538,
0.04533665835411471,-0.029995713889739508,
0.045386533665835414,-0.043685127321942074,
0.04543640897755611,-0.022577108670436042,
0.045486284289276806,-0.007384088907730447,
0.04553615960099751,0.002126503893606947,
0.045586034912718204,0.0038185271088113336,
0.0456359102244389,-0.022268636616172666,
0.0456857855361596,-0.03212947830266453,
0.0457356608478803,-0.011631943645061742,
0.045785536159601,-0.025056207425739538,
0.045835411471321696,-0.02360847244561717,
0.04588528678304239,-0.01912299935323067,
0.045935162094763095,0.016348233017027564,
0.04598503740648379,-0.027193063650314604,
0.046034912718204486,-0.014895713837187845,
0.04608478802992519,-0.03686456177541525,
0.046134663341645885,-0.030830117979463667,
0.04618453865336658,-0.0202534961509645,
0.04623441396508728,-0.01801426913756616,
0.04628428927680798,-0.020902180288969133,
0.04633416458852868,-0.024706563369674615,
0.04638403990024938,-0.019971713336587663,
0.04643391521197007,-0.012281596439572913,
0.046483790523690775,-0.01469646785148497,
0.04653366583541147,-0.02040800590638902,
0.04658354114713217,-0.047335497302108114,
0.04663341645885287,-0.02294286315907349,
0.046683291770573565,-0.011279617557520017,
0.04673316708229427,-0.012382712540239236,
0.04678304239401496,-0.010145645737930982,
0.04683291770573566,-0.003894837309665342,
0.04688279301745636,-0.0010194617857209962,
0.04693266832917706,-0.001770924458733827,
0.04698254364089775,-0.04510278120843829,
0.047032418952618456,-0.03176726769593148,
0.04708229426433915,-0.018506363215666705,
0.04713216957605985,-0.01991235671612959,
0.04718204488778055,-0.002619847252453112,
0.047231920199501246,-0.0013972102485656935,
0.04728179551122195,-0.012216418939046224,
0.047331670822942644,0.015202899989130984,
0.04738154613466334,-0.024295212705901112,
0.04743142144638404,-0.008059302821112349,
0.04748129675810474,-0.013430689000648513,
0.047531172069825434,-0.023519824341893418,
0.047581047381546136,-0.009074271164782374,
0.04763092269326683,-0.015498959169976354,
0.047680798004987535,-0.0017684995287685027,
0.04773067331670823,-0.008427497044821885,
0.047780548628428926,-0.031667273927201194,
0.04783042394014963,0.0024756412710104127,
0.047880299251870324,-0.000466676433058609,
0.04793017456359102,0.004150724423638178,
0.04798004987531172,-0.020665426238472805,
0.04802992518703242,-0.0037249589682989623,
0.048079800498753114,0.018277944790443833,
0.04812967581047382,-0.01783771725295841,
0.04817955112219451,-0.0028376073584547665,
0.048229426433915215,-0.00918921527423032,
0.04827930174563591,0.025584243588534016,
0.048329177057356607,-0.003303479143494258,
0.04837905236907731,-0.030297954491565467,
0.048428927680798005,-0.007150434297045346,
0.0484788029925187,-0.011588716216170409,
0.0485286783042394,-0.035626764067010694,
0.0485785536159601,0.015759823776669103,
0.048628428927680795,-0.010523835092037932,
0.0486783042394015,-0.00969275867092075,
0.04872817955112219,-0.003669001354702845,
0.048778054862842896,-0.0019474428271525797,
0.04882793017456359,-0.01730597998703311,
0.04887780548628429,-0.0038291989172578806,
0.04892768079800499,-0.009682502867528128,
0.048977556109725685,0.0014548478333578484,
0.04902743142144638,0.020829417211239886,
0.049077306733167084,-0.017041767099184528,
0.04912718204488778,-0.029518670176649633,
0.04917705735660848,-0.0053537730975136665,
0.04922693266832918,-0.0020078434635483694,
0.04927680798004987,-0.020356440415194403,
0.049326683291770576,-0.014434996754189865,
0.04937655860349127,0.012594597243435847,
0.04942643391521197,0.009919703208566971,
0.04947630922693267,-0.013086303962827516,
0.049526184538653366,-0.03569147656182226,
0.04957605985037406,0.0006205653739217373,
0.049625935162094764,-0.015226294458687376,
0.04967581047381546,0.002689880182127451,
0.04972568578553616,0.010632278421465996,
0.04977556109725686,-0.006704850722510987,
0.049825436408977554,-0.021399119414205896,
0.04987531172069826,0.013390451913928902,
0.04992518703241895,-0.004864510587651665,
0.04997506234413965,-0.026114931540743763,
0.05002493765586035,0.007049722616919619,
0.050074812967581046,-0.003708938625727509,
0.05012468827930175,0.013558828350914261,
0.050174563591022445,0.0007693171870071069,
0.05022443890274314,-0.008712714363621376,
0.05027431421446384,0.015451495606582533,
0.05032418952618454,-0.00618575254071718,
0.050374064837905234,0.006053923460395134,
0.05042394014962594,0.006033432939643193,
0.05047381546134663,-0.0014565041523062249,
0.05052369077306733,0.011177702591129296,
0.05057356608478803,0.009796233622308347,
0.05062344139650873,-0.008917224035017993,
0.05067331670822943,0.010666172642658494,
0.050723192019950125,0.0011388545618236522,
0.05077306733167082,0.006346650132171081,
0.050822942643391524,0.03503093290864458,
0.05087281795511222,0.008635846215549085,
0.050922693266832915,0.008955388369171865,
0.05097256857855362,-0.004729327166681127,
0.05102244389027431,0.0090442217940974,
0.051072319201995016,0.026677800948943113,
0.05112219451371571,-0.014361434565782583,
0.05117206982543641,-0.0010095772575383433,
0.05122194513715711,0.014209016675495316,
0.051271820448877806,0.012655855722487935,
0.0513216957605985,0.007392054255163482,
0.051371571072319204,0.0032812294806151914,
0.0514214463840399,-0.023600624725619253,
0.051471321695760595,0.00010170531139405171,
0.0515211970074813,0.012943870710961574,
0.051571072319201994,-0.0014702179156961884,
0.051620947630922696,0.04047363354078065,
0.05167082294264339,-0.005698611594158234,
0.05172069825436409,-0.02281867853438479,
0.05177057356608479,0.001857858425050791,
0.051820448877805486,0.03310677848322257,
0.05187032418952618,0.032879290421550425,
0.051920199501246884,0.03653090948533198,
0.05197007481296758,0.041950659964268555,
0.052019950124688276,-0.007942683860534611,
0.05206982543640898,0.019343686553007097,
0.052119700748129674,0.0047310397362300355,
0.05216957605985038,0.03152991137008967,
0.05221945137157107,-0.00809415675266972,
0.05226932668329177,0.023964650786040598,
0.05231920199501247,0.010382774091951562,
0.05236907730673317,0.022760658036634178,
0.05241895261845386,0.042875763740708034,
0.052468827930174565,0.03538635950056651,
0.05251870324189526,0.036300623950282974,
0.05256857855361596,0.02114309198547913,
0.05261845386533666,0.025706340690930148,
0.052668329177057355,-0.0014571318658297677,
0.05271820448877806,0.03350450271553232,
0.05276807980049875,-0.010787145929514231,
0.05281795511221945,0.004520867994899648,
0.05286783042394015,0.01777993506352798,
0.05291770573566085,0.011311663165584053,
0.05296758104738154,0.031525984256484424,
0.053017456359102245,0.006191858127947515,
0.05306733167082294,0.024611165401506062,
0.053117206982543644,-0.014890081543159517,
0.05316708229426434,0.03631552471947557,
0.053216957605985035,0.03349335308804029,
0.05326683291770574,-0.002280294706529247,
0.053316708229426434,0.0205539854751652,
0.05336658354114713,0.011466075915066133,
0.05341645885286783,0.02240033337682136,
0.05346633416458853,0.01138872940602724,
0.05351620947630923,0.0367208048295308,
0.053566084788029926,0.011161967094661787,
0.05361596009975062,0.03482083244861165,
0.053665835411471324,0.02820549885272857,
0.05371571072319202,0.005830146791463904,
0.053765586034912716,-0.009769151765594567,
0.05381546134663342,0.027715745419390963,
0.053865336658354114,0.026689632285286546,
0.05391521197007481,0.02760400942465242,
0.05396508728179551,0.027415147505014597,
0.05401496259351621,-0.007477188519915683,
0.05406483790523691,0.005629513114144575,
0.054114713216957606,0.04046719302611943,
0.0541645885286783,0.007736473104590495,
0.054214463840399005,0.0235589622203098,
0.0542643391521197,0.030080154876008645,
0.054314214463840396,0.013915358409387369,
0.0543640897755611,0.011861798941623078,
0.054413965087281795,0.037647925302050855,
0.0544638403990025,0.03266188538265499,
0.05451371571072319,0.026671727945495036,
0.05456359102244389,0.03670523211726108,
0.05461346633416459,0.03531790738260893,
0.05466334164588529,0.02199668924973798,
0.05471321695760598,0.027289147952722068,
0.054763092269326685,0.01913586391328031,
0.05481296758104738,0.010511316509262354,
0.05486284289276808,0.02122660613432012,
0.05491271820448878,0.03087542026133641,
0.054962593516209475,0.01743356176202705,
0.05501246882793018,0.04582912110494168,
0.05506234413965087,0.009996397132654536,
0.05511221945137157,0.043817711515739655,
0.05516209476309227,0.04195229266628368,
0.05521197007481297,0.021482896525549272,
0.05526184538653366,0.03845638139856236,
0.055311720698254366,0.03388394675952741,
0.05536159600997506,0.01759533855118453,
0.05541147132169576,0.029157434149217,
0.05546134663341646,0.01799196563407914,
0.055511221945137156,0.011927014794830193,
0.05556109725685786,0.011934607477775494,
0.055610972568578554,0.008813575970485524,
0.05566084788029925,0.019654466615848458,
0.05571072319201995,0.026615383928872798,
0.05576059850374065,0.007727558676184226,
0.055810473815461344,0.03773208097866214,
0.055860349127182046,0.020866264488099643,
0.05591022443890274,0.0420263653061044,
0.055960099750623445,0.029872229478212657,
0.05600997506234414,0.0207087697269191,
0.056059850374064836,0.03963753422636403,
0.05610972568578554,0.026976874482784106,
0.056159600997506234,0.034310802416968295,
0.05620947630922693,0.03302564006495006,
0.05625935162094763,0.026004919692603504,
0.05630922693266833,0.014565096321443306,
0.056359102244389024,0.0033238267953690365,
0.05640897755610973,0.019829248828861355,
0.05645885286783042,0.034082943576058046,
0.056508728179551125,0.016551499827355473,
0.05655860349127182,0.03418784567577145,
0.056608478802992516,0.024426368437776947,
0.05665835411471322,0.02763054150903619,
0.056708229426433915,0.04843485205888111,
0.05675810473815461,0.022773548259310137,
0.05680798004987531,0.0041944615087288785,
0.05685785536159601,0.027714682012880285,
0.05690773067331671,0.06932537426245787,
0.05695760598503741,0.024727829534368972,
0.0570074812967581,0.015522512723677901,
0.057057356608478806,0.01989778237782713,
0.0571072319201995,0.02563800595789236,
0.0571571072319202,0.02230644907738402,
0.0572069825436409,0.00578763683806215,
0.057256857855361595,0.06857228194656681,
0.05730673316708229,0.03247207483497098,
0.057356608478802994,0.02372740671211436,
0.05740648379052369,0.013577019982310312,
0.05745635910224439,0.005480747639471949,
0.05750623441396509,0.0038375377480000493,
0.05755610972568578,0.001169641893464076,
0.057605985037406486,0.015961166444913025,
0.05765586034912718,0.02463559069653888,
0.05770573566084788,0.024926430843633517,
0.05775561097256858,0.017783949868869813,
0.057805486284289276,0.04439934791519283,
0.05785536159600998,0.010294988598416268,
0.057905236907730674,0.026028992424106782,
0.05795511221945137,0.03573423238031956,
0.05800498753117207,0.0075127299671363685,
0.05805486284289277,0.012007830493934625,
0.058104738154613464,0.025489435332581425,
0.05815461346633417,0.006087077683254323,
0.05820448877805486,0.013589626989610894,
0.05825436408977556,0.015542965229166303,
0.05830423940149626,0.025683060941065677,
0.058354114713216956,0.0207868960393317,
0.05840399002493766,0.02471211567476151,
0.058453865336658355,0.025469052656001967,
0.05850374064837905,0.02722387305121994,
0.05855361596009975,0.01973865317860914,
0.05860349127182045,0.026950919512086488,
0.058653366583541144,0.030305750089352906,
0.05870324189526185,0.0024718047665595374,
0.05875311720698254,0.014272204610835037,
0.05880299251870324,0.025411585280644834,
0.05885286783042394,0.016863179212128748,
0.05890274314214464,0.030053243822925842,
0.05895261845386534,0.01372676148081415,
0.059002493765586035,0.01456621427999169,
0.05905236907730673,0.0341497365504209,
0.059102244389027433,0.016619993259981605,
0.05915211970074813,0.019283463461262723,
0.059201995012468825,0.033377119441821285,
0.05925187032418953,0.009691110968678196,
0.05930174563591022,0.035411652203120494,
0.059351620947630926,0.03365955993783723,
0.05940149625935162,0.025216494147563932,
0.05945137157107232,0.0004680581527953115,
0.05950124688279302,0.02479177423872817,
0.059551122194513716,0.025217920348875662,
0.05960099750623441,0.0368613044141288,
0.059650872817955114,0.025652814028219728,
0.05970074812967581,0.014875633216095844,
0.059750623441396505,0.022731168197033347,
0.05980049875311721,0.05138770659921636,
0.059850374064837904,0.030311580686635163,
0.059900249376558606,-0.005292085875501697,
0.0599501246882793,0.022153274312059483,
0.06,-0.004518636779950819,
0.0600498753117207,0.00658868332750591,
0.060099750623441396,0.012586676720521071,
0.06014962593516209,-0.015014049955196188,
0.060199501246882794,0.025570904926093117,
0.06024937655860349,0.019682628238378453,
0.06029925187032419,0.020526634045879386,
0.06034912718204489,0.016563328479298048,
0.060399002493765584,0.012055757564669855,
0.06044887780548629,0.008205372245191345,
0.06049875311720698,0.006424280255416813,
0.06054862842892768,-0.0026014565816359723,
0.06059850374064838,0.027902915265350325,
0.06064837905236908,0.025567354237317184,
0.06069825436408977,0.020681108034485723,
0.060748129675810475,0.011419818028482189,
0.06079800498753117,0.027945127053164882,
0.06084788029925187,0.0022950223051919536,
0.06089775561097257,-0.01317290741065025,
0.060947630922693265,-0.015566892060120761,
0.06099750623441397,0.02541806252299104,
0.06104738154613466,-0.0018650424523545253,
0.06109725685785536,-0.013637025029841494,
0.06114713216957606,-0.0007213191573611196,
0.06119700748129676,-0.0014394369976699463,
0.06124688279301746,-0.004181710834239237,
0.061296758104738155,0.01683491043975483,
0.06134663341645885,0.00804923792196633,
0.061396508728179554,-0.003765008331401758,
0.06144638403990025,-0.0021672603757961688,
0.061496259351620945,0.00022741565204531934,
0.06154613466334165,0.010238842389862984,
0.061596009975062344,-0.002490270814921998,
0.06164588528678304,0.02372953482490428,
0.06169576059850374,-0.014430966838302675,
0.06174563591022444,-0.009127966244419746,
0.06179551122194514,0.008685502529448986,
0.061845386533665836,0.01697837155255435,
0.06189526184538653,-0.024329534062469706,
0.061945137157107234,-0.010018458378538413,
0.06199501246882793,0.004840147828246205,
0.062044887780548626,-0.0363547530550119,
0.06209476309226933,-0.012973633060228482,
0.062144638403990024,0.0006994323568577359,
0.06219451371571072,-0.003429696097559813,
0.06224438902743142,-0.01526742395431505,
0.06229426433915212,-0.002828848109814169,
0.06234413965087282,-0.002294505341986878,
0.062394014962593516,-0.01319332566006898,
0.06244389027431421,-0.022269109017323,
0.062493765586034915,-0.025083322084119244,
0.06254364089775562,-0.025721544007460607,
0.06259351620947631,-0.005441227896356385,
0.06264339152119701,0.010134983026712716,
0.0626932668329177,0.013094375779107326,
0.0627431421446384,0.04741889730420501,
0.0627930174563591,0.012559017742589612,
0.0628428927680798,-0.02072767743514675,
0.0628927680798005,-0.016536449050873085,
0.0629426433915212,0.020226424270745044,
0.06299251870324189,0.00024036640310486686,
0.06304239401496259,1.5948546664645846e-05,
0.0630922693266833,-0.00018324245684735348,
0.063142144638404,-0.005939089968754212,
0.06319201995012469,-0.01805144453791476,
0.06324189526184539,0.0007991677954263116,
0.06329177057356608,-0.0034206854681843174,
0.06334164588528678,-0.01069569391095943,
0.06339152119700749,-0.015899549824885083,
0.06344139650872818,-0.007769961419967087,
0.06349127182044888,-0.018675238233901208,
0.06354114713216957,-0.018245311805228145,
0.06359102244389027,-0.00973834250327398,
0.06364089775561098,-0.03836430871970002,
0.06369077306733167,-0.019769390360573288,
0.06374064837905237,-0.009118812209832029,
0.06379052369077307,-0.0027924174587972885,
0.06384039900249376,-0.012791189191137288,
0.06389027431421446,-0.010875219875100506,
0.06394014962593517,-0.029156474492616,
0.06399002493765586,-0.01952853405875998,
0.06403990024937656,0.01052619555731244,
0.06408977556109725,-0.01742965897532219,
0.06413965087281795,-0.022714384840092833,
0.06418952618453866,-0.03400645198952107,
0.06423940149625935,-0.0032051550261515856,
0.06428927680798005,-0.023665947482395457,
0.06433915211970075,-0.03776371826744808,
0.06438902743142144,-0.0031960476013762687,
0.06443890274314215,-0.00892636889054627,
0.06448877805486285,0.01376875766629683,
0.06453865336658354,0.0027849884093804414,
0.06458852867830424,0.010358029323807742,
0.06463840399002493,-0.021408957022648487,
0.06468827930174563,-0.005444008493324843,
0.06473815461346634,-0.026072222818054717,
0.06478802992518704,-0.0007064371921635757,
0.06483790523690773,-0.009309677848237986,
0.06488778054862843,-0.004581749287385998,
0.06493765586034912,-0.020363446885317806,
0.06498753117206983,-0.032983131497249955,
0.06503740648379053,-0.02800310250098296,
0.06508728179551122,-0.026845751494713584,
0.06513715710723192,-0.003554749556263467,
0.06518703241895261,-0.027798133472604025,
0.06523690773067331,-0.03354138051441678,
0.06528678304239402,-0.017666692028364347,
0.06533665835411472,-0.01286072689033336,
0.06538653366583541,-0.044329655528525136,
0.06543640897755611,-0.01751888509751808,
0.0654862842892768,0.006943886244001838,
0.06553615960099751,-0.01682797062927916,
0.06558603491271821,-0.006660384992344745,
0.0656359102244389,-0.01918850852978803,
0.0656857855361596,-0.020347938388153856,
0.0657356608478803,-0.016221955506916286,
0.06578553615960099,-0.03137996115985189,
0.0658354114713217,-0.020483366661251043,
0.0658852867830424,0.0023675106631981715,
0.06593516209476309,-0.011853734791431977,
0.06598503740648379,-0.02028669504101518,
0.06603491271820448,-0.0256875099762657,
0.06608478802992519,-0.03298011422822353,
0.06613466334164589,-0.029855678571013664,
0.06618453865336658,-0.005546286259148733,
0.06623441396508728,-0.012620519666269906,
0.06628428927680798,-0.009673562042649485,
0.06633416458852869,-0.02548087830944646,
0.06638403990024938,-0.036361462749458645,
0.06643391521197008,-0.02507009263650274,
0.06648379052369077,-0.011560566295924168,
0.06653366583541147,-0.018267523342543293,
0.06658354114713216,-0.01768314378377727,
0.06663341645885287,-0.004492129027628402,
0.06668329177057357,-0.03765969464725451,
0.06673316708229426,-0.017966261867869253,
0.06678304239401496,-0.03876114806231956,
0.06683291770573566,-0.003384537762765356,
0.06688279301745637,0.007181310779990315,
0.06693266832917706,-0.007845520359571388,
0.06698254364089776,-0.024910282787040876,
0.06703241895261845,-0.006565399814962763,
0.06708229426433915,-0.023536850349299095,
0.06713216957605984,-0.024138614068451532,
0.06718204488778055,-0.01936965829406112,
0.06723192019950125,0.005747189629102811,
0.06728179551122195,-0.01171986168513676,
0.06733167082294264,0.006915939750525487,
0.06738154613466334,-0.0014956942387120316,
0.06743142144638405,-0.014428573579180865,
0.06748129675810474,0.002100405795979532,
0.06753117206982544,-0.027061639854873688,
0.06758104738154613,-0.0048977600397423805,
0.06763092269326683,-0.017171821182372843,
0.06768079800498752,-0.005779914423148656,
0.06773067331670823,-0.040168852643508855,
0.06778054862842893,-0.0006839790798212324,
0.06783042394014963,-0.008983694363648681,
0.06788029925187032,-0.036112805227799985,
0.06793017456359102,-0.012471724609652398,
0.06798004987531173,-0.015593616987866682,
0.06802992518703242,-0.0172233273736514,
0.06807980049875312,-0.019598438695443327,
0.06812967581047381,0.0074684958327591,
0.06817955112219451,0.0019350176027509176,
0.0682294264339152,0.0015027047347453259,
0.06827930174563591,0.0025149870583201176,
0.06832917705735661,-0.013749977972072157,
0.0683790523690773,-0.019405408166337276,
0.068428927680798,0.001319989672769072,
0.0684788029925187,-0.004361779721177421,
0.06852867830423941,-0.01346505518787849,
0.0685785536159601,0.008290335407301633,
0.0686284289276808,-0.020588316293310923,
0.0686783042394015,-0.01936562875260854,
0.06872817955112219,0.008919570894860701,
0.0687780548628429,-0.011885881651671832,
0.0688279301745636,-0.028668245580598828,
0.06887780548628429,-0.0051470057879560716,
0.06892768079800499,-0.011409983542954819,
0.06897755610972568,0.010918947196295348,
0.06902743142144638,0.007739766545366816,
0.06907730673316709,-0.007493512518815916,
0.06912718204488778,-0.011744979369220166,
0.06917705735660848,-0.005228939876558734,
0.06922693266832917,-0.0053650859166148885,
0.06927680798004987,0.0004761388890801438,
0.06932668329177058,-0.007881376990126126,
0.06937655860349128,-0.010193055863741174,
0.06942643391521197,-0.010461905385203798,
0.06947630922693267,0.018438427234252687,
0.06952618453865336,-0.0011493348232912294,
0.06957605985037406,-0.01667711998063929,
0.06962593516209477,0.008388730285389254,
0.06967581047381546,0.015319712037057924,
0.06972568578553616,-0.00023516463108674075,
0.06977556109725686,-0.010374200990969272,
0.06982543640897755,0.019125484626038275,
0.06987531172069826,-0.0020998597809646115,
0.06992518703241896,0.02192621934694461,
0.06997506234413965,-0.0017320258262517032,
0.07002493765586035,-0.01663010511796396,
0.07007481296758104,0.006804284204713082,
0.07012468827930174,0.0006863557022507096,
0.07017456359102245,-0.006894208616702203,
0.07022443890274314,0.019585950175107857,
0.07027431421446384,-0.0023771017215156037,
0.07032418952618454,0.019194836122128633,
0.07037406483790523,0.013383099870062053,
0.07042394014962594,-0.0031631347036734253,
0.07047381546134664,0.0123827567006153,
0.07052369077306733,0.022648112585155453,
0.07057356608478803,0.02709797047156423,
0.07062344139650872,0.017868838833217382,
0.07067331670822943,-0.008636790721665264,
0.07072319201995013,-0.009873549655836316,
0.07077306733167082,-0.0019844959201114247,
0.07082294264339152,0.011288364018023585,
0.07087281795511222,0.025266373764478135,
0.07092269326683291,0.00023497493331858625,
0.07097256857855362,0.006252347691315253,
0.07102244389027432,0.01629030811847206,
0.07107231920199501,-0.04733296171849939,
0.07112219451371571,0.01697152597553008,
0.0711720698254364,-0.002170936715379798,
0.07122194513715711,-0.011974769577198898,
0.07127182044887781,0.021985168854117464,
0.0713216957605985,-0.027190258498782108,
0.0713715710723192,0.022656468708507356,
0.0714214463840399,-0.0024362425008697917,
0.07147132169576059,0.01722284048873099,
0.0715211970074813,0.017152141455937214,
0.071571072319202,0.007538687849187582,
0.0716209476309227,0.021316995188669675,
0.07167082294264339,0.03225670300819239,
0.07172069825436408,-0.018345238229670012,
0.0717705735660848,-0.007156194268978011,
0.07182044887780549,0.02388913140837256,
0.07187032418952619,-0.005249645765268568,
0.07192019950124688,0.003009164817823937,
0.07197007481296758,0.011844063156876906,
0.07201995012468827,-0.005159020540786454,
0.07206982543640898,0.017917554677819456,
0.07211970074812968,0.006954827909136144,
0.07216957605985037,-0.013948451785864725,
0.07221945137157107,0.0017299121160307355,
0.07226932668329177,0.024816525767333904,
0.07231920199501247,0.011001335188176368,
0.07236907730673317,0.032246863674049484,
0.07241895261845387,0.026317881247250246,
0.07246882793017456,0.004527825828086581,
0.07251870324189526,-0.0053902714204648195,
0.07256857855361595,0.006963652482686183,
0.07261845386533666,0.019775618407622958,
0.07266832917705736,0.015038291677807054,
0.07271820448877805,-0.0028345313446243303,
0.07276807980049875,0.021184339218127284,
0.07281795511221945,0.0007524039450639668,
0.07286783042394016,0.020661627272122226,
0.07291770573566085,-0.0034999692789774647,
0.07296758104738155,0.0074551450065720795,
0.07301745635910224,0.030836628045109015,
0.07306733167082294,0.00022578356991262774,
0.07311720698254365,0.03172511717532489,
0.07316708229426434,0.010747014380635266,
0.07321695760598504,0.0287040851629981,
0.07326683291770573,0.016157755693844002,
0.07331670822942643,0.056069705709007225,
0.07336658354114713,0.029068864894029642,
0.07341645885286784,0.010654407064217889,
0.07346633416458853,0.026265505963262943,
0.07351620947630923,0.021767235595079856,
0.07356608478802992,0.030479405285634982,
0.07361596009975062,0.052022758709614154,
0.07366583541147133,0.027096551157557658,
0.07371571072319202,0.04037410331516922,
0.07376558603491272,4.319708117883625e-05,
0.07381546134663342,0.03266903607253904,
0.07386533665835411,0.012421855864940651,
0.0739152119700748,0.020798148160778226,
0.07396508728179552,-0.032481359177404204,
0.07401496259351621,0.015596131890376997,
0.07406483790523691,-0.00038310914426119974,
0.0741147132169576,0.039500416257624356,
0.0741645885286783,0.03314333900127953,
0.07421446384039901,0.010171312021945905,
0.0742643391521197,0.015328282214711962,
0.0743142144638404,0.03250510341254892,
0.0743640897755611,0.020383771650137505,
0.07441396508728179,0.018596333857279726,
0.07446384039900249,0.0230453821229042,
0.0745137157107232,0.03446587755076926,
0.07456359102244389,0.02272300285651351,
0.07461346633416459,0.012324529575655673,
0.07466334164588528,0.03168216631518229,
0.07471321695760598,0.0390717033843,
0.07476309226932669,0.01752446252931578,
0.07481296758104738,0.0023618893887244127,
0.07486284289276808,0.033983157207170524,
0.07491271820448878,0.04192316491468025,
0.07496259351620947,0.036501946815161404,
0.07501246882793017,0.016498760638246075,
0.07506234413965088,0.025349925301107346,
0.07511221945137157,0.030412172523924284,
0.07516209476309227,0.024145971686978105,
0.07521197007481296,0.02788801432387215,
0.07526184538653366,0.03251520234017327,
0.07531172069825437,0.02852539977624804,
0.07536159600997507,0.03810454044511645,
0.07541147132169576,0.045288641999921296,
0.07546134663341646,0.00017306100656929238,
0.07551122194513715,0.06159168046069222,
0.07556109725685786,0.022265273373543462,
0.07561097256857856,0.055265010015482736,
0.07566084788029925,0.045031467014197205,
0.07571072319201995,0.049832835874390684,
0.07576059850374064,0.01721908268668973,
0.07581047381546134,0.04251454693785376,
0.07586034912718205,0.04940351915398088,
0.07591022443890275,0.017561438150552826,
0.07596009975062344,0.009897693923718521,
0.07600997506234414,0.03214264972721561,
0.07605985037406483,0.017401366028573482,
0.07610972568578554,0.013171649848228653,
0.07615960099750624,0.010032782162840525,
0.07620947630922693,0.05667634260405417,
0.07625935162094763,0.022719555611077517,
0.07630922693266833,0.013089350143468192,
0.07635910224438902,0.012060470783334498,
0.07640897755610973,0.04977503631003737,
0.07645885286783043,0.04215833728326631,
0.07650872817955112,0.023143891365711763,
0.07655860349127182,0.020012939295018455,
0.07660847880299251,0.016267956510528436,
0.07665835411471322,0.041822028423064254,
0.07670822942643392,0.026305618951323995,
0.07675810473815461,0.014784262435218359,
0.07680798004987531,0.01525344837534858,
0.076857855361596,0.027327347183741146,
0.0769077306733167,0.039371765233596416,
0.07695760598503741,0.05110822318888606,
0.0770074812967581,0.03927368934795296,
0.0770573566084788,0.035073640884322674,
0.0771072319201995,0.050999079956613666,
0.0771571072319202,0.033065861998368334,
0.0772069825436409,0.023770496093307336,
0.0772568578553616,0.033920990031584615,
0.0773067331670823,-0.01916258251100331,
0.07735660847880299,0.03660617423746385,
0.07740648379052369,0.023658699698794652,
0.0774563591022444,0.031167812382134088,
0.07750623441396509,0.011958857768609586,
0.07755610972568579,0.02665869684782701,
0.07760598503740648,0.014201758063536104,
0.07765586034912718,0.0006810340581714612,
0.07770573566084787,0.01399710175920265,
0.07775561097256858,-0.010490975972998935,
0.07780548628428928,0.01179837029351792,
0.07785536159600998,0.005236677621373628,
0.07790523690773067,0.022544274030854697,
0.07795511221945137,0.00291023993286044,
0.07800498753117208,0.038905155128413464,
0.07805486284289277,0.01675829955294896,
0.07810473815461347,0.035945870071374064,
0.07815461346633416,0.019793555236581405,
0.07820448877805486,0.03407806214085346,
0.07825436408977555,0.011995076004439628,
0.07830423940149626,0.01247744825189002,
0.07835411471321696,0.05824379025205569,
0.07840399002493766,0.02162061965251592,
0.07845386533665835,0.011111982829691794,
0.07850374064837905,0.04766357633298022,
0.07855361596009976,0.04942523546224813,
0.07860349127182045,0.020403384788456932,
0.07865336658354115,0.011205744143061322,
0.07870324189526184,0.013777780132762884,
0.07875311720698254,0.05033122396799431,
0.07880299251870324,0.01248211376299771,
0.07885286783042394,0.013682798059628003,
0.07890274314214464,0.021348088286578384,
0.07895261845386534,0.028069194049574364,
0.07900249376558603,0.013129452420089602,
0.07905236907730673,0.01004447599403595,
0.07910224438902744,0.012415451420243351,
0.07915211970074813,-0.002833504541351197,
0.07920199501246883,0.0294724719799328,
0.07925187032418952,0.03427689955293396,
0.07930174563591022,0.02945072231230554,
0.07935162094763092,0.027700972078413204,
0.07940149625935163,0.010578514704695778,
0.07945137157107232,0.03884192358403943,
0.07950124688279302,0.010190471871622067,
0.07955112219451371,0.008513416834020262,
0.07960099750623441,-0.025815849964553394,
0.07965087281795512,0.013318475984410588,
0.07970074812967581,0.009089915469484405,
0.07975062344139651,-0.001252214683061208,
0.0798004987531172,0.00613306697842189,
0.0798503740648379,-0.0017650450034218512,
0.07990024937655861,0.010129349102660888,
0.0799501246882793,0.017792556454995296,
0.08,0.02199820232345695,
0.0800498753117207,-0.010142551822932484,
0.0800997506234414,-0.03037644372692913,
0.08014962593516209,0.01549127558728276,
0.0801995012468828,0.027694547838533014,
0.0802493765586035,-0.006356656685515624,
0.08029925187032419,0.0024345983549374775,
0.08034912718204489,-0.01429251186554195,
0.08039900249376558,0.010883794610372631,
0.08044887780548629,-0.0030982469646506014,
0.08049875311720699,-0.005865269733941676,
0.08054862842892768,0.004047132279300838,
0.08059850374064838,0.031972258665901004,
0.08064837905236907,-0.020325135250849224,
0.08069825436408977,-0.0014334079612317611,
0.08074812967581048,0.02437843544585149,
0.08079800498753117,0.020752162084242763,
0.08084788029925187,0.008790552878068023,
0.08089775561097257,-0.01276235026963854,
0.08094763092269326,-0.006232517316670665,
0.08099750623441397,0.0333946934231999,
0.08104738154613467,0.02778971728049329,
0.08109725685785536,0.007876666925665927,
0.08114713216957606,0.0058704995563204935,
0.08119700748129675,0.008806030554198145,
0.08124688279301745,-0.023322250608748693,
0.08129675810473816,0.001068567258912362,
0.08134663341645886,-0.012560904413962931,
0.08139650872817955,0.010441952113618015,
0.08144638403990025,0.032177463847552316,
0.08149625935162094,0.0004913909005849185,
0.08154613466334165,0.002750864830970569,
0.08159600997506235,0.0301537201877131,
0.08164588528678304,0.0023585388721948553,
0.08169576059850374,-0.001805076802573062,
0.08174563591022443,-0.025984708915404695,
0.08179551122194513,0.012929573246968282,
0.08184538653366584,-0.02100986081295986,
0.08189526184538654,0.007573724139543248,
0.08194513715710723,-0.013922952501210157,
0.08199501246882793,-0.017355644304720027,
0.08204488778054862,-0.024644792055375148,
0.08209476309226933,0.00124141974669904,
0.08214463840399003,0.021003281328187594,
0.08219451371571072,-0.020174828445538317,
0.08224438902743142,0.007724753190939442,
0.08229426433915212,0.004204446951998119,
0.08234413965087282,-0.015279011781796062,
0.08239401496259352,-0.02789858950966338,
0.08244389027431422,0.009719891704783809,
0.08249376558603491,-0.018703430495530693,
0.08254364089775561,-0.026042830143274177,
0.0825935162094763,-0.0375493057986088,
0.08264339152119701,-0.014665989430681776,
0.08269326683291771,-0.011880881044139906,
0.0827431421446384,-0.017293965042412693,
0.0827930174563591,0.01554957077045555,
0.0828428927680798,-0.00567191341463882,
0.0828927680798005,0.010618745122947922,
0.0829426433915212,-0.016373069972133024,
0.0829925187032419,-0.006782113852282004,
0.08304239401496259,-0.02382044658895094,
0.08309226932668329,-0.029622487007567866,
0.08314214463840398,-0.021468960079692265,
0.0831920199501247,-0.014075384102232809,
0.08324189526184539,-0.012489980982261896,
0.08329177057356608,0.007247911775249571,
0.08334164588528678,-0.0037418204533232182,
0.08339152119700748,0.002439013251338447,
0.08344139650872819,-0.025655859267711405,
0.08349127182044888,-0.043434087997936306,
0.08354114713216958,0.003451622689835383,
0.08359102244389027,-0.018126771534807365,
0.08364089775561097,0.005556736036731132,
0.08369077306733166,-0.016538364474297677,
0.08374064837905237,-0.02692375702911572,
0.08379052369077307,-0.021314746746299185,
0.08384039900249377,-0.00796519955169591,
0.08389027431421446,-0.01265061199908225,
0.08394014962593516,-0.007098545301129541,
0.08399002493765587,0.013702346495428466,
0.08403990024937656,0.0012686807296580314,
0.08408977556109726,-0.019590967272738728,
0.08413965087281795,-0.0029908467609459565,
0.08418952618453865,0.00037418272336435347,
0.08423940149625936,-0.01681388688060803,
0.08428927680798005,-0.04327161012867002,
0.08433915211970075,0.00577219536405936,
0.08438902743142145,-0.015785514892890137,
0.08443890274314214,-0.01204808577790373,
0.08448877805486284,-0.024995415451750054,
0.08453865336658355,-0.0009296402464667192,
0.08458852867830424,-0.028398103889985732,
0.08463840399002494,-0.011824651041883022,
0.08468827930174563,-0.024595012941696325,
0.08473815461346633,-0.026409453207352863,
0.08478802992518704,-0.011279681498856348,
0.08483790523690773,0.006803176074754514,
0.08488778054862843,-0.015339807437172033,
0.08493765586034913,-0.023864948637701378,
0.08498753117206982,-0.002434403927204846,
0.08503740648379052,-0.01488382834997339,
0.08508728179551123,-0.010980717033390586,
0.08513715710723192,-0.004044105413050758,
0.08518703241895262,-0.019353336536644786,
0.08523690773067331,-0.0456405815822018,
0.08528678304239401,-0.008244805623231165,
0.08533665835411472,-0.0016187864002728172,
0.08538653366583542,-0.01623073146399047,
0.08543640897755611,-0.007784387164396999,
0.0854862842892768,8.607013569449443e-05,
0.0855361596009975,-0.016223015588851378,
0.0855860349127182,-0.028118226837601904,
0.08563591022443891,-0.0038742772552940227,
0.0856857855361596,0.0034696435871630037,
0.0857356608478803,-0.032497674963044704,
0.085785536159601,-0.023827481757953378,
0.08583541147132169,-0.02544773624760651,
0.0858852867830424,-0.030203519519605176,
0.0859351620947631,0.011015618680335227,
0.08598503740648379,0.015735567909232966,
0.08603491271820449,-0.03660334387838353,
0.08608478802992518,-0.04527279236230353,
0.08613466334164588,-0.0029533641159123544,
0.08618453865336659,-0.016681043811884795,
0.08623441396508728,0.01343925275847102,
0.08628428927680798,-0.02343921025078026,
0.08633416458852868,-0.025251909716268187,
0.08638403990024937,-0.007567407783989968,
0.08643391521197008,-0.015915964328850944,
0.08648379052369078,-0.032566753984278454,
0.08653366583541147,-0.006563029278932464,
0.08658354114713217,-0.024508901533378338,
0.08663341645885286,-0.01067947083497915,
0.08668329177057357,-0.012972917345684324,
0.08673316708229427,-0.005165304911158852,
0.08678304239401496,-0.019982826880894738,
0.08683291770573566,0.0006388202610880037,
0.08688279301745636,-0.024160324254123546,
0.08693266832917705,-0.018364984269948217,
0.08698254364089776,-0.0051902385426392745,
0.08703241895261846,-0.0025011768744944395,
0.08708229426433915,-0.03586173256654559,
0.08713216957605985,-0.018343264180594,
0.08718204488778054,-0.01992920238675802,
0.08723192019950125,-0.01372774162595597,
0.08728179551122195,-0.009126752743127298,
0.08733167082294264,-0.020427165304360194,
0.08738154613466334,-0.015359128535645705,
0.08743142144638404,-0.005337487700003181,
0.08748129675810473,-0.030259424443648462,
0.08753117206982544,-0.011475805416420464,
0.08758104738154614,-0.017385404108783288,
0.08763092269326683,0.003453547360223942,
0.08768079800498753,-0.02854705485495826,
0.08773067331670822,-0.0240918014844366,
0.08778054862842893,0.02339222769574163,
0.08783042394014963,-0.010598227333535614,
0.08788029925187033,-0.014864590996808282,
0.08793017456359102,-0.028046764696968384,
0.08798004987531172,-0.006035829443718216,
0.08802992518703241,-0.002000257897052231,
0.08807980049875312,-0.01477905812382201,
0.08812967581047382,-0.010830641278173044,
0.08817955112219451,0.001092085958964057,
0.08822942643391521,0.011893276184543505,
0.0882793017456359,-0.008236264890236777,
0.08832917705735661,-0.03234825244472784,
0.08837905236907731,-0.013855474450252456,
0.088428927680798,-0.01181078984869825,
0.0884788029925187,-0.011241555549230873,
0.0885286783042394,-0.034572059897259234,
0.0885785536159601,-0.0038680831611032002,
0.0886284289276808,-0.007718198541216093,
0.0886783042394015,0.0004206148896393827,
0.0887281795511222,-0.004961769880831168,
0.08877805486284289,0.007491722167279991,
0.08882793017456359,-0.01663628884667578,
0.0888778054862843,0.0030878103732256577,
0.08892768079800499,-0.02834825615232378,
0.08897755610972569,-0.00477227037877953,
0.08902743142144638,-0.002148955516346659,
0.08907730673316708,0.02013534515673416,
0.08912718204488779,-0.016212946367726567,
0.08917705735660848,0.01910042102666139,
0.08922693266832918,0.0029400847763409958,
0.08927680798004987,0.0023942926729151473,
0.08932668329177057,-0.001353409324500229,
0.08937655860349127,-0.0085281973411708,
0.08942643391521198,0.02166681973815446,
0.08947630922693267,-0.011290532935937524,
0.08952618453865337,-0.008735068776576071,
0.08957605985037406,-0.017673685177350663,
0.08962593516209476,0.003766662952847161,
0.08967581047381547,-0.025230163289295206,
0.08972568578553616,0.02304002445539751,
0.08977556109725686,-0.025448467695933584,
0.08982543640897755,0.011731146199663782,
0.08987531172069825,0.008784317787753865,
0.08992518703241895,-0.017449717121489267,
0.08997506234413966,0.019588291125291087,
0.09002493765586035,-0.02609671092246039,
0.09007481296758105,0.01423920047942208,
0.09012468827930174,0.028468871274655087,
0.09017456359102244,0.0035264444294583327,
0.09022443890274315,-0.006093153421589452,
0.09027431421446384,-0.03319486783242139,
0.09032418952618454,-0.02343034698648313,
0.09037406483790524,-0.038383995793869585,
0.09042394014962593,0.010469876920206993,
0.09047381546134663,0.0250611386843054,
0.09052369077306734,0.025113175567320394,
0.09057356608478803,0.008096198570897275,
0.09062344139650873,-0.007579069614942221,
0.09067331670822942,-0.0038407013631135342,
0.09072319201995012,0.022454223765672698,
0.09077306733167083,-0.025528417694367613,
0.09082294264339152,0.007475171973691735,
0.09087281795511222,0.009048059761853567,
0.09092269326683292,0.007574289859220233,
0.09097256857855361,0.02010231598069038,
0.09102244389027432,-0.0011619248333964941,
0.09107231920199502,0.01027420292875785,
0.09112219451371571,-0.016526524887033885,
0.09117206982543641,0.005797961811374707,
0.0912219451371571,-0.013147088601192987,
0.0912718204488778,0.009786214217167723,
0.09132169576059851,0.0028142087450065837,
0.0913715710723192,0.023424912724611346,
0.0914214463840399,0.02413040705408151,
0.0914713216957606,0.020932427903300542,
0.09152119700748129,0.024150612977136922,
0.091571072319202,-0.015437388676987879,
0.0916209476309227,-0.007868665890507399,
0.09167082294264339,0.0023503638472588233,
0.09172069825436409,-0.0018668301628608202,
0.09177057356608478,0.008771588111062928,
0.09182044887780548,0.036419617123370794,
0.09187032418952619,0.01605866104785499,
0.09192019950124689,0.009963133149679206,
0.09197007481296758,0.013704112219328969,
0.09201995012468828,0.014280488805933833,
0.09206982543640897,0.01368620441734636,
0.09211970074812968,0.032474368582304944,
0.09216957605985038,-0.006083149618967535,
0.09221945137157107,0.01802043550955137,
0.09226932668329177,0.02403720413497802,
0.09231920199501246,-0.011200505657037063,
0.09236907730673316,0.022651677293456213,
0.09241895261845387,0.026910748699919322,
0.09246882793017457,-0.0024375897795653224,
0.09251870324189526,0.03729973510242582,
0.09256857855361596,0.007748853991684413,
0.09261845386533665,0.01259841414699411,
0.09266832917705736,0.03419544650544078,
0.09271820448877806,0.0022785841743379245,
0.09276807980049875,0.00785594227240902,
0.09281795511221945,0.03493281376005383,
0.09286783042394015,0.03368064993809475,
0.09291770573566084,0.02976786024339944,
0.09296758104738155,0.009849171314038094,
0.09301745635910225,0.02731873715867759,
0.09306733167082294,0.0055010680641912665,
0.09311720698254364,0.04607746900364584,
0.09316708229426433,0.019291688821680537,
0.09321695760598504,0.02871379659808409,
0.09326683291770574,0.04259489787884935,
0.09331670822942643,0.014349893880116574,
0.09336658354114713,0.03709366653313067,
0.09341645885286783,0.015538729319503543,
0.09346633416458854,0.013709374782324058,
0.09351620947630923,0.024351083242841087,
0.09356608478802993,0.013626820493899789,
0.09361596009975062,0.04346359792906075,
0.09366583541147132,0.03386512318412896,
0.09371571072319201,0.025151090546249578,
0.09376558603491272,0.023842489317403716,
0.09381546134663342,0.018310752984280115,
0.09386533665835411,0.01237729753779993,
0.09391521197007481,0.02159570543291628,
0.0939650872817955,0.0002836151968942588,
0.09401496259351622,0.002590797601332639,
0.09406483790523691,0.02982837161472606,
0.09411471321695761,0.06006043718001347,
0.0941645885286783,0.007415076436140384,
0.094214463840399,0.017119748121143124,
0.0942643391521197,0.003035605979591169,
0.0943142144638404,0.01619572397649229,
0.0943640897755611,0.02765297647613842,
0.0944139650872818,0.026399341075024958,
0.09446384039900249,0.019654027055801056,
0.09451371571072319,0.005473549238177101,
0.0945635910224439,0.022784120755292403,
0.09461346633416459,-0.003254010459293622,
0.09466334164588529,0.034599433969189006,
0.09471321695760598,0.014551696608524829,
0.09476309226932668,0.0345397288189271,
0.09481296758104737,0.03768597125724358,
0.09486284289276808,0.04864125000585749,
0.09491271820448878,0.04341136586041559,
0.09496259351620948,0.0397284571308112,
0.09501246882793017,0.029758663850218477,
0.09506234413965087,0.05400438518724261,
0.09511221945137158,0.03901910386044337,
0.09516209476309227,0.014999499939984272,
0.09521197007481297,0.03267587338519153,
0.09526184538653366,0.021904901573526824,
0.09531172069825436,0.03626756833551702,
0.09536159600997507,0.02777038777971892,
0.09541147132169576,0.027891787464142385,
0.09546134663341646,0.009082832745919103,
0.09551122194513716,0.04784973789289919,
0.09556109725685785,0.020302228917539075,
0.09561097256857855,0.032442381482797385,
0.09566084788029926,0.030671744211974602,
0.09571072319201995,0.02662378960194699,
0.09576059850374065,0.02104911950816173,
0.09581047381546134,0.01840275869730259,
0.09586034912718204,0.03905884511883201,
0.09591022443890275,0.026147312844522357,
0.09596009975062345,0.044074007420138214,
0.09600997506234414,0.019711834440609942,
0.09605985037406484,0.02685153504071396,
0.09610972568578553,0.03960838461916446,
0.09615960099750623,0.052513814548557664,
0.09620947630922694,0.02758399596799912,
0.09625935162094763,0.029073576041043193,
0.09630922693266833,0.038938412106266,
0.09635910224438902,0.06434931480611011,
0.09640897755610972,0.019655069276262063,
0.09645885286783043,0.009738576915613053,
0.09650872817955113,-0.008361581562367722,
0.09655860349127182,0.01394843390664638,
0.09660847880299252,0.014395434618074254,
0.09665835411471321,0.016096587694263267,
0.09670822942643391,0.0414948827678215,
0.09675810473815462,0.02159522570008663,
0.09680798004987531,0.020216183179432436,
0.09685785536159601,0.014492737570166765,
0.0969077306733167,0.03331115087738168,
0.0969576059850374,0.06346462659356748,
0.09700748129675811,0.03637125740312368,
0.0970573566084788,0.02446757327511531,
0.0971072319201995,0.027047985814141536,
0.0971571072319202,0.035861970135761194,
0.0972069825436409,0.016350375784897803,
0.09725685785536159,0.02391395758790421,
0.0973067331670823,0.025426683114698586,
0.097356608478803,0.021014208554183234,
0.09740648379052369,0.022607479455753268,
0.09745635910224439,0.01875525302943838,
0.09750623441396508,0.020923587572396533,
0.09755610972568579,0.043858771328114964,
0.09760598503740649,0.006895414672695034,
0.09765586034912718,0.03959552738143266,
0.09770573566084788,0.03289193660678312,
0.09775561097256857,0.021119383305559448,
0.09780548628428928,0.008613474893178553,
0.09785536159600998,0.006880537708213907,
0.09790523690773068,0.05379561466418603,
0.09795511221945137,0.022627123480860833,
0.09800498753117207,0.012606319965709753,
0.09805486284289276,-0.003476218276335527,
0.09810473815461347,0.04046131808525951,
0.09815461346633417,0.0281411728122712,
0.09820448877805486,0.031012059433353403,
0.09825436408977556,0.029080246186368258,
0.09830423940149625,0.014113449985970708,
0.09835411471321696,0.027534558111077866,
0.09840399002493766,0.020305427363952924,
0.09845386533665836,0.02659925811895768,
0.09850374064837905,0.053751037240282504,
0.09855361596009975,0.022979117706007305,
0.09860349127182044,0.016252590629758375,
0.09865336658354115,0.008670508396590303,
0.09870324189526185,0.008314846077434067,
0.09875311720698254,0.02752280917902626,
0.09880299251870324,0.025879937416400527,
0.09885286783042393,0.025888781695052505,
0.09890274314214464,-0.00974959979824078,
0.09895261845386534,0.009038321522990264,
0.09900249376558604,0.0038588902796180893,
0.09905236907730673,0.02293583008690468,
0.09910224438902743,0.03104159813504148,
0.09915211970074812,0.03378514071508196,
0.09920199501246883,0.012846739135976622,
0.09925187032418953,0.018500734005912782,
0.09930174563591022,0.02227786569557863,
0.09935162094763092,0.011079361058058294,
0.09940149625935162,0.012192524128024771,
0.09945137157107233,0.013018421356752616,
0.09950124688279302,0.042295767803011544,
0.09955112219451372,0.020940425819524103,
0.09960099750623441,0.0044337768291462295,
0.09965087281795511,0.01828884201459104,
0.0997007481296758,0.011884305245437855,
0.09975062344139651,0.002134816250033575,
0.09980049875311721,-0.004521055310383888,
0.0998503740648379,0.010868125111997556,
0.0999002493765586,0.02855928779953837,
0.0999501246882793,0.015295396244423675,
0.1,-0.014803460042063721,
0.1000498753117207,0.036906863726498915,
0.1000997506234414,0.00868100265026879,
0.10014962593516209,0.01581935267359992,
0.10019950124688279,-0.006753261159350458,
0.1002493765586035,0.01813592057844127,
0.1002992518703242,0.026165207596882723,
0.10034912718204489,-0.009376815974434002,
0.10039900249376559,0.015313954747825844,
0.10044887780548628,0.016931660356015503,
0.10049875311720698,0.017139945918302747,
0.10054862842892769,-0.01276875804807896,
0.10059850374064838,-0.004719986833961066,
0.10064837905236908,0.01364936943485904,
0.10069825436408977,0.022585308947076548,
0.10074812967581047,0.02966144537726835,
0.10079800498753118,0.007990293735818053,
0.10084788029925187,0.02154447044939655,
0.10089775561097257,-0.0015388692821207807,
0.10094763092269327,-0.0034799346980158357,
0.10099750623441396,-0.017273639936494438,
0.10104738154613466,0.06014071857218791,
0.10109725685785537,0.006080630790761787,
0.10114713216957606,0.029321237414046974,
0.10119700748129676,0.014634828344730056,
0.10124688279301745,-0.010532872413418838,
0.10129675810473815,-0.01446095707452889,
0.10134663341645886,0.011547848586267753,
0.10139650872817955,-0.01069840263875664,
0.10144638403990025,0.02057237660251273,
0.10149625935162095,0.0404597453623129,
0.10154613466334164,-0.03377469853458845,
0.10159600997506234,-0.005757824909386919,
0.10164588528678305,0.0007046105341928237,
0.10169576059850374,-0.01818805653611887,
0.10174563591022444,0.002842938686206875,
0.10179551122194513,0.009991821812162686,
0.10184538653366583,0.03667436322159984,
0.10189526184538654,0.026401551595842822,
0.10194513715710724,0.011314322601434487,
0.10199501246882793,0.028189588552189487,
0.10204488778054863,0.004006456722134268,
0.10209476309226932,-0.01677987181174161,
0.10214463840399003,0.00558220736988148,
0.10219451371571073,0.006082362436795083,
0.10224438902743142,-0.009319343611702537,
0.10229426433915212,0.005634356006722303,
0.10234413965087281,-0.012415512117352916,
0.10239401496259351,-0.014774839895184994,
0.10244389027431422,-0.009065953091764369,
0.10249376558603492,-0.014622074023156035,
0.10254364089775561,-0.018314121960654392,
0.10259351620947631,-0.0058205505114048706,
0.102643391521197,-0.0178739085240978,
0.10269326683291771,-0.010110635613732728,
0.10274314214463841,0.00012169946087703084,
0.1027930174563591,0.020314618568323613,
0.1028428927680798,-0.009424709089455953,
0.1028927680798005,0.005012096127375121,
0.10294264339152119,-0.004581432714728053,
0.1029925187032419,-0.0022230802229590697,
0.1030423940149626,0.01245870346551248,
0.10309226932668329,-0.013806531320317396,
0.10314214463840399,-0.017270976529519127,
0.10319201995012468,-0.014932103218256203,
0.10324189526184539,-0.013036407791949967,
0.10329177057356609,0.003208707312675985,
0.10334164588528678,-0.006713372895698118,
0.10339152119700748,-0.021794174727305587,
0.10344139650872818,-0.03892133797218133,
0.10349127182044887,0.011224956207370778,
0.10354114713216958,-0.009868771207859069,
0.10359102244389028,-0.004808752510669203,
0.10364089775561097,-0.022927133799642417,
0.10369077306733167,-0.010549112288579668,
0.10374064837905236,-0.012377517924019983,
0.10379052369077307,0.05258968046166208,
0.10384039900249377,0.00739702422607141,
0.10389027431421446,0.009750465988185061,
0.10394014962593516,-0.01633005671581369,
0.10399002493765586,-0.00846725516641717,
0.10403990024937655,0.0053416904238341115,
0.10408977556109726,-0.03128333314121658,
0.10413965087281796,0.012181617480568833,
0.10418952618453865,0.0007862346406789181,
0.10423940149625935,-0.0045592401415016455,
0.10428927680798004,-0.01370139754614386,
0.10433915211970075,-0.03503912547194704,
0.10438902743142145,-0.025631657879090837,
0.10443890274314215,0.017250759300216884,
0.10448877805486284,0.005349757111950721,
0.10453865336658354,0.00024872032413992065,
0.10458852867830425,0.0011097792874234617,
0.10463840399002494,-0.025068991575960604,
0.10468827930174564,0.004288030333102162,
0.10473815461346633,-0.021288158639314055,
0.10478802992518703,-0.014878718068251893,
0.10483790523690772,-0.0049578877989093235,
0.10488778054862843,-0.01960112627754928,
0.10493765586034913,-0.028758377260804754,
0.10498753117206983,0.004706463877950035,
0.10503740648379052,-0.02417145101383511,
0.10508728179551122,-0.007814733872148677,
0.10513715710723193,0.010063055196222437,
0.10518703241895262,-0.012343551428495851,
0.10523690773067332,-0.03290605423796519,
0.10528678304239401,0.0036357297532549366,
0.10533665835411471,-0.014360758746984583,
0.1053865336658354,-0.003071594924190806,
0.10543640897755611,-0.0161585284916498,
0.10548628428927681,-0.013735634923014904,
0.1055361596009975,-0.002438961541570814,
0.1055860349127182,-0.011756361999570739,
0.1056359102244389,-0.012056265474683695,
0.10568578553615961,-0.031617029021226685,
0.1057356608478803,-0.021643842980379642,
0.105785536159601,-0.0068769584269116005,
0.1058354114713217,-0.007445488361369643,
0.10588528678304239,-0.003622082080092362,
0.10593516209476309,-0.027107521737376104,
0.1059850374064838,-0.004089870030304027,
0.10603491271820449,0.007945027517223428,
0.10608478802992519,-0.010976730788085623,
0.10613466334164588,-0.027156280260701066,
0.10618453865336658,-0.002078531195789825,
0.10623441396508729,-0.021137946715588482,
0.10628428927680798,0.010276126926414109,
0.10633416458852868,0.012302422019274265,
0.10638403990024937,-0.03189037485970375,
0.10643391521197007,-0.012116082519744116,
0.10648379052369077,0.0057872913011910755,
0.10653366583541148,-0.02877170226197737,
0.10658354114713217,-0.01461469463940356,
0.10663341645885287,-0.027440291307134386,
0.10668329177057356,0.0023439411044700164,
0.10673316708229426,0.028050404810016437,
0.10678304239401497,0.00555933182433244,
0.10683291770573566,-0.02817626884970823,
0.10688279301745636,-0.0036775090555692938,
0.10693266832917706,0.006137844884419498,
0.10698254364089775,-0.017085360824556695,
0.10703241895261846,-0.02316286165363052,
0.10708229426433916,-0.022763155235415337,
0.10713216957605985,-0.006153621706496762,
0.10718204488778055,-0.013056923421334708,
0.10723192019950124,0.002789868602179422,
0.10728179551122194,-0.023440245119258855,
0.10733167082294265,-0.010844779954226084,
0.10738154613466334,-0.03706005519207396,
0.10743142144638404,0.006233955163260578,
0.10748129675810474,0.0025414775238253254,
0.10753117206982543,-0.03420037083479169,
0.10758104738154614,-0.02852670618668746,
0.10763092269326684,-0.00423181601077572,
0.10768079800498753,0.004994566664938187,
0.10773067331670823,0.0012383622932602336,
0.10778054862842892,-0.021646517799487876,
0.10783042394014962,0.008032262526422038,
0.10788029925187033,0.0005332316968526714,
0.10793017456359102,-0.012050445821415514,
0.10798004987531172,0.03607654915195954,
0.10802992518703242,-0.012493386566437479,
0.10807980049875311,-0.01892791568381339,
0.10812967581047382,-0.02397009645466785,
0.10817955112219452,-0.01102029616486138,
0.10822942643391521,-0.016812475965193488,
0.10827930174563591,-0.009231116499775247,
0.1083291770573566,-0.010522928132922448,
0.1083790523690773,-0.01256150443240318,
0.10842892768079801,0.0048785585561363955,
0.1084788029925187,-0.019784567117800054,
0.1085286783042394,-0.031204985471711754,
0.1085785536159601,-0.02309873119193513,
0.10862842892768079,-0.025173875576354435,
0.1086783042394015,0.006426427832646707,
0.1087281795511222,-0.013991015017748364,
0.1087780548628429,-0.03284655549968861,
0.10882793017456359,0.020711089166707452,
0.10887780548628428,-0.005593059673098991,
0.108927680798005,0.0008411235180345797,
0.10897755610972569,-0.004517822636586958,
0.10902743142144639,-0.009136339409460136,
0.10907730673316708,0.003933501061682378,
0.10912718204488778,-0.022682389598516074,
0.10917705735660847,-0.006804993084796357,
0.10922693266832918,0.004613366773893979,
0.10927680798004988,-0.007316238631491348,
0.10932668329177057,-0.017331849456971426,
0.10937655860349127,0.00802591740057731,
0.10942643391521197,-0.010178846358807022,
0.10947630922693267,-0.0027929045836238716,
0.10952618453865337,-0.00048129978492914813,
0.10957605985037407,-0.015484269891061837,
0.10962593516209476,0.013702428667578686,
0.10967581047381546,-0.016666087244490153,
0.10972568578553615,0.002329199521899679,
0.10977556109725686,-0.012546797809496836,
0.10982543640897756,0.01662586382541313,
0.10987531172069825,-0.01668085247792944,
0.10992518703241895,0.017523279041442325,
0.10997506234413965,-0.009568064263736398,
0.11002493765586036,0.013465825880942667,
0.11007481296758105,-0.00949950183160704,
0.11012468827930175,0.029930025522949547,
0.11017456359102244,-0.004719646526307721,
0.11022443890274314,-0.00971326842137283,
0.11027431421446383,0.017278795395347255,
0.11032418952618454,-0.024855622373667795,
0.11037406483790524,-0.01593929840473368,
0.11042394014962593,-0.014657073840297422,
0.11047381546134663,0.013421444345595116,
0.11052369077306733,-0.00747175468372052,
0.11057356608478804,-0.014882269235042241,
0.11062344139650873,-0.017540734496444218,
0.11067331670822943,0.02355259059258429,
0.11072319201995012,0.005108573025065578,
0.11077306733167082,0.016397522918383763,
0.11082294264339151,0.006664694974926641,
0.11087281795511222,-0.005616964847312403,
0.11092269326683292,0.0006640744037196434,
0.11097256857855362,0.011971776005485817,
0.11102244389027431,-0.007311479423652583,
0.111072319201995,-0.004873246120731735,
0.11112219451371572,-0.006692217846588126,
0.11117206982543641,0.001539949593997723,
0.11122194513715711,-0.003808806965635689,
0.1112718204488778,0.027697458506849418,
0.1113216957605985,0.03909258042531987,
0.11137157107231921,0.011066736001724078,
0.1114214463840399,0.019664172126130662,
0.1114713216957606,0.007562770144666219,
0.1115211970074813,0.029009753331779565,
0.11157107231920199,0.001098977056230882,
0.11162094763092269,0.014489631232847895,
0.1116708229426434,-0.013039888257124838,
0.11172069825436409,0.009217668621603005,
0.11177057356608479,0.020577262225396166,
0.11182044887780548,-0.011153294926015241,
0.11187032418952618,0.017228165714804615,
0.11192019950124689,0.014030734244510778,
0.11197007481296758,0.04683222968724583,
0.11201995012468828,-0.010371407772259946,
0.11206982543640898,0.04026924202846345,
0.11211970074812967,0.01644680576456264,
0.11216957605985037,0.01462109044766792,
0.11221945137157108,0.030588688298952303,
0.11226932668329177,0.03352486359301346,
0.11231920199501247,0.0002382444754183699,
0.11236907730673316,-0.005195362144288691,
0.11241895261845386,0.027569054550079825,
0.11246882793017457,0.021122184976666382,
0.11251870324189527,0.002526824939849192,
0.11256857855361596,0.019724242728912267,
0.11261845386533666,0.02476327920324086,
0.11266832917705735,0.02186450745863555,
0.11271820448877805,0.016066028035882945,
0.11276807980049876,-0.0037582330074093055,
0.11281795511221945,0.020144577278141253,
0.11286783042394015,0.011746013328957387,
0.11291770573566084,-0.014515507684030034,
0.11296758104738154,0.038743484756884994,
0.11301745635910225,-0.0023716261028765145,
0.11306733167082295,0.033847454867296206,
0.11311720698254364,0.02401642478542427,
0.11316708229426434,0.031052832810344565,
0.11321695760598503,0.01877443007889687,
0.11326683291770574,0.02408149136346293,
0.11331670822942644,0.045020197244916835,
0.11336658354114713,0.00408619949668413,
0.11341645885286783,0.016516937306329114,
0.11346633416458853,0.025434612818083794,
0.11351620947630922,0.029056622248870942,
0.11356608478802993,0.013407862425640777,
0.11361596009975063,0.026200174705400602,
0.11366583541147132,0.03746027025441966,
0.11371571072319202,0.03529490543054685,
0.11376558603491271,-0.00020432633669441314,
0.11381546134663342,0.004826379044855673,
0.11386533665835412,0.051958573233650066,
0.11391521197007481,0.022562597711645507,
0.11396508728179551,0.03629393421248081,
0.1140149625935162,0.027521521643197322,
0.1140648379052369,0.025116055217099836,
0.11411471321695761,0.037063522872504875,
0.1141645885286783,0.03086419340027723,
0.114214463840399,0.01578373052764037,
0.1142643391521197,0.02026167476300699,
0.1143142144638404,0.057340858364774,
0.1143640897755611,0.018860323034950284,
0.1144139650872818,0.017677281285167514,
0.1144638403990025,0.008551573960023102,
0.11451371571072319,0.028376542382409768,
0.11456359102244389,0.04367197591512366,
0.11461346633416458,0.012421940418400133,
0.11466334164588529,0.014928358772514212,
0.11471321695760599,0.059154911546519896,
0.11476309226932668,0.06030375330786752,
0.11481296758104738,0.030292402643688005,
0.11486284289276807,0.037014262410925675,
0.11491271820448878,0.05520532335183158,
0.11496259351620948,0.02901905258365523,
0.11501246882793018,0.007188972762878599,
0.11506234413965087,0.0215894939443449,
0.11511221945137157,0.03742862804579193,
0.11516209476309226,0.038278389364540436,
0.11521197007481297,0.03439688590008114,
0.11526184538653367,0.017784743861913657,
0.11531172069825436,0.033195981590530464,
0.11536159600997506,0.029396589680993925,
0.11541147132169575,0.06523029272025437,
0.11546134663341646,0.027891779590215906,
0.11551122194513716,0.02834259723546243,
0.11556109725685786,0.03134805316649679,
0.11561097256857855,0.02998556150807118,
0.11566084788029925,0.023306088273458557,
0.11571072319201996,0.029171719210537114,
0.11576059850374065,0.03372821576994497,
0.11581047381546135,0.019023102939029653,
0.11586034912718204,0.027168317282799722,
0.11591022443890274,0.025266835821637287,
0.11596009975062344,0.03870409035051013,
0.11600997506234415,0.025390100735876775,
0.11605985037406484,0.023533925237419862,
0.11610972568578554,-0.009201436681895978,
0.11615960099750623,0.01918394245593224,
0.11620947630922693,0.029332009725162533,
0.11625935162094764,0.032660072022544166,
0.11630922693266833,0.03246752545884736,
0.11635910224438903,0.011584674375331123,
0.11640897755610972,0.015902140195577043,
0.11645885286783042,0.033201719380572814,
0.11650872817955112,0.021532355863978947,
0.11655860349127183,0.035662015985558154,
0.11660847880299252,0.020651793418648492,
0.11665835411471322,0.0183716265945436,
0.11670822942643391,0.04401270071601862,
0.11675810473815461,0.01653376794132721,
0.11680798004987532,0.009459728524772979,
0.11685785536159601,0.022022279213567166,
0.11690773067331671,0.019118102938904126,
0.1169576059850374,0.053902343731870354,
0.1170074812967581,0.03344600421964508,
0.1170573566084788,0.001877378050754528,
0.1171072319201995,0.047572930104667344,
0.1171571072319202,0.04373703237251853,
0.1172069825436409,0.02367244518675536,
0.1172568578553616,0.03477608656244575,
0.11730673316708229,0.011550989342674147,
0.117356608478803,0.0437503553600361,
0.1174064837905237,-0.00573428986974632,
0.11745635910224439,0.001523192715813991,
0.11750623441396509,0.04064108323329923,
0.11755610972568578,0.04714525951655085,
0.11760598503740648,0.00530987284366051,
0.11765586034912719,0.033544462702957197,
0.11770573566084788,0.01846090389875181,
0.11775561097256858,0.004960352943143946,
0.11780548628428927,0.04126725164475134,
0.11785536159600997,0.03615081326421925,
0.11790523690773068,0.03589212160122552,
0.11795511221945137,0.015568436200573481,
0.11800498753117207,0.012258171978129945,
0.11805486284289277,0.01922050889952588,
0.11810473815461346,0.0021245206610580117,
0.11815461346633417,0.019138100161819965,
0.11820448877805487,0.019381849802017306,
0.11825436408977556,0.03191256379721018,
0.11830423940149626,0.018534747324114066,
0.11835411471321695,0.021245832567909975,
0.11840399002493765,0.013346531436502393,
0.11845386533665836,0.023827484670935775,
0.11850374064837906,0.010179075291981745,
0.11855361596009975,0.03584559953637449,
0.11860349127182045,0.02502002188860438,
0.11865336658354114,0.024331837601768977,
0.11870324189526185,0.021775030057369613,
0.11875311720698255,0.03178819586196359,
0.11880299251870324,0.0350124851063267,
0.11885286783042394,0.0117798578388331,
0.11890274314214463,0.032502603989958356,
0.11895261845386533,0.006222223302560873,
0.11900249376558604,0.02384215090016781,
0.11905236907730674,0.014877623242970657,
0.11910224438902743,0.012015309260091814,
0.11915211970074813,0.030505826474806236,
0.11920199501246882,0.027654921774629006,
0.11925187032418953,0.03911928384492956,
0.11930174563591023,0.035795853264585314,
0.11935162094763092,0.03331102623357892,
0.11940149625935162,0.00981855942245172,
0.11945137157107232,0.023604179890348284,
0.11950124688279301,-0.016516999538049956,
0.11955112219451372,0.005865084259010302,
0.11960099750623442,0.010342983703133406,
0.11965087281795511,0.03047797652556499,
0.11970074812967581,-0.0009093125849584209,
0.1197506234413965,0.02565105374618777,
0.11980049875311721,0.040399959093590086,
0.11985037406483791,0.01582267904300435,
0.1199002493765586,-0.002236481419308954,
0.1199501246882793,0.032396763858598104,
0.12,0.011352226176153755,
0.1200498753117207,0.02371393770369062,
0.1200997506234414,-0.0038088689355002085,
0.1201496259351621,0.008872048786305632,
0.12019950124688279,0.013811854578539697,
0.12024937655860349,-0.005997843396135256,
0.12029925187032418,-0.004005831709111323,
0.1203491271820449,-0.008640557872293123,
0.12039900249376559,-0.005165288116741213,
0.12044887780548628,-0.004835422028405633,
0.12049875311720698,0.010011751685271367,
0.12054862842892768,0.0010368825917141493,
0.12059850374064839,0.014652492557632077,
0.12064837905236908,0.008893282875079674,
0.12069825436408978,0.03378851939023746,
0.12074812967581047,0.055025241753244705,
0.12079800498753117,0.011439407225455526,
0.12084788029925186,0.007027967268088025,
0.12089775561097257,0.010184523741833764,
0.12094763092269327,-0.013891213445162373,
0.12099750623441397,-0.03915309637441318,
0.12104738154613466,0.04918895996806381,
0.12109725685785536,0.003783667141216209,
0.12114713216957607,0.02921068679334713,
0.12119700748129676,-0.003534072482872198,
0.12124688279301746,0.024588004140414725,
0.12129675810473815,0.03568830048101879,
0.12134663341645885,0.006425767389995096,
0.12139650872817954,0.008716599318419456,
0.12144638403990025,0.003316415663135157,
0.12149625935162095,0.030839313627810915,
0.12154613466334165,0.00034230422327759767,
0.12159600997506234,-0.004713272395477304,
0.12164588528678304,-0.0009002654120653826,
0.12169576059850375,-0.01816589250079368,
0.12174563591022444,-0.005345532118643558,
0.12179551122194514,-0.004052563617180463,
0.12184538653366583,-0.020341975978648914,
0.12189526184538653,0.0014335337909685,
0.12194513715710723,-0.01615328533013906,
0.12199501246882793,0.008063050162218727,
0.12204488778054863,-0.012086087498963324,
0.12209476309226933,-0.003870240605142487,
0.12214463840399002,-0.00950343259209562,
0.12219451371571072,0.028956017228875783,
0.12224438902743143,0.005973990105446523,
0.12229426433915212,-0.014026203098121344,
0.12234413965087282,-0.005614048746984431,
0.12239401496259351,0.012385995909963575,
0.12244389027431421,-0.00486403437969545,
0.12249376558603492,-0.007613421786993442,
0.12254364089775562,0.0035790406465489,
0.12259351620947631,-0.005432136281542329,
0.122643391521197,-0.02778301925301184,
0.1226932668329177,0.007239946110529954,
0.1227431421446384,-0.0008582173080649922,
0.12279301745635911,-0.039062504809960534,
0.1228428927680798,0.027539336484139202,
0.1228927680798005,-0.015398977352514213,
0.1229426433915212,-0.02212499079706863,
0.12299251870324189,-0.010697591829142237,
0.1230423940149626,-0.015253041115305723,
0.1230922693266833,-0.007103305379361825,
0.12314214463840399,0.01716006206238193,
0.12319201995012469,0.01904341398406854,
0.12324189526184538,-0.03437419825930801,
0.12329177057356608,-0.00036070490067361544,
0.12334164588528679,0.012334904456140123,
0.12339152119700748,-0.002921769796532025,
0.12344139650872818,-0.006435903967205996,
0.12349127182044888,-0.009630717034289579,
0.12354114713216957,-0.023999429565527218,
0.12359102244389028,-0.0057954839437304945,
0.12364089775561098,0.01097132091896218,
0.12369077306733167,0.0338084735363158,
0.12374064837905237,-0.0012697896534803214,
0.12379052369077306,0.007057781904483173,
0.12384039900249376,-0.004772908780676899,
0.12389027431421447,-0.008418174003135763,
0.12394014962593516,-0.016693598368030922,
0.12399002493765586,-0.024555919873122525,
0.12403990024937656,-0.001281161734722546,
0.12408977556109725,-0.0024015615900308245,
0.12413965087281796,-0.02242782447677278,
0.12418952618453866,0.0058240484588814,
0.12423940149625935,-0.009925481785583662,
0.12428927680798005,-0.0018380762234844273,
0.12433915211970074,0.009876878711295814,
0.12438902743142144,-0.008668347576105458,
0.12443890274314215,-0.0355658428503701,
0.12448877805486284,-0.008803879836815862,
0.12453865336658354,-0.017102117587060886,
0.12458852867830424,-0.011675967191725013,
0.12463840399002493,-0.013022473969277642,
0.12468827930174564,-0.017713791023974024,
0.12473815461346634,0.007430804604086141,
0.12478802992518703,0.01762722021932408,
0.12483790523690773,0.03588559621758561,
0.12488778054862842,-0.0025765699825039826,
0.12493765586034913,-0.029710456645546366,
0.12498753117206983,-0.03900933817118976,
0.12503740648379053,-0.03372447600654363,
0.12508728179551123,-0.03796769352021897,
0.12513715710723192,0.01629612215426275,
0.12518703241895263,-0.01122613237596838,
0.1252369077306733,-0.025424763428475695,
0.12528678304239402,-0.03207294464415767,
0.1253366583541147,-0.003078051440922703,
0.1253865336658354,-0.014005363909767799,
0.12543640897755612,-0.01615548778394331,
0.1254862842892768,0.01610485943824115,
0.1255361596009975,0.01673924201284261,
0.1255860349127182,-0.008377583359955289,
0.1256359102244389,-0.007395165421631507,
0.1256857855361596,-0.020527408521144035,
0.1257356608478803,-0.01207290748765137,
0.125785536159601,-0.007747710733223171,
0.12583541147132168,-0.004108066160433355,
0.1258852867830424,-0.009257219240542363,
0.1259351620947631,-0.009466759495762169,
0.12598503740648379,-0.02901721827657886,
0.1260349127182045,-0.009156482462584374,
0.12608478802992518,-0.011334381571182146,
0.1261346633416459,0.004791119679525295,
0.1261845386533666,-0.01005736241635272,
0.12623441396508728,-0.014545265027095949,
0.126284289276808,-0.010890545172831499,
0.12633416458852867,-0.01491011195757114,
0.12638403990024938,-0.027104242279211384,
0.1264339152119701,-0.042068598747663,
0.12648379052369077,-0.02348021143531854,
0.12653366583541148,0.005129883374254613,
0.12658354114713216,-0.029007494668922384,
0.12663341645885287,-0.014300339049253992,
0.12668329177057355,-0.016268358554741357,
0.12673316708229426,0.0021603534564696783,
0.12678304239401497,-0.006163099326249777,
0.12683291770573565,0.012069929761162982,
0.12688279301745636,0.004043734829221712,
0.12693266832917705,0.01118435621354677,
0.12698254364089775,-0.033431625994465794,
0.12703241895261846,-0.005863025170830928,
0.12708229426433915,-0.03100456809280338,
0.12713216957605986,-0.0508418116818197,
0.12718204488778054,-0.021384984681343155,
0.12723192019950125,-0.0008815852874322992,
0.12728179551122196,0.0047869494937587305,
0.12733167082294264,-0.0004824609753442642,
0.12738154613466335,0.025186213535143016,
0.12743142144638403,0.017229646484105497,
0.12748129675810474,-0.014047047572834339,
0.12753117206982545,-0.018234620296848195,
0.12758104738154613,0.02694231510933071,
0.12763092269326684,-0.014894429268647385,
0.12768079800498752,0.0108075766482258,
0.12773067331670823,-0.014038859634387144,
0.1277805486284289,-0.005523657616542417,
0.12783042394014962,-0.031389696193176955,
0.12788029925187033,-0.024638791503212534,
0.12793017456359101,-0.03155739166749334,
0.12798004987531172,-0.036357388612828084,
0.1280299251870324,-0.029392564403495282,
0.12807980049875312,-0.00625253540477486,
0.12812967581047383,-0.004443886965047477,
0.1281795511221945,-0.0015710703598999865,
0.12822942643391522,-9.79479585453925e-05,
0.1282793017456359,-0.004718534024980607,
0.1283291770573566,-0.008775781462039119,
0.12837905236907732,-0.019992739957755704,
0.128428927680798,-0.011620903449064204,
0.1284788029925187,0.009992167839268403,
0.1285286783042394,-0.0311059797661931,
0.1285785536159601,-0.023088561212560532,
0.1286284289276808,-0.029447165162250016,
0.1286783042394015,-0.010099135124620335,
0.1287281795511222,0.016223774468779737,
0.12877805486284288,-0.027727155306624892,
0.1288279301745636,0.007578661405567741,
0.1288778054862843,-0.02833867458321491,
0.12892768079800498,0.001807148687781796,
0.1289775561097257,0.02237739638036403,
0.12902743142144638,-0.009740877137050855,
0.12907730673316709,-0.010253742254385117,
0.12912718204488777,-0.002564869623974812,
0.12917705735660848,-0.004406213061337847,
0.1292269326683292,-0.02819461375547573,
0.12927680798004987,-0.039412312587868974,
0.12932668329177058,0.014454448773010548,
0.12937655860349126,-0.003354104996563392,
0.12942643391521197,0.007767787666394484,
0.12947630922693268,-0.010099003744115117,
0.12952618453865336,-0.015879120259196647,
0.12957605985037407,0.0031259889581712694,
0.12962593516209475,0.0351547891879636,
0.12967581047381546,0.004523359727466089,
0.12972568578553617,0.024342338483537465,
0.12977556109725685,0.016892938642464137,
0.12982543640897756,0.0014781956467982077,
0.12987531172069824,-0.0020109387281801016,
0.12992518703241895,-0.002349665163516806,
0.12997506234413966,-0.008560350242305581,
0.13002493765586035,-0.01486450390422454,
0.13007481296758105,-0.01888436019921181,
0.13012468827930174,0.022185203054606077,
0.13017456359102245,0.011596157876066313,
0.13022443890274316,-0.0007968895765145118,
0.13027431421446384,-0.004819975346741112,
0.13032418952618455,0.017294232424120363,
0.13037406483790523,-0.024304050536496757,
0.13042394014962594,0.005895175418247207,
0.13047381546134662,0.011751759653250506,
0.13052369077306733,-0.0038134659468861635,
0.13057356608478804,0.025969284779101556,
0.13062344139650872,0.015304247939536011,
0.13067331670822943,-0.00844347250901809,
0.1307231920199501,0.0019372475372056918,
0.13077306733167082,-0.001964414980209944,
0.13082294264339153,0.017778473770532325,
0.13087281795511221,0.017140738275851174,
0.13092269326683292,0.0072596692516123,
0.1309725685785536,0.007372630345914273,
0.13102244389027431,-0.015223796716408815,
0.13107231920199502,0.01288055556628268,
0.1311221945137157,-0.009224841750412221,
0.13117206982543642,-0.0043187551352223495,
0.1312219451371571,0.016610296983599063,
0.1312718204488778,-0.0012231926623872853,
0.13132169576059852,0.008448464475794885,
0.1313715710723192,0.02302122800057764,
0.1314214463840399,0.03961980341149321,
0.1314713216957606,0.03517909720236149,
0.1315211970074813,0.005251507992408465,
0.13157107231920198,0.004945764784256023,
0.1316209476309227,0.037840590094752116,
0.1316708229426434,0.020335157560878826,
0.13172069825436408,0.03294223914774023,
0.1317705735660848,0.016972051334616347,
0.13182044887780547,-0.015044590222489704,
0.13187032418952618,0.009975549630443758,
0.1319201995012469,0.01085075376048538,
0.13197007481296757,0.026180069184318873,
0.13201995012468828,0.018355478621546073,
0.13206982543640897,0.010086032163973104,
0.13211970074812968,0.01766701341072485,
0.13216957605985039,0.03214753595411249,
0.13221945137157107,0.009364082435212018,
0.13226932668329178,0.01642022866360296,
0.13231920199501246,0.02132961357273901,
0.13236907730673317,0.027312160974704014,
0.13241895261845388,0.012620920386546743,
0.13246882793017456,0.025358130704306616,
0.13251870324189527,0.021625607400529292,
0.13256857855361595,0.03767576972745862,
0.13261845386533666,0.010862648214803611,
0.13266832917705737,0.017020953415958554,
0.13271820448877805,0.033790326107898914,
0.13276807980049876,0.013046097548490157,
0.13281795511221944,0.02848581170328133,
0.13286783042394015,0.008722693774881113,
0.13291770573566083,0.03288869200248859,
0.13296758104738154,0.041177791863639346,
0.13301745635910225,0.022757589898775858,
0.13306733167082294,0.012107540564819623,
0.13311720698254365,0.029420060147050564,
0.13316708229426433,0.03531616750606682,
0.13321695760598504,0.008548030420961097,
0.13326683291770575,0.002325020980620613,
0.13331670822942643,-0.0017179159687169716,
0.13336658354114714,0.035551855075468854,
0.13341645885286782,0.02411300234167823,
0.13346633416458853,0.044606467773042,
0.13351620947630924,0.035753978084084787,
0.13356608478802992,0.029890955330891,
0.13361596009975063,0.0008256728217357207,
0.1336658354114713,0.023551337667628004,
0.13371571072319202,0.019404317881997382,
0.13376558603491273,0.030800478729717827,
0.1338154613466334,0.033365665765575876,
0.13386533665835412,0.029998476186724663,
0.1339152119700748,0.01562454274141179,
0.13396508728179551,0.05983636092600755,
0.1340149625935162,0.025252529477466874,
0.1340648379052369,-0.0005172619330542916,
0.13411471321695762,0.03808000577555758,
0.1341645885286783,0.019305130661953808,
0.134214463840399,-0.00585803001940003,
0.1342643391521197,0.01756499641716067,
0.1343142144638404,0.028759493012788344,
0.1343640897755611,0.030401408471105854,
0.1344139650872818,0.03410816785850261,
0.1344638403990025,0.040330045562947475,
0.13451371571072318,0.018718044633736573,
0.1345635910224439,0.030567531657320783,
0.1346134663341646,0.03402739866300666,
0.13466334164588528,0.035009647571734734,
0.134713216957606,0.04472175565208897,
0.13476309226932667,0.026482126470148942,
0.13481296758104738,0.027804198249130895,
0.1348628428927681,0.0183223856339617,
0.13491271820448877,0.01792198380526981,
0.13496259351620948,0.012901714023560523,
0.13501246882793017,0.03724888467514113,
0.13506234413965088,0.02812850870510562,
0.13511221945137158,0.017792180950364236,
0.13516209476309227,0.051237637026444696,
0.13521197007481298,0.0432853506223458,
0.13526184538653366,0.0007782826811820118,
0.13531172069825437,0.026729781669193743,
0.13536159600997505,0.013370389743983534,
0.13541147132169576,0.033882963983915625,
0.13546134663341647,0.0061857025116569715,
0.13551122194513715,0.01213328129776383,
0.13556109725685786,0.04303615015161961,
0.13561097256857854,0.026432736213943493,
0.13566084788029925,0.024835686809894952,
0.13571072319201996,0.05513649626860618,
0.13576059850374064,0.04213065782063535,
0.13581047381546135,0.03062875294967517,
0.13586034912718203,0.013980573367513207,
0.13591022443890274,0.009817977481914323,
0.13596009975062345,0.011789516058276564,
0.13600997506234414,0.023767702780362478,
0.13605985037406484,0.04521540344067407,
0.13610972568578553,0.0075442506662090104,
0.13615960099750624,0.007524095482177737,
0.13620947630922695,0.04551328789923283,
0.13625935162094763,0.048691298696725324,
0.13630922693266834,0.04194857911969292,
0.13635910224438902,0.0299844681957272,
0.13640897755610973,0.03963633337561939,
0.1364588528678304,0.03319546517583289,
0.13650872817955112,0.025533727808564048,
0.13655860349127183,0.03349073603646515,
0.1366084788029925,0.014119011235745809,
0.13665835411471322,0.03947849069915495,
0.1367082294264339,0.03434118997857652,
0.1367581047381546,0.03698968433686726,
0.13680798004987532,0.02258139107526407,
0.136857855361596,0.03819864131163729,
0.1369077306733167,0.0243417185909232,
0.1369576059850374,0.05637688746459438,
0.1370074812967581,0.01857915998526241,
0.13705735660847881,0.02593628538579343,
0.1371072319201995,0.032881070054096136,
0.1371571072319202,0.011692253662167192,
0.1372069825436409,0.026204576209857125,
0.1372568578553616,0.04163297062885659,
0.1373067331670823,0.02401027223239131,
0.137356608478803,0.03419471876177898,
0.1374064837905237,0.012819255362649903,
0.13745635910224438,0.011367721797976186,
0.1375062344139651,0.0024194823122198825,
0.1375561097256858,0.05216923536526023,
0.13760598503740648,-0.004963363207614483,
0.1376558603491272,0.01822458438566408,
0.13770573566084787,0.02373058360882599,
0.13775561097256858,0.014666213667582572,
0.13780548628428926,0.034349053346991475,
0.13785536159600997,0.059431052307320514,
0.13790523690773068,0.048151129204385745,
0.13795511221945136,0.0027781155741031724,
0.13800498753117207,0.03543541402902284,
0.13805486284289276,0.012110163912504726,
0.13810473815461347,0.04267500239197476,
0.13815461346633418,0.019514657195546077,
0.13820448877805486,0.023990576829762987,
0.13825436408977557,0.010127149818996786,
0.13830423940149625,0.016167716201708243,
0.13835411471321696,0.005701809401421076,
0.13840399002493767,0.05592708630292487,
0.13845386533665835,-0.00011549909316091456,
0.13850374064837906,0.04093316219862868,
0.13855361596009974,0.04634085700691078,
0.13860349127182045,0.03148848804158823,
0.13865336658354116,0.0510319935824458,
0.13870324189526184,0.019270624114509555,
0.13875311720698255,0.00975456138492176,
0.13880299251870323,0.017285072676924824,
0.13885286783042394,0.04108949368873789,
0.13890274314214462,0.015145921121171423,
0.13895261845386533,0.007579542458848851,
0.13900249376558604,0.010726640293469224,
0.13905236907730673,0.028894393284499355,
0.13910224438902744,0.016529301273302655,
0.13915211970074812,0.010138524213461725,
0.13920199501246883,0.004684910777588067,
0.13925187032418954,0.03294426240993019,
0.13930174563591022,-0.009518337878659182,
0.13935162094763093,0.014018350147467256,
0.1394014962593516,0.03304125134095809,
0.13945137157107232,0.021592223986513906,
0.13950124688279303,0.02389302755002515,
0.1395511221945137,0.028100247138888167,
0.13960099750623442,0.018242018298017585,
0.1396508728179551,0.013147203982927107,
0.1397007481296758,0.03117116195835392,
0.13975062344139652,0.023217463206478054,
0.1398004987531172,0.006838394310698758,
0.1398503740648379,0.005650654999150559,
0.1399002493765586,0.005501465300206943,
0.1399501246882793,0.005452490433150594,
0.14,0.005856738529158901,
0.1400498753117207,0.007490606805383946,
0.1400997506234414,-0.0060733732492724915,
0.1401496259351621,0.02688304055751419,
0.1401995012468828,0.008252600357972463,
0.14024937655860348,0.02269817591127074,
0.1402992518703242,0.019567713118347953,
0.1403491271820449,0.012611869784144804,
0.14039900249376558,0.003091516549185923,
0.1404488778054863,0.0008021944420759236,
0.14049875311720697,-0.010482804287036126,
0.14054862842892768,0.0416814810099806,
0.1405985037406484,0.028982251227502365,
0.14064837905236907,0.008495968644834671,
0.14069825436408978,0.015484769202194132,
0.14074812967581046,0.026774885116563542,
0.14079800498753117,0.030908269520230493,
0.14084788029925188,-0.0035356495052712746,
0.14089775561097256,0.031000588500487654,
0.14094763092269327,-0.003759654195261154,
0.14099750623441396,-0.010379430500365015,
0.14104738154613466,-0.0006542180447484808,
0.14109725685785537,-0.014973298089670592,
0.14114713216957606,-0.005369692954164904,
0.14119700748129677,-0.015469499057078286,
0.14124688279301745,-0.004815368545852017,
0.14129675810473816,-0.011938582911186591,
0.14134663341645887,0.015657721294296066,
