time,amplitude,label
0.0,-0.018359218255078566,
4.987531172069826e-05,0.01896382864183028,
9.975062344139652e-05,0.014658630171208668,
0.00014962593516209475,-0.007859310239274284,
0.00019950124688279303,-0.022462873346126955,
0.00024937655860349125,-0.027910149411628556,
0.0002992518703241895,-0.014570817193713361,
0.00034912718204488776,-0.024098830742470958,
0.00039900249376558606,-0.02446573298893129,
0.0004488778054862843,-0.0007205473322677847,
0.0004987531172069825,-0.009074128082625293,
0.0005486284289276808,0.017674148496594363,
0.000598503740648379,-0.0037468989364639466,
0.0006483790523690773,0.010815327063378444,
0.0006982543640897755,-0.03339537601166705,
0.0007481296758104738,-0.05143988387762697,
0.0007980049875311721,-0.03304865626623332,
0.0008478802992518703,-0.010486146186925976,
0.0008977556109725686,-0.0059230420864080785,
0.0009476309226932668,0.0095453209303216,
0.000997506234413965,0.001553567024949156,
0.0010473815461346633,-0.028981800598065953,
0.0010972568578553616,-0.019888206536427637,
0.00114713216957606,-0.010203399289761574,
0.001197007481296758,-0.01447494978953825,
0.0012468827930174563,0.03253534844273856,
0.0012967581047381546,-0.011130942416005676,
0.001346633416458853,-0.02279510438341635,
0.001396508728179551,-0.0008918163340451285,
0.0014463840399002493,-0.015701986938635122,
0.0014962593516209476,-0.02069559547118708,
0.001546134663341646,-0.016464217679159773,
0.0015960099750623442,-0.01112683104055346,
0.0016458852867830423,0.002260126468825518,
0.0016957605985037406,-0.009922714776473586,
0.001745635910224439,-0.011732097033468291,
0.0017955112219451373,-0.017600708637910474,
0.0018453865336658353,-0.02398729034189109,
0.0018952618453865336,-0.004172996297675684,
0.001945137157107232,-0.005881820799528909,
0.00199501246882793,-0.021033253376702376,
0.0020448877805486283,-0.008622976519733774,
0.0020947630922693266,-0.008171088696348033,
0.002144638403990025,0.002309480527603259,
0.0021945137157107233,-0.036535900518544884,
0.0022443890274314216,-0.016232045902638853,
0.00229426433915212,0.022349344317002903,
0.0023441396508728177,0.0016136047187930817,
0.002394014962593516,-0.00438242024661427,
0.0024438902743142144,-0.018562899998884736,
0.0024937655860349127,-0.022358427963030388,
0.002543640897755611,0.025123055866906364,
0.0025935162094763093,-0.016774282436058614,
0.0026433915211970076,0.0037699069404101204,
0.002693266832917706,0.0037228865770749745,
0.002743142144638404,-0.011725040752792393,
0.002793017456359102,0.005473020336381433,
0.0028428927680798004,0.0007899010112299362,
0.0028927680798004987,0.009497881684059462,
0.002942643391521197,-0.020739295500636256,
0.0029925187032418953,0.03075885562937035,
0.0030423940149625936,-0.031206305102688205,
0.003092269326683292,-0.004236082634925651,
0.00314214463840399,0.01767246439625051,
0.0031920199501246885,-0.01834832681435051,
0.0032418952618453864,0.012156515666452712,
0.0032917705735660847,0.020274050495056078,
0.003341645885286783,-0.021962237293405424,
0.0033915211970074813,0.000824049172950709,
0.0034413965087281796,-0.00467140178499224,
0.003491271820448878,-0.004760923193694329,
0.003541147132169576,0.01114666894682926,
0.0035910224438902745,0.0032807924908953845,
0.0036408977556109724,-0.00538971087872712,
0.0036907730673316707,0.013095147202612097,
0.003740648379052369,0.003794929556479312,
0.0037905236907730673,-0.02474362894980699,
0.0038403990024937656,-0.0020793726101329744,
0.003890274314214464,0.0038085395186385164,
0.003940149625935162,0.0044899762997215546,
0.00399002493765586,0.00931834420267428,
0.004039900249376558,0.0229167109546583,
0.004089775561097257,0.005930218802466847,
0.004139650872817955,0.019920969940476985,
0.004189526184538653,0.005735982941420123,
0.004239401496259352,-0.009601715913593947,
0.00428927680798005,0.0012634062150059314,
0.004339152119700748,-0.012172395295471039,
0.0043890274314214465,0.01695917720498904,
0.004438902743142145,-0.022572249560127607,
0.004488778054862843,0.010688794093465294,
0.004538653366583541,-0.006919077754545387,
0.00458852867830424,0.010508359313850898,
0.004638403990024938,-0.011555880295749697,
0.0046882793017456355,0.028653449959687768,
0.004738154613466334,0.013283628461549866,
0.004788029925187032,0.015441093820810534,
0.00483790523690773,0.01511882599956831,
0.004887780548628429,0.027616689405635202,
0.004937655860349127,-0.011964308494998858,
0.004987531172069825,0.030631165912173828,
0.005037406483790524,0.011184035664816542,
0.005087281795511222,0.033333135549770146,
0.00513715710723192,0.030883912869343506,
0.0051870324189526185,0.02761371578991597,
0.005236907730673317,0.0459260286219202,
0.005286783042394015,0.024088003450660915,
0.0053366583541147134,-0.012082123511110454,
0.005386533665835412,0.0005228586004479979,
0.00543640897755611,0.02314576080058836,
0.005486284289276808,0.020918947178548326,
0.005536159600997507,0.01518709678386201,
0.005586034912718204,0.003380417435193482,
0.005635910224438902,0.02153615985983663,
0.005685785536159601,0.014482090924037816,
0.005735660847880299,0.0110565973034671,
0.005785536159600997,0.021651140570453656,
0.005835411471321696,0.021144175875503525,
0.005885286783042394,0.003285534886986869,
0.005935162094763092,0.009983351119973678,
0.0059850374064837905,0.03134916609500292,
0.006034912718204489,0.028276007039562973,
0.006084788029925187,0.007439857403910589,
0.0061346633416458855,0.02079287682397068,
0.006184538653366584,0.029755448194743656,
0.006234413965087282,0.0061812071440532235,
0.00628428927680798,0.032475708014089624,
0.006334164588528679,-0.01051014602301446,
0.006384039900249377,0.031297811521233315,
0.006433915211970074,0.014438937105979814,
0.006483790523690773,0.022377576039170483,
0.006533665835411471,0.03208528431049871,
0.006583541147132169,0.016505229299076732,
0.006633416458852868,0.03594915957543801,
0.006683291770573566,0.012878325215199403,
0.006733167082294264,0.013516553542713201,
0.0067830423940149626,0.011441259380522976,
0.006832917705735661,0.025530006114307013,
0.006882793017456359,-0.0077403164275608345,
0.0069326683291770575,0.03255395267229961,
0.006982543640897756,0.03669631405065603,
0.007032418952618454,0.005175186155422005,
0.007082294264339152,0.015702721102462562,
0.007132169576059851,0.02206768340981594,
0.007182044887780549,0.02159633514549124,
0.007231920199501247,0.04141028808780959,
0.007281795511221945,0.033549427556723826,
0.007331670822942643,-0.0059675055471782035,
0.007381546134663341,0.031445502196914984,
0.00743142144638404,0.014733146931894016,
0.007481296758104738,0.012333696450550158,
0.007531172069825436,0.004380863537814585,
0.007581047381546135,0.004725617686478771,
0.007630922693266833,0.029360808452813865,
0.007680798004987531,-0.01146850625567419,
0.0077306733167082295,0.009298188177561444,
0.007780548628428928,-0.004120113851459814,
0.007830423940149626,0.02985999384852926,
0.007880299251870324,0.021743354290786252,
0.007930174563591023,0.007784957796823391,
0.00798004987531172,0.026915062338320875,
0.00802992518703242,0.028265449394055304,
0.008079800498753117,0.013116140235813485,
0.008129675810473816,0.024742972714001076,
0.008179551122194513,0.03269190425843334,
0.008229426433915213,0.02817121965712086,
0.00827930174563591,0.03151899192351952,
0.00832917705735661,0.03769963942651289,
0.008379052369077307,-0.006756365153038468,
0.008428927680798006,0.022161467665703472,
0.008478802992518703,0.022222197157368177,
0.0085286783042394,0.015455515022437975,
0.0085785536159601,-0.01165224148839154,
0.008628428927680797,0.02681324467208409,
0.008678304239401496,0.011406339766093133,
0.008728179551122194,-0.002993841699653131,
0.008778054862842893,0.00637103668240727,
0.00882793017456359,-0.00010010755497108503,
0.00887780548628429,-0.0015173601167989964,
0.008927680798004987,0.002832772668637816,
0.008977556109725686,0.022623330492719362,
0.009027431421446384,0.026604939143811752,
0.009077306733167083,0.028968087801682977,
0.00912718204488778,0.026040497182620102,
0.00917705735660848,0.02204654944104116,
0.009226932668329177,-0.018551914665488806,
0.009276807980049876,0.041463579842824706,
0.009326683291770574,0.0216683467236347,
0.009376558603491271,0.00010183584047042393,
0.00942643391521197,-0.010483010096420699,
0.009476309226932668,0.026133568146648974,
0.009526184538653367,0.022700433991719983,
0.009576059850374064,0.01457191380557811,
0.009625935162094763,0.030841368808323263,
0.00967581047381546,-0.0010610470166014588,
0.00972568578553616,0.023707931204855925,
0.009775561097256857,0.025127248573342087,
0.009825436408977557,0.018577139692485797,
0.009875311720698254,0.04110597029798303,
0.009925187032418953,-0.0072652356985028685,
0.00997506234413965,0.012000172064345466,
0.01002493765586035,0.012400711670293597,
0.010074812967581047,0.03787762672005812,
0.010124688279301746,0.012574257391945556,
0.010174563591022444,0.0571874665309188,
0.010224438902743141,-0.018980759722301038,
0.01027431421446384,0.052931654670876016,
0.010324189526184538,0.02245021078965022,
0.010374064837905237,0.00846651569550432,
0.010423940149625935,0.009978257037686723,
0.010473815461346634,0.005870932690442773,
0.010523690773067331,0.01415313080755946,
0.01057356608478803,0.011173594095114656,
0.010623441396508728,0.017730542570072276,
0.010673316708229427,0.017133958705045492,
0.010723192019950124,0.022266930308855844,
0.010773067331670824,0.0314728260628296,
0.010822942643391521,-0.0015041577476996963,
0.01087281795511222,0.0459095132254978,
0.010922693266832918,0.009041794954405432,
0.010972568578553617,0.016195448509849712,
0.011022443890274314,0.01944295011062535,
0.011072319201995013,0.021543004456463937,
0.01112219451371571,0.012153928040256718,
0.011172069825436408,0.0010937490332888888,
0.011221945137157107,0.05155096762219567,
0.011271820448877805,0.008052691030892001,
0.011321695760598504,0.03865911297025617,
0.011371571072319201,-0.00030070656531877744,
0.0114214463840399,-0.002043333942102866,
0.011471321695760598,0.017392828893913005,
0.011521197007481297,0.009214437013672375,
0.011571072319201995,-0.0027552443099371163,
0.011620947630922694,0.026306998442320203,
0.011670822942643391,0.05117331529154554,
0.01172069825436409,-0.034144828273641854,
0.011770573566084788,0.010133770215691583,
0.011820448877805487,0.009145617313977493,
0.011870324189526184,0.03246067325942636,
0.011920199501246884,0.00013519802554838936,
0.011970074812967581,0.018635525339520856,
0.012019950124688279,0.039058347762612286,
0.012069825436408978,0.03157539885520952,
0.012119700748129675,-0.00280212411008203,
0.012169576059850374,0.029004269812482913,
0.012219451371571072,0.014636895536475545,
0.012269326683291771,0.019492014055320615,
0.012319201995012468,-0.00717936504258666,
0.012369077306733168,0.006491568840257638,
0.012418952618453865,0.012141861924239664,
0.012468827930174564,0.017871751826476257,
0.012518703241895262,0.036233615562764,
0.01256857855361596,0.00797116811233464,
0.012618453865336658,-0.025789130177206174,
0.012668329177057357,-0.003980434932151811,
0.012718204488778055,0.015961910477061934,
0.012768079800498754,0.007884952081592626,
0.012817955112219451,-0.0009419762337898301,
0.012867830423940149,0.00808291100802791,
0.012917705735660848,0.004820688287175817,
0.012967581047381545,-0.014255751891753975,
0.013017456359102245,-0.020055399714943852,
0.013067331670822942,0.0030695949779070445,
0.013117206982543641,0.004322139815315022,
0.013167082294264339,-0.006484874855778377,
0.013216957605985038,0.01587901508630583,
0.013266832917705735,-0.017725655195486426,
0.013316708229426434,-0.008315218855830999,
0.013366583541147132,0.016476575824813825,
0.013416458852867831,0.014587247480846444,
0.013466334164588529,-0.0019254520941631766,
0.013516209476309228,-0.021797192575184775,
0.013566084788029925,-0.00964649401419014,
0.013615960099750624,0.0009097141563178844,
0.013665835411471322,0.00106977057366556,
0.01371571072319202,-0.03481477834300814,
0.013765586034912718,0.022114488803730972,
0.013815461346633416,-0.0010204475990076055,
0.013865336658354115,0.009053360642822536,
0.013915211970074812,0.006463132494516151,
0.013965087281795512,-0.023457716473841164,
0.014014962593516209,-0.005676509537860414,
0.014064837905236908,-0.0008873887425247897,
0.014114713216957606,-0.022002898362821897,
0.014164588528678305,0.020859539651970946,
0.014214463840399002,-0.02237178217718333,
0.014264339152119701,-0.004859288683147453,
0.014314214463840399,-0.0002794302452618744,
0.014364089775561098,-0.0024783231834439555,
0.014413965087281795,-0.03734507255342488,
0.014463840399002495,-0.007656728283622547,
0.014513715710723192,-0.0009735699920469113,
0.01456359102244389,-0.026523654272753806,
0.014613466334164589,0.008265752943221384,
0.014663341645885286,-0.0036798451008589893,
0.014713216957605985,-0.026118596213373063,
0.014763092269326683,-0.010963127588396314,
0.014812967581047382,-0.03423490869617478,
0.01486284289276808,0.02987920090090423,
0.014912718204488778,-0.0234315387000458,
0.014962593516209476,-0.029878849417413967,
0.015012468827930175,-0.0010268270789866897,
0.015062344139650873,-0.013439921733255832,
0.015112219451371572,0.01995404285873726,
0.01516209476309227,-0.007885339974384278,
0.015211970074812968,-0.00755927853772697,
0.015261845386533666,-0.020821970057458408,
0.015311720698254365,-0.02112000243795179,
0.015361596009975062,-0.03111044778386697,
0.01541147132169576,-0.010253337894051773,
0.015461346633416459,-0.007414538452057551,
0.015511221945137156,-0.009368172618476698,
0.015561097256857856,0.00035862515831272014,
0.015610972568578553,-0.014581411222800357,
0.015660847880299252,-0.026468361403979214,
0.01571072319201995,-0.007302572323060723,
0.015760598503740647,0.01837231511266485,
0.015810473815461346,-0.0318683294765988,
0.015860349127182045,-0.036012147621795464,
0.015910224438902745,-0.026142397084829835,
0.01596009975062344,-0.0005910012961397489,
0.01600997506234414,-0.0054239781757687115,
0.01605985037406484,-0.0035569996094854863,
0.016109725685785538,0.010014901498189486,
0.016159600997506234,0.0017006288040258763,
0.016209476309226933,-0.0023063992126441425,
0.016259351620947632,-0.0010452051861830538,
0.016309226932668328,-0.016127494154351208,
0.016359102244389027,-0.019885852363405357,
0.016408977556109726,-0.029292798761136316,
0.016458852867830425,-0.015537714176332117,
0.01650872817955112,-0.04534740971594954,
0.01655860349127182,-0.028377890033615447,
0.01660847880299252,-0.017938902639792698,
0.01665835411471322,-0.021386831809103897,
0.016708229426433914,-0.02661460584305459,
0.016758104738154613,-0.05293935504509832,
0.016807980049875312,-0.02542035832510621,
0.01685785536159601,0.01567407412677178,
0.016907730673316707,0.005688223611937646,
0.016957605985037406,-0.04308605492260206,
0.017007481296758106,-0.03343702346494355,
0.0170573566084788,-0.031586687413467394,
0.0171072319201995,-0.01447447452635432,
0.0171571072319202,-0.007604180509182679,
0.0172069825436409,-0.024358375650272587,
0.017256857855361595,-0.03318545110581871,
0.017306733167082294,-0.034526054983378254,
0.017356608478802993,-0.04003572862328497,
0.017406483790523692,-0.025152652397523304,
0.017456359102244388,-0.02086303492226618,
0.017506234413965087,-0.033671819370216,
0.017556109725685786,-0.016604451573241703,
0.017605985037406485,-0.004753099965675783,
0.01765586034912718,-0.022603597855968632,
0.01770573566084788,-0.015124348701342794,
0.01775561097256858,-0.018232568682636792,
0.01780548628428928,0.004413666251338752,
0.017855361596009974,-0.009758847874595945,
0.017905236907730673,-0.018783949510037732,
0.017955112219451373,-0.027151074801766914,
0.018004987531172068,-0.012651619976145084,
0.018054862842892767,-0.032510435037097746,
0.018104738154613467,-0.005813293159476091,
0.018154613466334166,-0.02253306903951774,
0.01820448877805486,-0.01572153985666698,
0.01825436408977556,-0.03481981320081823,
0.01830423940149626,-0.02959027332046638,
0.01835411471321696,0.001968177379050553,
0.018403990024937655,-0.021111494894911903,
0.018453865336658354,-0.005888474042616575,
0.018503740648379053,-0.010208486580729969,
0.018553615960099752,-0.015606867981525406,
0.018603491271820448,-0.01785662274435758,
0.018653366583541147,-0.033472229907673456,
0.018703241895261846,-0.022879163537988943,
0.018753117206982542,-0.03169030332247807,
0.01880299251870324,-0.011934943990907155,
0.01885286783042394,-0.010894778431415817,
0.01890274314214464,-0.011732426578560492,
0.018952618453865335,-0.001505264893814317,
0.019002493765586034,-0.013571368716022634,
0.019052369077306733,-0.037484739267026765,
0.019102244389027433,-0.02255331852088577,
0.01915211970074813,0.0020092586060029873,
0.019201995012468828,-0.030285516061968415,
0.019251870324189527,0.014340507795199482,
0.019301745635910226,0.008239644734531284,
0.01935162094763092,-0.007296631802962104,
0.01940149625935162,-0.051617828389028654,
0.01945137157107232,-0.020765527382785358,
0.01950124688279302,-0.01094972541448273,
0.019551122194513715,-0.020827699484822337,
0.019600997506234414,-0.01159996906017633,
0.019650872817955113,-0.02112534540762374,
0.01970074812967581,-0.04229860326837227,
0.019750623441396508,-0.024253725527183967,
0.019800498753117207,0.013466861692020982,
0.019850374064837906,-0.01180994128368739,
0.019900249376558602,-0.038163839206226916,
0.0199501246882793,0.00044538603778571106,
0.02,0.003922004653449083,
0.0200498753117207,-0.005306594839599563,
0.020099750623441395,-0.02863712713941311,
0.020149625935162094,-0.017721245799213543,
0.020199501246882794,-0.025756919435181425,
0.020249376558603493,-0.018991989545931995,
0.02029925187032419,-0.008447129199424303,
0.020349127182044888,0.0027161257302488508,
0.020399002493765587,-0.01896894011110604,
0.020448877805486283,-0.008137184343690339,
0.02049875311720698,-0.024441088318263065,
0.02054862842892768,0.02747700318831011,
0.02059850374064838,-0.03060921282323979,
0.020648379052369076,-0.022610322030420578,
0.020698254364089775,0.002685909714641088,
0.020748129675810474,7.800946291078997e-06,
0.020798004987531173,-0.013447824523097614,
0.02084788029925187,-0.024379515664831916,
0.020897755610972568,-0.011664460151281534,
0.020947630922693267,-0.03360867297243021,
0.020997506234413967,-0.00210381848421249,
0.021047381546134662,-0.006159626435361824,
0.02109725685785536,-5.3739690755491565e-05,
0.02114713216957606,-0.005723106890994466,
0.02119700748129676,-0.01147099991842467,
0.021246882793017455,-0.021561234043922642,
0.021296758104738155,-0.00531908442774912,
0.021346633416458854,-0.0022042343481265027,
0.02139650872817955,-0.0007654086582125439,
0.02144638403990025,-0.013095674727401934,
0.021496259351620948,-0.0012327594900961823,
0.021546134663341647,0.010847826306414529,
0.021596009975062343,-0.027182980838152265,
0.021645885286783042,-0.0007646827268318508,
0.02169576059850374,-0.010628524483063569,
0.02174563591022444,0.01198543804925289,
0.021795511221945136,0.009994966802632574,
0.021845386533665835,0.008190915715400792,
0.021895261845386534,0.023012311811811632,
0.021945137157107233,-0.011593606438280408,
0.02199501246882793,-0.012547895884867127,
0.02204488778054863,0.0011665829661124828,
0.022094763092269327,-0.020779491719895554,
0.022144638403990027,-0.0002990826883881052,
0.022194513715710722,-0.0014034511570737854,
0.02224438902743142,0.0038115217455586938,
0.02229426433915212,-0.02033217608253327,
0.022344139650872816,0.007238798246211435,
0.022394014962593516,-0.006918748624573868,
0.022443890274314215,0.015822775020609525,
0.022493765586034914,0.01640278202696082,
0.02254364089775561,-0.04148276117975994,
0.02259351620947631,-0.03932918651903268,
0.022643391521197008,0.022948765046740326,
0.022693266832917707,0.015124963760539447,
0.022743142144638403,-0.012559657540285204,
0.022793017456359102,-0.008156963014855845,
0.0228428927680798,-0.010269274961673859,
0.0228927680798005,-0.0012855145508510126,
0.022942643391521196,-0.01671406806776364,
0.022992518703241895,-0.00043694135398364875,
0.023042394014962594,-0.00821476918189948,
0.02309226932668329,0.009533565005736086,
0.02314214463840399,0.02166547640854826,
0.02319201995012469,-0.008094964133323314,
0.023241895261845388,0.00404762639834602,
0.023291770573566083,0.013981158126757553,
0.023341645885286783,0.008047768903159051,
0.02339152119700748,0.012516205112098666,
0.02344139650872818,0.03432490029053294,
0.023491271820448877,0.009872790605618003,
0.023541147132169576,0.022054509904308794,
0.023591022443890275,-0.02093665844867619,
0.023640897755610974,-0.03095458202730339,
0.02369077306733167,0.017016122927557244,
0.02374064837905237,0.0057824184152564725,
0.023790523690773068,-0.0018935250143009364,
0.023840399002493767,0.023699930533880382,
0.023890274314214463,-0.007631176264005947,
0.023940149625935162,-0.024854814273680186,
0.02399002493765586,-0.01212095542940871,
0.024039900249376557,0.012542002672073308,
0.024089775561097256,0.03310382763477561,
0.024139650872817955,0.01194541234402412,
0.024189526184538655,-0.018724675920058637,
0.02423940149625935,0.021765995995579105,
0.02428927680798005,-0.01187513631527905,
0.02433915211970075,0.005736842512576658,
0.024389027431421448,0.007047161700764017,
0.024438902743142144,0.010858097820978397,
0.024488778054862843,0.0030546367740573645,
0.024538653366583542,-0.0053338476034137,
0.02458852867830424,0.013513970455196523,
0.024638403990024937,0.004601023482917345,
0.024688279301745636,0.04354220907417146,
0.024738154613466335,0.012542556125265652,
0.02478802992518703,0.01999794417799114,
0.02483790523690773,0.018292987308311873,
0.02488778054862843,-0.024908804071883325,
0.02493765586034913,-0.015868215957582484,
0.024987531172069824,0.029241073260146376,
0.025037406483790523,0.012937423030603317,
0.025087281795511222,0.011156953481652234,
0.02513715710723192,0.010997850711378496,
0.025187032418952617,0.019835901515373563,
0.025236907730673316,0.01984440958888341,
0.025286783042394016,0.017570640495132003,
0.025336658354114715,0.033453288273174266,
0.02538653366583541,0.023788022093566782,
0.02543640897755611,0.04270604264233034,
0.02548628428927681,0.00268464346901451,
0.025536159600997508,0.024794309886359025,
0.025586034912718204,-0.0008237530002324928,
0.025635910224438903,-0.006720996577453151,
0.025685785536159602,-0.0041622808316625175,
0.025735660847880298,0.031935774404934704,
0.025785536159600997,0.01499482214989111,
0.025835411471321696,0.012163279284111074,
0.025885286783042395,0.013673993708378365,
0.02593516209476309,0.03101763358703416,
0.02598503740648379,0.007352357177399016,
0.02603491271820449,0.0013953593386108118,
0.02608478802992519,0.03852480690786049,
0.026134663341645884,0.00548937228183057,
0.026184538653366583,0.02386617690760505,
0.026234413965087282,0.012457579962424574,
0.02628428927680798,0.017580458224592022,
0.026334164588528677,0.0010675307641608046,
0.026384039900249377,0.016683356561765457,
0.026433915211970076,-0.005598527938331398,
0.02648379052369077,0.035235744200009515,
0.02653366583541147,0.029916680372360442,
0.02658354114713217,0.0028900869503294038,
0.02663341645885287,0.0413627609611535,
0.026683291770573565,-0.007831268341320505,
0.026733167082294264,0.01833462984668757,
0.026783042394014963,0.025399436624401202,
0.026832917705735662,0.012001488224402682,
0.026882793017456358,-0.003599951831324461,
0.026932668329177057,0.030412169109644345,
0.026982543640897756,0.03465729808622976,
0.027032418952618455,0.05185748227030286,
0.02708229426433915,0.030339823997068208,
0.02713216957605985,0.007427618581290889,
0.02718204488778055,0.03765954193946641,
0.02723192019950125,0.018177522995704853,
0.027281795511221944,0.01348439579892051,
0.027331670822942643,0.03245103668680163,
0.027381546134663343,0.0212248326848614,
0.02743142144638404,0.04500550633430197,
0.027481296758104738,0.026171133077425354,
0.027531172069825437,0.01722729706354861,
0.027581047381546136,0.039796344168730416,
0.02763092269326683,0.06990447808270461,
0.02768079800498753,-0.0050368607750357446,
0.02773067331670823,0.02848348505719997,
0.02778054862842893,0.013237062161970948,
0.027830423940149625,0.01621187812245322,
0.027880299251870324,-0.002767378560942592,
0.027930174563591023,0.007579526473462791,
0.027980049875311722,0.03730353847254948,
0.028029925187032418,0.01249834169123125,
0.028079800498753117,0.02616843700269276,
0.028129675810473816,0.010486741482695667,
0.028179551122194512,0.019653748550399273,
0.02822942643391521,0.04402111490619287,
0.02827930174563591,0.028214136531629866,
0.02832917705735661,0.01727237360958863,
0.028379052369077305,0.027150131147854167,
0.028428927680798004,0.04419393167202959,
0.028478802992518704,-0.01355568371206613,
0.028528678304239403,0.036043064330268576,
0.0285785536159601,0.01869671240651376,
0.028628428927680798,0.052932450503912445,
0.028678304239401497,0.015127630519153688,
0.028728179551122196,0.018950247423931903,
0.02877805486284289,0.02938637249216412,
0.02882793017456359,0.01755001439074703,
0.02887780548628429,0.003909461326194158,
0.02892768079800499,0.026525696756430597,
0.028977556109725685,0.032536943630542464,
0.029027431421446384,0.04774516921602875,
0.029077306733167083,0.03845347420837991,
0.02912718204488778,0.023193206833736456,
0.029177057356608478,-0.03743236479585465,
0.029226932668329177,-0.0017382901176234977,
0.029276807980049877,0.02620969213323137,
0.029326683291770572,0.001313801221568614,
0.02937655860349127,0.040579652347460804,
0.02942643391521197,0.026297969149803646,
0.02947630922693267,0.018716724949417934,
0.029526184538653365,0.014084895689042436,
0.029576059850374065,-0.0182352613984286,
0.029625935162094764,0.02463820594934829,
0.029675810473815463,-0.012386177397697054,
0.02972568578553616,0.02029977588404815,
0.029775561097256858,0.01927320005830299,
0.029825436408977557,0.03935602027260164,
0.029875311720698253,0.046406123553570974,
0.029925187032418952,0.024184287825082758,
0.02997506234413965,0.002892884016054694,
0.03002493765586035,0.028509953058783233,
0.030074812967581046,0.010096342655788704,
0.030124688279301745,0.017326017671019815,
0.030174563591022444,0.02390340053561948,
0.030224438902743143,0.026711062906478466,
0.03027431421446384,0.059366586002106154,
0.03032418952618454,0.015695760465537608,
0.030374064837905237,0.004681310711606983,
0.030423940149625937,0.03897809290988351,
0.030473815461346632,0.02363308966760501,
0.03052369077306733,0.009080996366059297,
0.03057356608478803,0.012655639199100245,
0.03062344139650873,0.015964087047264174,
0.030673316708229426,0.008917910148364435,
0.030723192019950125,0.003247336597293579,
0.030773067331670824,0.015570757807772586,
0.03082294264339152,0.021400597975466784,
0.03087281795511222,0.009296745155285497,
0.030922693266832918,0.04164158135327955,
0.030972568578553617,0.009570202789129897,
0.031022443890274313,-0.005534797694527149,
0.031072319201995012,0.03376700405712644,
0.03112219451371571,0.032752552159655834,
0.03117206982543641,0.017238667003642284,
0.031221945137157106,0.0259640813203914,
0.03127182044887781,0.024125178249338814,
0.031321695760598504,0.01952734180623769,
0.0313715710723192,-0.015400388138216837,
0.0314214463840399,-0.00540990317111509,
0.0314713216957606,0.011736572722683261,
0.031521197007481294,0.018554264376673138,
0.031571072319202,0.008428767001582588,
0.03162094763092269,0.02590871252405327,
0.03167082294264339,0.023737599228040748,
0.03172069825436409,-0.018745918584375888,
0.03177057356608479,0.028740016671514892,
0.03182044887780549,0.008836716105788605,
0.031870324189526185,0.017433193812736985,
0.03192019950124688,-0.0025438612654105804,
0.03197007481296758,0.04272575717406332,
0.03201995012468828,0.004404074247917299,
0.032069825436408975,-0.001772132730305423,
0.03211970074812968,0.017010556764094846,
0.03216957605985037,0.030197284053712657,
0.032219451371571076,0.01004872223259506,
0.03226932668329177,-0.002078916807161768,
0.03231920199501247,0.0022699539163534444,
0.03236907730673317,0.011999838865748683,
0.032418952618453865,0.025599435075086965,
0.03246882793017456,0.01066788201611522,
0.032518703241895264,0.03077446326542655,
0.03256857855361596,0.00925170279879979,
0.032618453865336655,0.007605823207976747,
0.03266832917705736,-0.007302174205942539,
0.032718204488778053,-0.004069714953487439,
0.032768079800498756,0.002210685770582834,
0.03281795511221945,-0.0026933874756440088,
0.03286783042394015,0.012493031033065292,
0.03291770573566085,-2.392815096505154e-05,
0.032967581047381546,-0.01858145354203083,
0.03301745635910224,-0.026105587372028807,
0.033067331670822944,-0.001611175716683076,
0.03311720698254364,-0.006230772226370782,
0.03316708229426434,-0.01621296228808537,
0.03321695760598504,0.006396469525331904,
0.033266832917705734,-0.01822444383959222,
0.03331670822942644,0.007451850847667644,
0.03336658354114713,-9.663416465952685e-05,
0.03341645885286783,-0.023258229341466815,
0.03346633416458853,-0.01737881290989935,
0.033516209476309226,0.0007890076391251408,
0.03356608478802992,0.009074131328177974,
0.033615960099750625,-0.009734759634499743,
0.03366583541147132,-0.0036350813970745127,
0.03371571072319202,-0.0018521521360854488,
0.03376558603491272,-0.008011627839273242,
0.033815461346633414,-0.003703766236581932,
0.03386533665835412,0.00011125714405846912,
0.03391521197007481,-0.006115778024719785,
0.03396508728179551,0.01949892306789038,
0.03401496259351621,0.0063429644945172045,
0.03406483790523691,0.006491554768265276,
0.0341147132169576,0.0027649453255204587,
0.034164588528678305,0.037309298636034695,
0.034214463840399,-0.014208248188992393,
0.034264339152119704,0.019655208082977955,
0.0343142144638404,-0.005338354525777815,
0.034364089775561095,-0.007757353212604649,
0.0344139650872818,-0.0017971195516252468,
0.03446384039900249,-0.02242995161872928,
0.03451371571072319,0.003459903512956965,
0.03456359102244389,0.013214297322847783,
0.03461346633416459,-0.016856280139847298,
0.03466334164588529,-0.011657634299799012,
0.034713216957605986,0.0007173011012299637,
0.03476309226932668,-0.027595379809931576,
0.034812967581047384,-0.012824132943106664,
0.03486284289276808,-0.011369432633484201,
0.034912718204488775,-0.0029661192497768673,
0.03496259351620948,-0.010746094151566257,
0.035012468827930174,-0.00832675591137449,
0.03506234413965087,-0.006892617775352894,
0.03511221945137157,0.008241273026177784,
0.03516209476309227,-0.012906966116946729,
0.03521197007481297,-0.03648770402619218,
0.035261845386533666,-0.005919742767281221,
0.03531172069825436,-0.016477071335331245,
0.035361596009975065,-0.017496360039762487,
0.03541147132169576,0.000896438823609999,
0.035461346633416456,-0.048474105257702495,
0.03551122194513716,-0.015202783839716546,
0.035561097256857854,-0.014335006222862743,
0.03561097256857856,-0.018311574011747163,
0.03566084788029925,-0.019220076885734697,
0.03571072319201995,0.00942523651820907,
0.03576059850374065,-0.02468384580896571,
0.03581047381546135,-0.011955205081796002,
0.03586034912718204,-0.04613199591677695,
0.035910224438902745,-0.003964748555015342,
0.03596009975062344,0.011422566315395658,
0.036009975062344136,0.012074631487087784,
0.03605985037406484,-0.01127710483463795,
0.036109725685785535,-0.01144541998729923,
0.03615960099750624,-0.00863073510844023,
0.03620947630922693,-0.048532772215594995,
0.03625935162094763,-0.003105444887443805,
0.03630922693266833,-0.032488479249062084,
0.03635910224438903,0.0062899140776073725,
0.03640897755610972,-0.03267619127952697,
0.036458852867830426,-0.026777757563703902,
0.03650872817955112,0.015948970834697672,
0.036558603491271824,-0.001464386042950445,
0.03660847880299252,-0.01207607256951512,
0.036658354114713215,0.00201547067096018,
0.03670822942643392,0.01032829100024602,
0.036758104738154614,0.004006499373069622,
0.03680798004987531,-0.004585158028167582,
0.03685785536159601,0.006168071651912209,
0.03690773067331671,-0.019891427385872247,
0.0369576059850374,-0.03233097200874063,
0.037007481296758106,0.005019815848240315,
0.0370573566084788,-0.04065047653036659,
0.037107231920199504,-0.005739148579538901,
0.0371571072319202,-0.014445966942683044,
0.037206982543640896,-0.01945050758697405,
0.0372568578553616,-0.005866263855239126,
0.037306733167082294,-0.010348431812804747,
0.03735660847880299,0.0009654749579782913,
0.03740648379052369,-0.030082839515463318,
0.03745635910224439,-0.02030786450987993,
0.037506234413965084,-0.010956398503796774,
0.037556109725685786,-0.0015663888787900149,
0.03760598503740648,-0.015578982378638796,
0.037655860349127185,-0.0074811835324552645,
0.03770573566084788,-0.025833177885485115,
0.037755610972568576,-0.016883493123137753,
0.03780548628428928,-0.03033377378824699,
0.037855361596009975,-0.0261690868287978,
0.03790523690773067,-0.030649008180465332,
0.03795511221945137,-0.033973156361442915,
0.03800498753117207,0.010386115957153018,
0.03805486284289277,0.005049340279672628,
0.03810473815461347,-0.029090218122657635,
0.03815461346633416,-0.019982859867935313,
0.038204488778054865,-0.011219121435641365,
0.03825436408977556,-0.001463273677336275,
0.03830423940149626,-0.036148794890216995,
0.03835411471321696,-0.03526173951720764,
0.038403990024937655,-0.05124122263877347,
0.03845386533665835,-0.011056250181563183,
0.03850374064837905,-0.022422275826072036,
0.03855361596009975,-0.03761160779693842,
0.03860349127182045,0.003037595385356865,
0.03865336658354115,-0.0023416882845401638,
0.03870324189526184,-0.012152812993099137,
0.038753117206982546,-0.00425442498867477,
0.03880299251870324,-0.03182097968324804,
0.03885286783042394,-0.026492071581127943,
0.03890274314214464,-0.042774684976935186,
0.038952618453865336,0.0013911811098131395,
0.03900249376558604,-0.002072096582742473,
0.039052369077306734,-0.005524864940144801,
0.03910224438902743,-0.033559160545529335,
0.03915211970074813,-0.015098823431382108,
0.03920199501246883,0.01835059141459752,
0.039251870324189524,-0.01181882041392604,
0.039301745635910226,-0.015758437713863545,
0.03935162094763092,-0.023261078000877827,
0.03940149625935162,0.0032466748850475784,
0.03945137157107232,-0.045203725679153886,
0.039501246882793016,-0.023597063854035608,
0.03955112219451372,-0.033942741879444495,
0.039600997506234414,-0.006601974907171763,
0.03965087281795511,-0.021515307486522268,
0.03970074812967581,-0.03431234043302264,
0.03975062344139651,-0.0064936235328718825,
0.039800498753117204,-0.025707854985396253,
0.03985037406483791,0.00207257221092836,
0.0399002493765586,-0.022871151857841387,
0.039950124688279305,-0.022187427278116074,
0.04,0.00619637730435405,
0.0400498753117207,-0.019323156904979363,
0.0400997506234414,-0.004719716312303864,
0.040149625935162095,-0.042362005039832215,
0.04019950124688279,-0.0014074855584052578,
0.04024937655860349,0.002284049431217917,
0.04029925187032419,-0.01877810864929332,
0.040349127182044885,-0.008913063416014489,
0.04039900249376559,-0.011085300517797565,
0.04044887780548628,-0.013102845629967984,
0.040498753117206986,0.006308929515017818,
0.04054862842892768,-0.03230090474352243,
0.04059850374064838,-0.028635597274732243,
0.04064837905236908,-0.006880739521882616,
0.040698254364089775,-0.040660512264014126,
0.04074812967581047,-0.016718023918614402,
0.040798004987531174,-0.006055963747583918,
0.04084788029925187,0.017674436967866722,
0.040897755610972565,0.011459815792159971,
0.04094763092269327,-0.032103282280685236,
0.04099750623441396,-0.005899645648761948,
0.041047381546134666,-0.04975371636187321,
0.04109725685785536,-0.015371109063159534,
0.04114713216957606,-0.016144407219412,
0.04119700748129676,-0.03337276937124621,
0.041246882793017456,-0.027847169768924335,
0.04129675810473815,0.005271103097163965,
0.041346633416458854,-0.013444875420947279,
0.04139650872817955,-0.03409066439737404,
0.04144638403990025,-0.03516826164305161,
0.04149625935162095,0.007912928177989137,
0.041546134663341644,0.010366634631787924,
0.04159600997506235,-0.006841043602942281,
0.04164588528678304,-0.007307807713399427,
0.04169576059850374,0.0011179448919538797,
0.04174563591022444,0.006626485292512283,
0.041795511221945136,-0.00765645305073522,
0.04184538653366583,0.0010535470579252108,
0.041895261845386535,-0.014939719639303692,
0.04194513715710723,-0.011110475993401859,
0.04199501246882793,-0.011862220065933213,
0.04204488778054863,-0.018233707528848904,
0.042094763092269324,-0.021439082431393953,
0.04214463840399003,0.008597178680416382,
0.04219451371571072,-0.004288166021759188,
0.04224438902743142,-0.002998504019058606,
0.04229426433915212,-0.010591380169953847,
0.04234413965087282,0.005584482219094999,
0.04239401496259352,0.019108754271015813,
0.042443890274314215,-0.0062639462070879556,
0.04249376558603491,-0.009493997920384493,
0.042543640897755614,-0.017600676598452342,
0.04259351620947631,-0.005546220516138223,
0.042643391521197005,0.022909535926464192,
0.04269326683291771,0.033909701947857133,
0.0427431421446384,0.003131196951683184,
0.0427930174563591,0.018913385241466543,
0.0428428927680798,0.022197046325177428,
0.0428927680798005,0.0006488151347009594,
0.0429426433915212,-0.005192750652435411,
0.042992518703241896,-0.010071578062453524,
0.04304239401496259,0.018227378408274552,
0.043092269326683294,0.018933469334255295,
0.04314214463840399,-0.01595332654275384,
0.043192019950124685,-0.010239957128932952,
0.04324189526184539,-0.007886091977819426,
0.043291770573566084,-0.010410881186646643,
0.043341645885286786,0.002342893548461465,
0.04339152119700748,-0.01585642051626195,
0.04344139650872818,-0.02671209420014055,
0.04349127182044888,0.01947489382874669,
0.043541147132169576,0.02015323333798791,
0.04359102244389027,0.0036263840965628227,
0.043640897755610975,-0.0069551071890599815,
0.04369077306733167,-0.005671227534546012,
0.043740648379052366,0.016780510428168277,
0.04379052369077307,0.019825499461151808,
0.043840399002493764,-0.0050206158301460135,
0.04389027431421447,-0.010668005378455274,
0.04394014962593516,0.0033688261301347347,
0.04399002493765586,0.00539138026544852,
0.04403990024937656,0.015978748877022476,
0.04408977556109726,0.010797701610451222,
0.04413965087281795,0.03406973533721246,
0.044189526184538655,0.05037704324614447,
0.04423940149625935,0.016188970443130123,
0.04428927680798005,0.0035353961272994207,
0.04433915211970075,0.0007529070385196316,
0.044389027431421445,-0.012408217923707929,
0.04443890274314215,0.033194383512909514,
0.04448877805486284,-0.0010637481798094223,
0.04453865336658354,-0.011791865303225258,
0.04458852867830424,0.003447085235694836,
0.04463840399002494,0.005628801707247938,
0.04468827930174563,0.013350811620716703,
0.044738154613466335,0.023639286410930466,
0.04478802992518703,0.014018906269517682,
0.044837905236907734,0.01735689195604571,
0.04488778054862843,-0.015917099665131787,
0.044937655860349125,0.015365439994014749,
0.04498753117206983,0.003483125031834209,
0.045037406483790524,0.006780509326429599,
0.04508728179551122,0.010553496819681278,
0.04513715710723192,-0.001180247914866121,
0.04518703241895262,0.011392547905856512,
0.04523690773067331,0.01975857751300842,
0.045286783042394016,-0.011176024805486665,
0.04533665835411471,-0.00860482197634893,
0.045386533665835414,0.004918455193321876,
0.04543640897755611,0.01927506158187625,
0.045486284289276806,0.009638684365639492,
0.04553615960099751,-0.010977322149209587,
0.045586034912718204,0.014823366725275545,
0.0456359102244389,0.03607017779095001,
0.0456857855361596,0.03610215258093177,
0.0457356608478803,0.0027509726698080727,
0.045785536159601,0.053510470360677326,
0.045835411471321696,-0.010207890565398833,
0.04588528678304239,0.041636084640743254,
0.045935162094763095,0.015077552137650553,
0.04598503740648379,0.05370422535142942,
0.046034912718204486,0.021586740984036287,
0.04608478802992519,0.001687326880552363,
0.046134663341645885,0.011060551935483616,
0.04618453865336658,0.027678199862804564,
0.04623441396508728,0.029117613040338157,
0.04628428927680798,0.037148504038877705,
0.04633416458852868,0.043152599517384566,
0.04638403990024938,0.021896668117141596,
0.04643391521197007,0.01391842202319122,
0.046483790523690775,0.010327755701071452,
0.04653366583541147,0.013351438086819697,
0.04658354114713217,0.011242379087862579,
0.04663341645885287,0.029251874902292724,
0.046683291770573565,0.0018139508300238985,
0.04673316708229427,0.019803565640288262,
0.04678304239401496,0.011139847579492582,
0.04683291770573566,0.01589422082826125,
0.04688279301745636,0.004177598006390351,
0.04693266832917706,0.025615159830961968,
0.04698254364089775,-0.003771290991537255,
0.047032418952618456,0.012084310082418028,
0.04708229426433915,0.028435994019254097,
0.04713216957605985,0.021919655654643114,
0.04718204488778055,0.014801550805244914,
0.047231920199501246,0.05075605640077166,
0.04728179551122195,0.043913320809723794,
0.047331670822942644,0.020956717971589288,
0.04738154613466334,0.023812319362867086,
0.04743142144638404,0.003689700671609727,
0.04748129675810474,0.017958384339215493,
0.047531172069825434,0.009972040952209927,
0.047581047381546136,0.050690127797592716,
0.04763092269326683,0.03764444228131909,
0.047680798004987535,0.003207205280038695,
0.04773067331670823,0.023262836034200186,
0.047780548628428926,0.018233953740189164,
0.04783042394014963,0.01915038615024054,
0.047880299251870324,0.022631242795773426,
0.04793017456359102,0.0029444950063977696,
0.04798004987531172,0.009282692714853229,
0.04802992518703242,0.013796368730870676,
0.048079800498753114,0.029367827884836696,
0.04812967581047382,0.02811419029205827,
0.04817955112219451,0.033447806216688095,
0.048229426433915215,0.029502415139153703,
0.04827930174563591,0.03404434878256053,
0.048329177057356607,0.04776089310117246,
0.04837905236907731,0.03039849754595453,
0.048428927680798005,0.021971200724811582,
0.0484788029925187,0.01649085735345157,
0.0485286783042394,0.01082354562482255,
0.0485785536159601,0.026381594617199564,
0.048628428927680795,0.06264997177043027,
0.0486783042394015,0.03209541443998222,
0.04872817955112219,-0.0004960053669512028,
0.048778054862842896,0.005053423238636091,
0.04882793017456359,0.02233679573996894,
0.04887780548628429,0.039693690902368475,
0.04892768079800499,0.010331904653099033,
0.048977556109725685,0.0131665773065489,
0.04902743142144638,0.03363177092727673,
0.049077306733167084,0.044353597445927415,
0.04912718204488778,0.020995368276733938,
0.04917705735660848,0.011474085903948513,
0.04922693266832918,0.04003503238496832,
0.04927680798004987,0.03421736071321048,
0.049326683291770576,0.003438665615703246,
0.04937655860349127,0.046600294452650584,
0.04942643391521197,0.04570954490082081,
0.04947630922693267,0.009629704011944762,
0.049526184538653366,0.028683132199970075,
0.04957605985037406,0.008329217487930671,
0.049625935162094764,0.004438849195472678,
0.04967581047381546,0.04011503800409474,
0.04972568578553616,0.03800088866336309,
0.04977556109725686,-0.009454849484067763,
0.049825436408977554,0.04042005844337215,
0.04987531172069826,0.026670760744698378,
0.04992518703241895,0.008932060874494914,
0.04997506234413965,0.01686885020106314,
0.05002493765586035,0.016860446290271964,
0.050074812967581046,0.021803657700096814,
0.05012468827930175,0.03821433579637354,
0.050174563591022445,-0.0027010499886285233,
0.05022443890274314,0.015561263148962352,
0.05027431421446384,0.01661192644041585,
0.05032418952618454,0.00874931867481215,
0.050374064837905234,0.014372678123517897,
0.05042394014962594,0.030171292027955328,
0.05047381546134663,0.04462331804211431,
0.05052369077306733,0.02599845581366403,
0.05057356608478803,0.03101831497799397,
0.05062344139650873,0.006586315235178461,
0.05067331670822943,0.013406762617682486,
0.050723192019950125,0.0031244347092304545,
0.05077306733167082,0.020171421155056875,
0.050822942643391524,0.006721571626964486,
0.05087281795511222,0.04058256747452804,
0.050922693266832915,0.004091192372080665,
0.05097256857855362,0.02770165211524099,
0.05102244389027431,0.0031785792383134254,
0.051072319201995016,0.015278003953974967,
0.05112219451371571,0.009559518177566837,
0.05117206982543641,0.012315614022415773,
0.05122194513715711,0.041345208813267684,
0.051271820448877806,0.009428764975974877,
0.0513216957605985,0.03476240366685526,
0.051371571072319204,0.011025549950307866,
0.0514214463840399,-0.004862675425340128,
0.051471321695760595,0.00516191293839972,
0.0515211970074813,0.022564573684007074,
0.051571072319201994,0.017328404955101465,
0.051620947630922696,-0.0005108050808910625,
0.05167082294264339,-0.00135359781318916,
0.05172069825436409,0.01320372063708956,
0.05177057356608479,0.0059845277783832935,
0.051820448877805486,-0.006541615901067567,
0.05187032418952618,0.015409972837518156,
0.051920199501246884,0.014603701159545464,
0.05197007481296758,0.003398855208635771,
0.052019950124688276,0.005455246027512571,
0.05206982543640898,0.010440170775466941,
0.052119700748129674,0.014748409469467118,
0.05216957605985038,0.03351755276848008,
0.05221945137157107,0.025714786895196073,
0.05226932668329177,0.02692153304580176,
0.05231920199501247,0.022185868307415896,
0.05236907730673317,0.0352129207100465,
0.05241895261845386,0.0066294666009062385,
0.052468827930174565,-0.00897679355947823,
0.05251870324189526,0.010782135579096021,
0.05256857855361596,0.02103777010698368,
0.05261845386533666,0.009487959033879015,
0.052668329177057355,-0.017499975877367444,
0.05271820448877806,0.027767221930025968,
0.05276807980049875,0.0030741746603724467,
0.05281795511221945,0.04256542959646435,
0.05286783042394015,0.02089684250102395,
0.05291770573566085,-0.0021530513723511304,
0.05296758104738154,-0.007932062157778058,
0.053017456359102245,0.012210805320997477,
0.05306733167082294,0.0076231868354333125,
0.053117206982543644,0.004274286442386815,
0.05316708229426434,0.012043194066746123,
0.053216957605985035,0.006614530462837046,
0.05326683291770574,0.0023724131916612453,
0.053316708229426434,-0.002808019657875433,
0.05336658354114713,0.029131985460959343,
0.05341645885286783,-0.014130645061470203,
0.05346633416458853,0.019440218007919154,
0.05351620947630923,0.005433221529466717,
0.053566084788029926,-0.022192875920151598,
0.05361596009975062,-0.029359362429055357,
0.053665835411471324,0.009348881068477984,
0.05371571072319202,0.00648028667618981,
0.053765586034912716,0.007796390652938375,
0.05381546134663342,0.016223989852269322,
0.053865336658354114,0.009227927364033075,
0.05391521197007481,0.00992774207873828,
0.05396508728179551,0.0024906199027664925,
0.05401496259351621,0.004174946870194509,
0.05406483790523691,-0.003196921561182271,
0.054114713216957606,0.0022381737702305247,
0.0541645885286783,-0.007941523233321706,
0.054214463840399005,0.013791174421770714,
0.0542643391521197,0.013716549379388723,
0.054314214463840396,0.0020339506015407123,
0.0543640897755611,-0.0002353102390192821,
0.054413965087281795,-0.010137317602542951,
0.0544638403990025,-0.011170863289312414,
0.05451371571072319,-0.006132486717369376,
0.05456359102244389,0.014670969563496934,
0.05461346633416459,-0.00840616785488814,
0.05466334164588529,0.005352270595544083,
0.05471321695760598,0.000413220817812861,
0.054763092269326685,0.001683981913430813,
0.05481296758104738,-0.011138097080993574,
0.05486284289276808,-0.008192927791675474,
0.05491271820448878,-0.03323865818883317,
0.054962593516209475,0.003950480943597839,
0.05501246882793018,-0.016614588736699007,
0.05506234413965087,0.016178411025704727,
0.05511221945137157,0.029735461258040746,
0.05516209476309227,0.014030421639324353,
0.05521197007481297,-0.021709979510426018,
0.05526184538653366,-0.011887608351425131,
0.055311720698254366,-0.0003171639782929272,
0.05536159600997506,-0.024529839653101026,
0.05541147132169576,-0.018690863657624134,
0.05546134663341646,0.0038918227976748026,
0.055511221945137156,0.005968430632763195,
0.05556109725685786,-0.004526145246399714,
0.055610972568578554,0.0022397865179889925,
0.05566084788029925,0.007322745901470381,
0.05571072319201995,-0.010594098063401877,
0.05576059850374065,-0.017765153939715964,
0.055810473815461344,0.024782909789280053,
0.055860349127182046,0.002934626244190575,
0.05591022443890274,-0.0018169181247124433,
0.055960099750623445,-0.01917613274053494,
0.05600997506234414,-0.025154776802325376,
0.056059850374064836,0.0006848665380775696,
0.05610972568578554,-0.01952895896835689,
0.056159600997506234,-0.0026506901641198764,
0.05620947630922693,-0.01622085150562895,
0.05625935162094763,0.005903431190384159,
0.05630922693266833,-0.007453992343091529,
0.056359102244389024,-0.018047590332685246,
0.05640897755610973,-0.002983763978720416,
0.05645885286783042,-0.0072894446978700326,
0.056508728179551125,-0.015404293593387856,
0.05655860349127182,-0.016604236778134173,
0.056608478802992516,-0.03100704823440969,
0.05665835411471322,-0.020272179158560673,
0.056708229426433915,0.017945061411377222,
0.05675810473815461,-0.022062930048654457,
0.05680798004987531,-0.029251353196943976,
0.05685785536159601,0.022049457288346168,
0.05690773067331671,-0.0010301531574774172,
0.05695760598503741,0.00444453293793266,
0.0570074812967581,-0.010793451658885289,
0.057057356608478806,-0.01978328325569567,
0.0571072319201995,-0.0537736671802405,
0.0571571072319202,-0.044590735835710944,
0.0572069825436409,-0.024321587236431765,
0.057256857855361595,0.023878301094802525,
0.05730673316708229,-0.02539551833814789,
0.057356608478802994,-0.03569607632102384,
0.05740648379052369,-0.002334622143272418,
0.05745635910224439,-0.0043564582562195114,
0.05750623441396509,-0.006132784591526035,
0.05755610972568578,-0.009739578272474462,
0.057605985037406486,0.0007039179752378454,
0.05765586034912718,-0.016886705994158202,
0.05770573566084788,-0.02516089796884427,
0.05775561097256858,-0.028689463781539637,
0.057805486284289276,-0.0022046637235340425,
0.05785536159600998,0.01428548071705279,
0.057905236907730674,-0.007155967655530943,
0.05795511221945137,-0.004168892732515325,
0.05800498753117207,0.027406119492049814,
0.05805486284289277,-0.01226930866014871,
0.058104738154613464,-0.009141751613893086,
0.05815461346633417,-0.02152744828328905,
0.05820448877805486,-0.005659862347732695,
0.05825436408977556,-0.010715895538920193,
0.05830423940149626,-0.03319613569023196,
0.058354114713216956,-0.007731428160618075,
0.05840399002493766,-0.026793997991195345,
0.058453865336658355,-0.025793221995760868,
0.05850374064837905,0.006883000601428012,
0.05855361596009975,-0.024379379713113714,
0.05860349127182045,-0.027035658607269496,
0.058653366583541144,-0.01279879758496828,
0.05870324189526185,-0.01872624216795486,
0.05875311720698254,-0.02136993933170315,
0.05880299251870324,-0.02939654943923404,
0.05885286783042394,-0.014088265299896607,
0.05890274314214464,0.01761996231282216,
0.05895261845386534,-0.0141375857593741,
0.059002493765586035,-0.01904754982342254,
0.05905236907730673,-0.01280102011305984,
0.059102244389027433,-0.010405810566215685,
0.05915211970074813,-0.006799327928819319,
0.059201995012468825,-0.019674133123649042,
0.05925187032418953,-0.0332080256665291,
0.05930174563591022,0.008520295767640386,
0.059351620947630926,-0.031721567732550554,
0.05940149625935162,-0.020589480119126015,
0.05945137157107232,-0.013360905946332586,
0.05950124688279302,-0.004100747666061794,
0.059551122194513716,-0.03397882758914478,
0.05960099750623441,-0.017090408235016834,
0.059650872817955114,-0.03449238932946319,
0.05970074812967581,-0.02412897772459395,
0.059750623441396505,-0.02613345919066776,
0.05980049875311721,-0.023891836921859252,
0.059850374064837904,-0.0007054871052522404,
0.059900249376558606,-0.011020587310605538,
0.0599501246882793,0.0014264148995556704,
0.06,-0.004349078158488458,
0.0600498753117207,-0.015760103320631606,
0.060099750623441396,-0.011973858850808577,
0.06014962593516209,0.010402570332590878,
0.060199501246882794,-0.031242341495553216,
0.06024937655860349,-0.0030974307280540406,
0.06029925187032419,-0.01392519220741916,
0.06034912718204489,-0.00812117258938725,
0.060399002493765584,0.0024034535380222013,
0.06044887780548629,-0.0019193590139787615,
0.06049875311720698,-0.0074116524375306735,
0.06054862842892768,-0.023422118651877856,
0.06059850374064838,-0.020078597783678383,
0.06064837905236908,-0.016904937100854417,
0.06069825436408977,-0.010337928837746034,
0.060748129675810475,0.0015103912828734276,
0.06079800498753117,-0.016134918058647786,
0.06084788029925187,-0.02799288701689813,
0.06089775561097257,-0.005097017816284471,
0.060947630922693265,0.0017904988583310275,
0.06099750623441397,-0.016773002584388776,
0.06104738154613466,-0.019916920460520293,
0.06109725685785536,-0.015836526339850776,
0.06114713216957606,-0.009865061771431231,
0.06119700748129676,0.01282090049916508,
0.06124688279301746,-0.006697317653511883,
0.061296758104738155,-0.01979593084782092,
0.06134663341645885,0.017186559439726974,
0.061396508728179554,-0.006607388978762373,
0.06144638403990025,0.021679606777825038,
0.061496259351620945,-0.008219947003541395,
0.06154613466334165,0.004216258787860763,
0.061596009975062344,-0.011112074237239316,
0.06164588528678304,-0.013132673680430319,
0.06169576059850374,-0.007448797675889185,
0.06174563591022444,0.011702819550429178,
0.06179551122194514,-0.021199894362201526,
0.061845386533665836,0.0032910566603474266,
0.06189526184538653,0.011988025427331815,
0.061945137157107234,-0.029193259860802248,
0.06199501246882793,0.011157865539178056,
0.062044887780548626,-0.0358352016625143,
0.06209476309226933,-0.026171874846232387,
0.062144638403990024,0.020612331487744363,
0.06219451371571072,-0.012238710771322162,
0.06224438902743142,-0.0017863341475053203,
0.06229426433915212,0.006428519605449326,
0.06234413965087282,0.008407340324099831,
0.062394014962593516,0.004557317036262475,
0.06244389027431421,-0.00018899686254442378,
0.062493765586034915,-0.014393526294283372,
0.06254364089775562,0.01265140818811987,
0.06259351620947631,0.0077151362585046335,
0.06264339152119701,0.020416442396563834,
0.0626932668329177,0.0022252261137383246,
0.0627431421446384,-0.019017916769542804,
0.0627930174563591,-0.00903550016309626,
0.0628428927680798,0.014850325545569018,
0.0628927680798005,-0.012147370316152263,
0.0629426433915212,0.03466417110567391,
0.06299251870324189,-0.004621795437223063,
0.06304239401496259,0.008786678182141947,
0.0630922693266833,-0.00868799699655468,
0.063142144638404,0.0015444781231607645,
0.06319201995012469,-0.011376634446664941,
0.06324189526184539,-0.009249356447273508,
0.06329177057356608,-0.015987583170861047,
0.06334164588528678,-0.00661819000787848,
0.06339152119700749,0.0102315482474131,
0.06344139650872818,0.0035848060850833985,
0.06349127182044888,0.007467468255762872,
0.06354114713216957,-0.0008842936963798648,
0.06359102244389027,0.023285191214754454,
0.06364089775561098,-0.00956375178873924,
0.06369077306733167,0.010067005740218352,
0.06374064837905237,0.004809268809456932,
0.06379052369077307,0.0023222453283869467,
0.06384039900249376,-0.015873083698471797,
0.06389027431421446,0.04030862895555363,
0.06394014962593517,-0.010174802789608618,
0.06399002493765586,0.02706973249841381,
0.06403990024937656,-0.005735497601917173,
0.06408977556109725,-0.0013944087389859937,
0.06413965087281795,-0.00332943227871608,
0.06418952618453866,0.03480439733518623,
0.06423940149625935,0.026106672259175942,
0.06428927680798005,0.014092531708806397,
0.06433915211970075,0.006306736385545256,
0.06438902743142144,-0.01146447949992576,
0.06443890274314215,0.03332533337380657,
0.06448877805486285,-0.001190420653424104,
0.06453865336658354,-0.00114521876813636,
0.06458852867830424,0.007329644502878668,
0.06463840399002493,0.00763260477955766,
0.06468827930174563,0.007252033708387647,
0.06473815461346634,0.018726229106255828,
0.06478802992518704,0.00024584360293265425,
0.06483790523690773,-0.026215230321320677,
0.06488778054862843,0.0024172095378182604,
0.06493765586034912,0.02272582309164809,
0.06498753117206983,0.0016872511502798032,
0.06503740648379053,-0.0005997041431353503,
0.06508728179551122,-0.02036430005514909,
0.06513715710723192,0.016084998396570207,
0.06518703241895261,0.02191071856518679,
0.06523690773067331,0.023917383526340364,
0.06528678304239402,0.006673313969162108,
0.06533665835411472,0.01929830502597066,
0.06538653366583541,0.009658957695822094,
0.06543640897755611,0.044335979619475135,
0.0654862842892768,0.029587823230144743,
0.06553615960099751,0.026455007446417718,
0.06558603491271821,0.03258284033400075,
0.0656359102244389,0.02154927127997053,
0.0656857855361596,0.027272970327545047,
0.0657356608478803,-0.002132738616692033,
0.06578553615960099,0.014386906190195895,
0.0658354114713217,0.024981127214196163,
0.0658852867830424,0.006134548521549696,
0.06593516209476309,0.008598317587380883,
0.06598503740648379,0.0117646168811356,
0.06603491271820448,0.034853916006009136,
0.06608478802992519,-0.00336530108361564,
0.06613466334164589,0.010295621673527402,
0.06618453865336658,0.037958155944119096,
0.06623441396508728,-0.00687937754235439,
0.06628428927680798,0.03587882672580157,
0.06633416458852869,0.013578933360078857,
0.06638403990024938,0.005212739847825913,
0.06643391521197008,0.01464492788824446,
0.06648379052369077,0.01609169258304796,
0.06653366583541147,0.006545353355942947,
0.06658354114713216,0.00972378888135838,
0.06663341645885287,0.014572030187709266,
0.06668329177057357,0.02314252004958315,
0.06673316708229426,0.0430321927779275,
0.06678304239401496,0.038034984317770415,
0.06683291770573566,0.0016187537916852214,
0.06688279301745637,0.04164424422719418,
0.06693266832917706,0.024425865985965148,
0.06698254364089776,0.025422753078643605,
0.06703241895261845,0.03466610282454427,
0.06708229426433915,0.024760579951008672,
0.06713216957605984,0.020890270377439128,
0.06718204488778055,-0.007110258049099816,
0.06723192019950125,0.014223059862944296,
0.06728179551122195,0.021259418805781072,
0.06733167082294264,-0.002241475322508412,
0.06738154613466334,0.03745619163148027,
0.06743142144638405,-0.002417911325302516,
0.06748129675810474,0.007781003413632883,
0.06753117206982544,0.03374847866212538,
0.06758104738154613,0.03169730816779754,
0.06763092269326683,0.009452604665498115,
0.06768079800498752,0.022136684335700433,
0.06773067331670823,0.0008990651221563693,
0.06778054862842893,0.009611572505073308,
0.06783042394014963,0.05133245148685956,
0.06788029925187032,-0.016520425685560718,
0.06793017456359102,0.04424529375951175,
0.06798004987531173,0.002237161952297822,
0.06802992518703242,0.004268496414779964,
0.06807980049875312,0.03023715921946546,
0.06812967581047381,0.030590320083419557,
0.06817955112219451,0.046728806084964686,
0.0682294264339152,0.03950175566949514,
0.06827930174563591,0.02779764895163108,
0.06832917705735661,0.010914351542081412,
0.0683790523690773,0.014397374716050862,
0.068428927680798,0.026955810513347493,
0.0684788029925187,0.04149729233955029,
0.06852867830423941,0.01696483047653992,
0.0685785536159601,0.04599482401962897,
0.0686284289276808,0.03668617093920716,
0.0686783042394015,-0.020334175294183795,
0.06872817955112219,0.03683207364772677,
0.0687780548628429,0.028247782456411408,
0.0688279301745636,0.030850756243671507,
0.06887780548628429,0.025567329903978316,
0.06892768079800499,0.01562156480791678,
0.06897755610972568,0.015940393250528425,
0.06902743142144638,0.02596531078770817,
0.06907730673316709,0.026701300104845227,
0.06912718204488778,-0.0014719774306782216,
0.06917705735660848,0.006109529718862427,
0.06922693266832917,-0.0042054480011717195,
0.06927680798004987,0.014690743194846858,
0.06932668329177058,0.011071949018993653,
0.06937655860349128,0.03359257609268339,
0.06942643391521197,0.03160431335723041,
0.06947630922693267,0.026144278368187952,
0.06952618453865336,0.010090749882330835,
0.06957605985037406,0.016360624658283272,
0.06962593516209477,0.047202610923525845,
0.06967581047381546,0.027738343978998305,
0.06972568578553616,0.029436366975136248,
0.06977556109725686,0.03065671894211077,
0.06982543640897755,0.03130397547524326,
0.06987531172069826,0.031023363649622403,
0.06992518703241896,0.006479608912295442,
0.06997506234413965,0.04287774694000792,
0.07002493765586035,0.029706469524406087,
0.07007481296758104,0.03498278343027348,
0.07012468827930174,0.01205788113181937,
0.07017456359102245,0.027878985840961296,
0.07022443890274314,0.0010315321018243874,
0.07027431421446384,0.016512754816907126,
0.07032418952618454,0.03522257880281725,
0.07037406483790523,0.0001236237814747146,
0.07042394014962594,-0.003645414853685261,
0.07047381546134664,0.06108928554839804,
0.07052369077306733,-0.0065339773315459745,
0.07057356608478803,0.011174307748638453,
0.07062344139650872,0.034341050889307397,
0.07067331670822943,0.021998464363886007,
0.07072319201995013,0.010879298576012764,
0.07077306733167082,0.0001717563196792747,
0.07082294264339152,0.03471797806609413,
0.07087281795511222,0.02099569398944104,
0.07092269326683291,-0.001565200644042957,
0.07097256857855362,0.015707705121147095,
0.07102244389027432,0.012352533367399568,
0.07107231920199501,0.017752899407210948,
0.07112219451371571,0.018642756094166248,
0.0711720698254364,0.036037356365715485,
0.07122194513715711,0.04062010187909594,
0.07127182044887781,-0.010280000595435497,
0.0713216957605985,0.033273546029707224,
0.0713715710723192,0.026525598810182394,
0.0714214463840399,0.012075812648395176,
0.07147132169576059,0.00901914112405169,
0.0715211970074813,0.0024104491252831817,
0.071571072319202,0.026668410594802988,
0.0716209476309227,0.02741572425939014,
0.07167082294264339,0.020325935386816003,
0.07172069825436408,0.020382232353390248,
0.0717705735660848,0.016037429120789787,
0.07182044887780549,0.011120770421359897,
0.07187032418952619,0.048253112009591426,
0.07192019950124688,-0.007742580358416965,
0.07197007481296758,0.019093321765282698,
0.07201995012468827,-0.005842086129976692,
0.07206982543640898,0.005955359886392895,
0.07211970074812968,0.0017302872034005486,
0.07216957605985037,0.0014574766775731947,
0.07221945137157107,0.006653035255254234,
0.07226932668329177,0.009858449446365275,
0.07231920199501247,0.019793594350126408,
0.07236907730673317,0.0189217496925961,
0.07241895261845387,0.01876743048915633,
0.07246882793017456,-0.007506279161819552,
0.07251870324189526,-0.020473048816689488,
0.07256857855361595,-0.005393944922773817,
0.07261845386533666,0.015139703334560935,
0.07266832917705736,0.004779046577997144,
0.07271820448877805,0.016596352954551124,
0.07276807980049875,-0.00799003620036532,
0.07281795511221945,0.00229984386769812,
0.07286783042394016,0.00503410849747858,
0.07291770573566085,0.001561891981391469,
0.07296758104738155,0.011447818572523097,
0.07301745635910224,-0.0005272277815607067,
0.07306733167082294,0.009200145874689238,
0.07311720698254365,0.013168053120710456,
0.07316708229426434,-0.00021513688567085035,
0.07321695760598504,-0.00498823818865045,
0.07326683291770573,-0.002275776703708616,
0.07331670822942643,0.002077188519111455,
0.07336658354114713,-0.005715227860833898,
0.07341645885286784,0.008123843023481885,
0.07346633416458853,-0.007572425071871074,
0.07351620947630923,0.022961062671727227,
0.07356608478802992,-0.009086556853821544,
0.07361596009975062,0.004614543567296327,
0.07366583541147133,0.019061004462450636,
0.07371571072319202,-0.00012762275960987845,
0.07376558603491272,0.01792555718443413,
0.07381546134663342,-0.0018195719989716574,
0.07386533665835411,-0.0027146072317257033,
0.0739152119700748,0.007517422459656852,
0.07396508728179552,0.019867831211564345,
0.07401496259351621,0.024816669391245463,
0.07406483790523691,0.0001806900088877363,
0.0741147132169576,-0.009496448746333397,
0.0741645885286783,-0.015166625211974202,
0.07421446384039901,0.0011933866378742016,
0.0742643391521197,-0.002844690127736348,
0.0743142144638404,0.0077729310130668135,
0.0743640897755611,0.018642941546552404,
0.07441396508728179,0.01666975081179617,
0.07446384039900249,0.004973580191152279,
0.0745137157107232,-0.014286436710467476,
0.07456359102244389,0.009367889086870453,
0.07461346633416459,-0.029561792884522285,
0.07466334164588528,-0.018278971103276438,
0.07471321695760598,-0.026207582929144328,
0.07476309226932669,-0.00046816839325460264,
0.07481296758104738,0.005237660714217637,
0.07486284289276808,0.03265520129721114,
0.07491271820448878,0.009272752719397481,
0.07496259351620947,0.009197007747191874,
0.07501246882793017,0.02655840207221505,
0.07506234413965088,0.021498245732302114,
0.07511221945137157,0.017550896267482154,
0.07516209476309227,-0.010507743803924358,
0.07521197007481296,0.001385201350941819,
0.07526184538653366,-0.0014165661530997236,
0.07531172069825437,0.00112702254371523,
0.07536159600997507,-0.01578905001572304,
0.07541147132169576,0.025801396367894518,
0.07546134663341646,0.006488977321948377,
0.07551122194513715,0.0031299016738302555,
0.07556109725685786,-0.023352777280994375,
0.07561097256857856,0.031065486259044577,
0.07566084788029925,0.008968614883175283,
0.07571072319201995,0.012954302039579486,
0.07576059850374064,-0.0013832901085302106,
0.07581047381546134,0.005087075406349681,
0.07586034912718205,-0.026548361838074075,
0.07591022443890275,-0.013882673617819523,
0.07596009975062344,-0.009815325015924987,
0.07600997506234414,-0.015825851324865525,
0.07605985037406483,-0.0016642208851871737,
0.07610972568578554,-0.020272256546508723,
0.07615960099750624,-0.022754403503641177,
0.07620947630922693,-0.016818402121480225,
0.07625935162094763,-0.015190814476822852,
0.07630922693266833,0.016382428215613087,
0.07635910224438902,-0.01923883678553513,
0.07640897755610973,-0.009184048441451318,
0.07645885286783043,0.015489271498775728,
0.07650872817955112,-0.0012077280692345902,
0.07655860349127182,-0.01154573877450556,
0.07660847880299251,0.00567788290985884,
0.07665835411471322,9.814241615446924e-05,
0.07670822942643392,-0.008244898040849304,
0.07675810473815461,0.007194041138157189,
0.07680798004987531,-0.007522579212204306,
0.076857855361596,-0.010887081477891632,
0.0769077306733167,-0.010630344277762762,
0.07695760598503741,-0.03542118403527467,
0.0770074812967581,-0.01678463111940349,
0.0770573566084788,0.003390067829129477,
0.0771072319201995,-0.013275304249479977,
0.0771571072319202,-0.013440725552272402,
0.0772069825436409,-0.013017756065395923,
0.0772568578553616,0.020024376898831492,
0.0773067331670823,-0.016902240818807545,
0.07735660847880299,-0.012935985384494584,
0.07740648379052369,-0.01302225855105313,
0.0774563591022444,0.023178180193685984,
0.07750623441396509,-0.030446785969615288,
0.07755610972568579,0.021466478441268026,
0.07760598503740648,-0.04188807508685771,
0.07765586034912718,-0.0250769060472496,
0.07770573566084787,-0.03425905224804934,
0.07775561097256858,-0.025005537306142314,
0.07780548628428928,-0.014550857595463722,
0.07785536159600998,-0.022168043368634024,
0.07790523690773067,-0.028303616706757493,
0.07795511221945137,-0.013164447018989858,
0.07800498753117208,-0.004312492603434942,
0.07805486284289277,-0.024990714758542257,
0.07810473815461347,-0.027445372721649076,
0.07815461346633416,-0.021318232516666952,
0.07820448877805486,-0.04012196185029145,
0.07825436408977555,-0.014127408273898885,
0.07830423940149626,-0.015327931727680643,
0.07835411471321696,0.010506878651056165,
0.07840399002493766,-0.019700302318890202,
0.07845386533665835,-0.016869451956549063,
0.07850374064837905,-0.015473110304463118,
0.07855361596009976,0.0032693103520579463,
0.07860349127182045,-0.022968980002024644,
0.07865336658354115,-0.009815361401903321,
0.07870324189526184,0.0024964437071790073,
0.07875311720698254,0.008083758557456078,
0.07880299251870324,-0.030927251950903567,
0.07885286783042394,-0.008644398780219931,
0.07890274314214464,-0.022661142971032902,
0.07895261845386534,-0.01306595897382387,
0.07900249376558603,-0.015488259280844519,
0.07905236907730673,-0.013736847883237487,
0.07910224438902744,-0.0011169503026802197,
0.07915211970074813,0.012565358232577128,
0.07920199501246883,-0.01765383705203115,
0.07925187032418952,-0.018575592926794292,
0.07930174563591022,-0.018405944116408536,
0.07935162094763092,-0.05069480381892255,
0.07940149625935163,0.007169461887270863,
0.07945137157107232,-0.03274585652143745,
0.07950124688279302,-0.022293098550730424,
0.07955112219451371,-0.02476996274828993,
0.07960099750623441,-0.02314206493756557,
0.07965087281795512,-0.005428181620302177,
0.07970074812967581,-0.01935822174185819,
0.07975062344139651,-0.014409642724436036,
0.0798004987531172,-0.021962197140692582,
0.0798503740648379,0.0019278659110665425,
0.07990024937655861,-0.023039418241460496,
0.0799501246882793,0.006521147646054031,
0.08,-0.02101775274960007,
0.0800498753117207,-0.004797680714492642,
0.0800997506234414,-0.008834983673652576,
0.08014962593516209,-0.016242368837597145,
0.0801995012468828,-0.010769085758079621,
0.0802493765586035,-0.017237225975245733,
0.08029925187032419,-0.019853365154392115,
0.08034912718204489,-0.0238962872890991,
0.08039900249376558,-0.016668733094691936,
0.08044887780548629,-0.010940036083340245,
0.08049875311720699,-0.01958708595697454,
0.08054862842892768,-0.021029166188080463,
0.08059850374064838,0.0027305828050976505,
0.08064837905236907,-0.048534953975414304,
0.08069825436408977,-0.007409636553100264,
0.08074812967581048,-0.0061175833183888945,
0.08079800498753117,0.0014005569835401684,
0.08084788029925187,-0.010743066702894976,
0.08089775561097257,0.004683826392610269,
0.08094763092269326,-0.01936407035257567,
0.08099750623441397,-0.030524663015527295,
0.08104738154613467,-0.013404328886652158,
0.08109725685785536,-0.008214958425071882,
0.08114713216957606,-0.009254118399028323,
0.08119700748129675,0.005800941303426406,
0.08124688279301745,-0.008530881883232677,
0.08129675810473816,-0.001493924501216999,
0.08134663341645886,-0.022811870707307183,
0.08139650872817955,-0.021352998329096144,
0.08144638403990025,-0.005635730494878859,
0.08149625935162094,-0.01818354969797422,
0.08154613466334165,-0.009109336529079286,
0.08159600997506235,-0.023002978856247507,
0.08164588528678304,0.009442352730528479,
0.08169576059850374,-0.0008272360833066301,
0.08174563591022443,-0.010438772806197288,
0.08179551122194513,0.021011958376486995,
0.08184538653366584,0.010191728015179913,
0.08189526184538654,-0.0006824595834880615,
0.08194513715710723,0.005486216998974625,
0.08199501246882793,0.013820052071102349,
0.08204488778054862,-0.0060666623878384614,
0.08209476309226933,-0.02256517692858239,
0.08214463840399003,-0.008971433055603599,
0.08219451371571072,0.01157785834249462,
0.08224438902743142,0.017449926906115035,
0.08229426433915212,0.01766999682095396,
0.08234413965087282,0.011978198072775793,
0.08239401496259352,0.016258550394095746,
0.08244389027431422,0.012553873051716173,
0.08249376558603491,-0.010590543959700743,
0.08254364089775561,0.026016659190907652,
0.0825935162094763,0.02731559186052211,
0.08264339152119701,0.015373178218922777,
0.08269326683291771,-0.005659195674794519,
0.0827431421446384,0.010843607363192447,
0.0827930174563591,-0.009442140529910985,
0.0828428927680798,-0.004938528256035365,
0.0828927680798005,-0.002196094745872924,
0.0829426433915212,0.028022964869206857,
0.0829925187032419,-0.0058635674225876126,
0.08304239401496259,0.023854438497292303,
0.08309226932668329,0.01594175874462658,
0.08314214463840398,0.012098225610689965,
0.0831920199501247,0.017088362874697755,
0.08324189526184539,0.008880213316062764,
0.08329177057356608,-0.009866187449466837,
0.08334164588528678,0.024663247947160523,
0.08339152119700748,-0.015533450152446417,
0.08344139650872819,-0.006609145402063935,
0.08349127182044888,-0.002851692341803925,
0.08354114713216958,0.024029463054250487,
0.08359102244389027,-0.00636923411400149,
0.08364089775561097,-0.001483216691505698,
0.08369077306733166,0.023972568892320106,
0.08374064837905237,0.013839688431976423,
0.08379052369077307,0.007974064257191814,
0.08384039900249377,-0.012237820520519901,
0.08389027431421446,-0.009388281214182316,
0.08394014962593516,0.013040133235540298,
0.08399002493765587,-0.021626454847922187,
0.08403990024937656,-0.005806073272119646,
0.08408977556109726,0.027275809430879924,
0.08413965087281795,0.02475994214211736,
0.08418952618453865,0.011395874828013007,
0.08423940149625936,0.011217449484946816,
0.08428927680798005,0.0009290364372803034,
0.08433915211970075,-0.01098903507383121,
0.08438902743142145,0.003137452842737719,
0.08443890274314214,0.02804996090429547,
0.08448877805486284,0.0038245960159272677,
0.08453865336658355,0.011229603841936981,
0.08458852867830424,-0.0009216179095458306,
0.08463840399002494,-0.008189419567148318,
0.08468827930174563,0.012622953512852298,
0.08473815461346633,-0.0018454261754354655,
0.08478802992518704,-0.001962162738442713,
0.08483790523690773,-0.0006207879173222419,
0.08488778054862843,0.036128973837975954,
0.08493765586034913,-0.0004064797362396365,
0.08498753117206982,-0.010105434476063744,
0.08503740648379052,0.022176063629255317,
0.08508728179551123,0.016280032551289094,
0.08513715710723192,-0.010115892135235685,
0.08518703241895262,0.005737378033287811,
0.08523690773067331,0.005191641300082948,
0.08528678304239401,0.0268013694774909,
0.08533665835411472,0.010943713315780399,
0.08538653366583542,0.004693887436789494,
0.08543640897755611,0.01073985127748316,
0.0854862842892768,0.0049984982867676015,
0.0855361596009975,0.01325900661308154,
0.0855860349127182,0.0050227860347014704,
0.08563591022443891,0.0047907760948021835,
0.0856857855361596,0.019408395765575355,
0.0857356608478803,-0.006589291222367771,
0.085785536159601,0.010788627129460196,
0.08583541147132169,0.027340267336341775,
0.0858852867830424,0.03892880026443736,
0.0859351620947631,0.009232710643939393,
0.08598503740648379,0.015112497062576544,
0.08603491271820449,0.02817828525533923,
0.08608478802992518,0.014562527386902797,
0.08613466334164588,0.03353064132461234,
0.08618453865336659,0.007153744725946196,
0.08623441396508728,0.021408798678124386,
0.08628428927680798,0.05140301127511493,
0.08633416458852868,0.006217834646833526,
0.08638403990024937,0.03509397104968686,
0.08643391521197008,0.04739178506268986,
0.08648379052369078,0.028520364879639964,
0.08653366583541147,0.01028342949114496,
0.08658354114713217,0.04824153788294706,
0.08663341645885286,0.003362243933783187,
0.08668329177057357,0.03472199813287685,
0.08673316708229427,0.06460865126144026,
0.08678304239401496,0.01727695140324117,
0.08683291770573566,0.021761195144388082,
0.08688279301745636,0.06888586596077159,
0.08693266832917705,0.012998126911284508,
0.08698254364089776,0.01007516480527109,
0.08703241895261846,0.031019095918045723,
0.08708229426433915,0.03529368159345039,
0.08713216957605985,0.02469876388117587,
0.08718204488778054,0.005898326924046859,
0.08723192019950125,0.020044438026353126,
0.08728179551122195,0.038756255650851626,
0.08733167082294264,0.017720938648754413,
0.08738154613466334,0.014321978894203368,
0.08743142144638404,0.002924477328451216,
0.08748129675810473,0.04135035899725287,
0.08753117206982544,0.01852510881414974,
0.08758104738154614,0.03327694776671699,
0.08763092269326683,0.05429893323581663,
0.08768079800498753,0.040211438701992924,
0.08773067331670822,0.03049204609708212,
0.08778054862842893,0.03325514992613645,
0.08783042394014963,0.056718854906279384,
0.08788029925187033,0.03790619930249563,
0.08793017456359102,0.01780898723357334,
0.08798004987531172,0.01982691237584991,
0.08802992518703241,0.03468174771706094,
0.08807980049875312,0.039851202548940465,
0.08812967581047382,0.020813881820675006,
0.08817955112219451,0.030883258254776905,
0.08822942643391521,0.035798860502192394,
0.0882793017456359,0.04235989085807863,
0.08832917705735661,0.03563013737858911,
0.08837905236907731,0.022091277173795942,
0.088428927680798,0.022096344732551093,
0.0884788029925187,0.003838490140717462,
0.0885286783042394,0.021584687304143334,
0.0885785536159601,0.030035474367477423,
0.0886284289276808,0.061442304350857686,
0.0886783042394015,0.02933568374189474,
0.0887281795511222,0.014451429499418751,
0.08877805486284289,0.013869919662464364,
0.08882793017456359,0.010222789676599026,
0.0888778054862843,0.03130929118759891,
0.08892768079800499,0.004161491505364975,
0.08897755610972569,0.021140378282080582,
0.08902743142144638,0.02460953553500937,
0.08907730673316708,0.03928650676655059,
0.08912718204488779,0.026127240660966194,
0.08917705735660848,0.02240450687671119,
0.08922693266832918,0.046088276756211084,
0.08927680798004987,0.02334203383754491,
0.08932668329177057,0.01356552872002512,
0.08937655860349127,0.0339880912477966,
0.08942643391521198,0.00676942950553297,
0.08947630922693267,0.019870790734080445,
0.08952618453865337,0.05408406728148782,
0.08957605985037406,0.015068485145201774,
0.08962593516209476,0.03830096773876776,
0.08967581047381547,0.038969361975747865,
0.08972568578553616,0.009479064475133341,
0.08977556109725686,0.03053245677124317,
0.08982543640897755,0.020782981204273243,
0.08987531172069825,0.02599744866872778,
0.08992518703241895,0.027559171221601213,
0.08997506234413966,0.013623586405843196,
0.09002493765586035,0.019058058322940153,
0.09007481296758105,0.03333799456857077,
0.09012468827930174,0.02269589238532812,
0.09017456359102244,0.003276623219821067,
0.09022443890274315,0.024677238526469483,
0.09027431421446384,0.03201529455076725,
0.09032418952618454,0.021379018822805684,
0.09037406483790524,0.022103185911854912,
0.09042394014962593,0.01309319034469105,
0.09047381546134663,0.02617480839366625,
0.09052369077306734,0.03746531813515595,
0.09057356608478803,0.03564291145463478,
0.09062344139650873,0.027077700405645434,
0.09067331670822942,-0.008879181012216991,
0.09072319201995012,0.008383805580105597,
0.09077306733167083,0.016855813510604216,
0.09082294264339152,0.03346927493092859,
0.09087281795511222,0.047382143108475556,
0.09092269326683292,0.01185820334799159,
0.09097256857855361,0.024496424633582772,
0.09102244389027432,0.03651010622270821,
0.09107231920199502,0.04189629362831594,
0.09112219451371571,0.006845338694349539,
0.09117206982543641,0.01083897940159569,
0.0912219451371571,0.02638597026857285,
0.0912718204488778,0.03256459173980494,
0.09132169576059851,0.02281787918847065,
0.0913715710723192,0.013391747478470006,
0.0914214463840399,0.029124007189370818,
0.0914713216957606,0.017888313874290712,
0.09152119700748129,0.009807520402521223,
0.091571072319202,0.010393818409906294,
0.0916209476309227,0.011645705565499966,
0.09167082294264339,0.012526519926108672,
0.09172069825436409,0.029982105311516807,
0.09177057356608478,0.023125642785940016,
0.09182044887780548,-0.0031162977743836168,
0.09187032418952619,0.020979060835903438,
0.09192019950124689,0.023930999151067382,
0.09197007481296758,0.024592560382514513,
0.09201995012468828,-0.0007494883740153321,
0.09206982543640897,0.006658209921909668,
0.09211970074812968,0.008077074502091466,
0.09216957605985038,-0.002996062681882348,
0.09221945137157107,0.02297583133191105,
0.09226932668329177,0.012906960650891391,
0.09231920199501246,0.03558647585890007,
0.09236907730673316,0.0214464181912812,
0.09241895261845387,0.013117856647797028,
0.09246882793017457,-0.012459962195903675,
0.09251870324189526,0.011912109988110287,
0.09256857855361596,0.025942002227866023,
0.09261845386533665,-0.004868591230224244,
0.09266832917705736,-0.0005249440001700752,
0.09271820448877806,0.013699140349289065,
0.09276807980049875,-0.0028479045773176434,
0.09281795511221945,-0.016168760648347966,
0.09286783042394015,0.025574960595345905,
0.09291770573566084,-0.006289100185970425,
0.09296758104738155,0.008456736552443772,
0.09301745635910225,0.008033852559037411,
0.09306733167082294,0.01702786453899217,
0.09311720698254364,-0.008596700379676647,
0.09316708229426433,0.06744032898951395,
0.09321695760598504,0.02422270606793147,
0.09326683291770574,0.02860224747573143,
0.09331670822942643,0.024865894020678944,
0.09336658354114713,0.0038701529359864532,
0.09341645885286783,0.0017169981628748013,
0.09346633416458854,0.011475603424173603,
0.09351620947630923,0.003630876851996188,
0.09356608478802993,-0.004858133439759402,
0.09361596009975062,0.01718067790608269,
0.09366583541147132,0.005364331631898904,
0.09371571072319201,-0.007329314453612906,
0.09376558603491272,0.0008973175512383275,
0.09381546134663342,0.012337734560042075,
0.09386533665835411,0.01377540971292686,
0.09391521197007481,-0.0007014623726061533,
0.0939650872817955,0.0014370054622126023,
0.09401496259351622,0.0021236397061038135,
0.09406483790523691,0.002349495570138615,
0.09411471321695761,0.009544370040215584,
0.0941645885286783,-0.0050061299875088635,
0.094214463840399,0.0045299473173828955,
0.0942643391521197,0.013649034452365132,
0.0943142144638404,0.007883382847477586,
0.0943640897755611,0.0019494419457147002,
0.0944139650872818,0.010337487148070961,
0.09446384039900249,0.011856820478185133,
0.09451371571072319,0.015225952696917372,
0.0945635910224439,-0.010420032289759235,
0.09461346633416459,-0.0037112167659930466,
0.09466334164588529,-0.014252933233305568,
0.09471321695760598,-0.04671106528246053,
0.09476309226932668,0.004564924565059973,
0.09481296758104737,0.0328298912769716,
0.09486284289276808,-0.022214190346946803,
0.09491271820448878,0.014125781034090353,
0.09496259351620948,0.022697664654484275,
0.09501246882793017,0.02212927265746574,
0.09506234413965087,-0.008078889803060735,
0.09511221945137158,-0.03327863533842525,
0.09516209476309227,0.003766494738172417,
0.09521197007481297,0.0016915429367499813,
0.09526184538653366,0.01391514867637398,
0.09531172069825436,-0.010887825888916052,
0.09536159600997507,0.004153582963179164,
0.09541147132169576,0.001731555573440925,
0.09546134663341646,-0.025004791244003628,
0.09551122194513716,0.010683911887663548,
0.09556109725685785,0.015039727455220808,
0.09561097256857855,-0.0077929295848572395,
0.09566084788029926,-0.041499571791826964,
0.09571072319201995,0.00015552382640976904,
0.09576059850374065,-0.0163951974531198,
0.09581047381546134,-0.0008148765323060395,
0.09586034912718204,0.009644339887003412,
0.09591022443890275,0.005516055332047073,
0.09596009975062345,0.006186682577151831,
0.09600997506234414,-0.03747784977659399,
0.09605985037406484,-0.027496404839837302,
0.09610972568578553,-0.0029159652552100037,
0.09615960099750623,-0.019470628572718685,
0.09620947630922694,0.002487194089600438,
0.09625935162094763,-0.0082971143005944,
0.09630922693266833,0.011979806586702198,
0.09635910224438902,0.0071828249264972634,
0.09640897755610972,-0.008000289433765335,
0.09645885286783043,-0.01600606222739572,
0.09650872817955113,0.00951510457435831,
0.09655860349127182,0.017198579644274313,
0.09660847880299252,0.02296638409243942,
0.09665835411471321,0.006133100147371099,
0.09670822942643391,-0.00961156934202896,
0.09675810473815462,0.012591251706217475,
0.09680798004987531,-0.015672924451393472,
0.09685785536159601,-0.006889338854724257,
0.0969077306733167,-0.021522065827155455,
0.0969576059850374,-0.027124007870221956,
0.09700748129675811,0.013803664172319801,
0.0970573566084788,-0.025155952060288755,
0.0971072319201995,-0.032569481793530405,
0.0971571072319202,0.005080534060471681,
0.0972069825436409,-0.01730577357731616,
0.09725685785536159,-0.020696918799986426,
0.0973067331670823,-0.014830214569351737,
0.097356608478803,-0.011766039556456316,
0.09740648379052369,-0.010626296360962293,
0.09745635910224439,-0.015917606357028942,
0.09750623441396508,-0.0198437952951015,
0.09755610972568579,-0.0077196428656985585,
0.09760598503740649,-0.003148317349664141,
0.09765586034912718,-0.017310788621232143,
0.09770573566084788,-0.02804756550789218,
0.09775561097256857,-0.019831965266588786,
0.09780548628428928,-0.023969745725789846,
0.09785536159600998,-0.013134680470660447,
0.09790523690773068,-0.025999220923733836,
0.09795511221945137,-0.0467980951348487,
0.09800498753117207,-0.004819370228703245,
0.09805486284289276,0.008767383194545245,
0.09810473815461347,-0.012472909455642738,
0.09815461346633417,-0.013128249421128878,
0.09820448877805486,0.0061161424280191876,
0.09825436408977556,-0.017213829672716244,
0.09830423940149625,-0.02929025707290544,
0.09835411471321696,0.0069881743988046766,
0.09840399002493766,-0.0002557746248204266,
0.09845386533665836,0.007203498427181234,
0.09850374064837905,0.0015262970783216055,
0.09855361596009975,-0.023163359850721307,
0.09860349127182044,-0.03862532721812159,
0.09865336658354115,0.02353947487289591,
0.09870324189526185,0.00022707112514808343,
0.09875311720698254,0.00021249664693773207,
0.09880299251870324,-0.021961432285580833,
0.09885286783042393,-0.021346949148212356,
0.09890274314214464,0.010236824062854635,
0.09895261845386534,-0.013387518938467456,
0.09900249376558604,-0.020450085735675517,
0.09905236907730673,-0.007097027685783254,
0.09910224438902743,-0.009707966817178386,
0.09915211970074812,0.00743167969060486,
0.09920199501246883,-0.026589802682045707,
0.09925187032418953,-0.022525518748175648,
0.09930174563591022,-0.006912151021216588,
0.09935162094763092,-0.011326348548100877,
0.09940149625935162,-0.00017059251183952802,
0.09945137157107233,-0.015778345859211645,
0.09950124688279302,-0.009100555563166192,
0.09955112219451372,0.0034752949059585637,
0.09960099750623441,-0.011658228312949543,
0.09965087281795511,-0.018855469676182457,
0.0997007481296758,-0.04976579613938942,
0.09975062344139651,-0.03718461702920481,
0.09980049875311721,-0.03369845085282473,
0.0998503740648379,-0.017468065142523193,
0.0999002493765586,-0.018467245834930673,
0.0999501246882793,-0.025492272854989454,
0.1,-0.02385797174075261,
0.1000498753117207,-0.00979790567217906,
0.1000997506234414,-0.014541006082854711,
0.10014962593516209,0.004634405214870357,
0.10019950124688279,-0.007430131247020667,
0.1002493765586035,-0.020252433606401266,
0.1002992518703242,-0.03694716315035107,
0.10034912718204489,-0.011681031146195169,
0.10039900249376559,0.0034608591209580337,
0.10044887780548628,0.002468452381056122,
0.10049875311720698,-0.016517536234551225,
0.10054862842892769,-0.02909002978601689,
0.10059850374064838,0.006051235645986742,
0.10064837905236908,-0.017341151709821808,
0.10069825436408977,-0.012295241523521239,
0.10074812967581047,-0.0056453447004923725,
0.10079800498753118,-0.021303147626780785,
0.10084788029925187,-0.01827113330812818,
0.10089775561097257,-0.0012914220212599343,
0.10094763092269327,-0.014024593738376334,
0.10099750623441396,0.014817433808156085,
0.10104738154613466,-0.005701768018752501,
0.10109725685785537,0.027256684777958673,
0.10114713216957606,-0.00187099678414484,
0.10119700748129676,-0.005399162571619392,
0.10124688279301745,-0.005202806781944551,
0.10129675810473815,-0.030305161260562697,
0.10134663341645886,-0.013137674835820567,
0.10139650872817955,-9.042727378792866e-05,
0.10144638403990025,-0.010540833611183697,
0.10149625935162095,0.01263075171637438,
0.10154613466334164,-0.008409112560111233,
0.10159600997506234,-0.020476898177556876,
0.10164588528678305,0.009725053332732339,
0.10169576059850374,-0.009219875888860373,
0.10174563591022444,0.02256139452233043,
0.10179551122194513,0.0031186573520115115,
0.10184538653366583,-0.014622926593202181,
0.10189526184538654,0.020825374349861675,
0.10194513715710724,-0.005964560420267532,
0.10199501246882793,-0.025018033990348784,
0.10204488778054863,-0.019695176342869485,
0.10209476309226932,0.007575738577177233,
0.10214463840399003,-0.004083001220384434,
0.10219451371571073,0.022660372100736972,
0.10224438902743142,0.00892456769934991,
0.10229426433915212,-0.018947908404147996,
0.10234413965087281,0.02881973934020837,
0.10239401496259351,0.0016725232662061342,
0.10244389027431422,0.007659873159968945,
0.10249376558603492,-0.0332342024269413,
0.10254364089775561,0.014248512906324635,
0.10259351620947631,0.0043808129804805244,
0.102643391521197,0.007846593210026585,
0.10269326683291771,0.005858694653598557,
0.10274314214463841,0.01097002365688428,
0.1027930174563591,0.007762845664445526,
0.1028428927680798,-0.024189391295499067,
0.1028927680798005,0.009553175381058022,
0.10294264339152119,0.0022832275556414995,
0.1029925187032419,-0.008294458809838404,
0.1030423940149626,-0.015551034284658021,
0.10309226932668329,0.019759474212364684,
0.10314214463840399,0.011834260667330617,
0.10319201995012468,0.0005165592194775297,
0.10324189526184539,0.0038398789047472516,
0.10329177057356609,-0.0030616009975850296,
0.10334164588528678,-0.006486364598484097,
0.10339152119700748,0.02996280677168289,
0.10344139650872818,-0.008866468135229288,
0.10349127182044887,0.016962246991909832,
0.10354114713216958,-0.002565785527074254,
0.10359102244389028,-0.010501827419478247,
0.10364089775561097,0.008361435563979214,
0.10369077306733167,-0.028589302926079124,
0.10374064837905236,0.014661310447897221,
0.10379052369077307,0.0052197046503151545,
0.10384039900249377,0.026023697011136035,
0.10389027431421446,0.009426438841770395,
0.10394014962593516,-0.003222343452018021,
0.10399002493765586,-0.0027221219478251717,
0.10403990024937655,0.0032341942658196997,
0.10408977556109726,-0.011001635602100029,
0.10413965087281796,-0.0005888764033395808,
0.10418952618453865,0.04017029379823854,
0.10423940149625935,0.020106661809862807,
0.10428927680798004,0.027635475139394204,
0.10433915211970075,0.021369498381764454,
0.10438902743142145,0.017182691345168984,
0.10443890274314215,-0.0034966980303897405,
0.10448877805486284,0.03308134261345097,
0.10453865336658354,0.005532843659426932,
0.10458852867830425,-0.010404161781325525,
0.10463840399002494,0.018547027363189084,
0.10468827930174564,0.008910858236002673,
0.10473815461346633,0.016910763189377537,
0.10478802992518703,-0.00832202503981298,
0.10483790523690772,-0.016606320575193588,
0.10488778054862843,0.013422350964238288,
0.10493765586034913,-0.0010438829355573498,
0.10498753117206983,0.00869625275908081,
0.10503740648379052,0.01821745581757419,
0.10508728179551122,0.023694401496923968,
0.10513715710723193,0.0373833549394915,
0.10518703241895262,0.00018863078179025272,
0.10523690773067332,-0.010388627752098641,
0.10528678304239401,0.01914235197329996,
0.10533665835411471,0.005230107127685627,
0.1053865336658354,0.01953211957447424,
0.10543640897755611,0.0003597898903035246,
0.10548628428927681,0.03015131101076219,
0.1055361596009975,0.025198177096685315,
0.1055860349127182,0.029709083424762153,
0.1056359102244389,0.03371863133142866,
0.10568578553615961,0.04963794452032115,
0.1057356608478803,-0.008953431734771568,
0.105785536159601,0.020491625153142363,
0.1058354114713217,0.028633448173169068,
0.10588528678304239,0.03209372521842707,
0.10593516209476309,0.006001992312593948,
0.1059850374064838,0.020617227251468768,
0.10603491271820449,0.02066442227399474,
0.10608478802992519,0.020676432602966397,
0.10613466334164588,0.019348453873766235,
0.10618453865336658,0.017082749989679707,
0.10623441396508729,0.018553509893300596,
0.10628428927680798,0.02869731025098333,
0.10633416458852868,0.04563296856152021,
0.10638403990024937,0.026030448071860748,
0.10643391521197007,0.010550873573173107,
0.10648379052369077,0.022511345501705107,
0.10653366583541148,0.014603994279562223,
0.10658354114713217,0.0061644464608504625,
0.10663341645885287,0.0357669833843184,
0.10668329177057356,0.02804063125716211,
0.10673316708229426,0.028979861027004207,
0.10678304239401497,0.018007391516485123,
0.10683291770573566,0.02446355963494972,
0.10688279301745636,0.035045949392596254,
0.10693266832917706,0.020735719983765055,
0.10698254364089775,0.025205933111863588,
0.10703241895261846,0.005794552428313816,
0.10708229426433916,0.0034834271124637786,
0.10713216957605985,0.02429141265348221,
0.10718204488778055,0.03679013307314863,
0.10723192019950124,0.0013502849141039525,
0.10728179551122194,0.044011207814570144,
0.10733167082294265,0.0049935517471489735,
0.10738154613466334,0.040570358427241306,
0.10743142144638404,0.02713337679988195,
0.10748129675810474,0.021934618015835024,
0.10753117206982543,0.03268355702397498,
0.10758104738154614,0.0005546422427604447,
0.10763092269326684,0.028967611714853566,
0.10768079800498753,0.06262653428852716,
0.10773067331670823,0.026829875571931894,
0.10778054862842892,0.032523539718775696,
0.10783042394014962,0.039619587887012434,
0.10788029925187033,0.021669080997701266,
0.10793017456359102,0.041474156307664614,
0.10798004987531172,0.030995609199770218,
0.10802992518703242,0.034884476395891414,
0.10807980049875311,0.020013508179779205,
0.10812967581047382,0.03473679190641493,
0.10817955112219452,0.012502696032031609,
0.10822942643391521,0.023797781042851438,
0.10827930174563591,0.04332384425087765,
0.1083291770573566,0.018544796322002934,
0.1083790523690773,0.013439313650952599,
0.10842892768079801,0.031688685308889256,
0.1084788029925187,0.02297959827172214,
0.1085286783042394,0.05057418814890696,
0.1085785536159601,0.02795873692094015,
0.10862842892768079,0.048569695170259414,
0.1086783042394015,0.04622789273392936,
0.1087281795511222,0.04332233862044436,
0.1087780548628429,0.03235693739874235,
0.10882793017456359,0.05107441255703825,
0.10887780548628428,0.02778108677506295,
0.108927680798005,0.027618047997740026,
0.10897755610972569,0.026761697790462446,
0.10902743142144639,0.049434627884521624,
0.10907730673316708,0.03392341631026798,
0.10912718204488778,0.03899693990813301,
0.10917705735660847,0.005345951309419287,
0.10922693266832918,0.018186719365403392,
0.10927680798004988,0.045253275998728665,
0.10932668329177057,0.040321589470690686,
0.10937655860349127,0.027325564205126024,
0.10942643391521197,0.03859658635720832,
0.10947630922693267,0.004312181951653126,
0.10952618453865337,0.016418304568350396,
0.10957605985037407,0.022912434650113972,
0.10962593516209476,0.01488934615741494,
0.10967581047381546,0.030156088979838767,
0.10972568578553615,0.029224855289770042,
0.10977556109725686,0.027364705873534817,
0.10982543640897756,0.02068515047521212,
0.10987531172069825,-0.001164278291401373,
0.10992518703241895,0.0047023756155973595,
0.10997506234413965,0.03337788923106234,
0.11002493765586036,0.02179712457977344,
0.11007481296758105,-0.004135989168246479,
0.11012468827930175,0.03409059969656417,
0.11017456359102244,0.02574931073626819,
0.11022443890274314,0.036652712204828006,
0.11027431421446383,0.023212844303903482,
0.11032418952618454,0.021515246512444776,
0.11037406483790524,0.03269110525573904,
0.11042394014962593,0.009430170508306752,
0.11047381546134663,0.0178610701851914,
0.11052369077306733,0.03440107166806991,
0.11057356608478804,0.005862861187361016,
0.11062344139650873,0.04398811082198545,
0.11067331670822943,0.02156612694165906,
0.11072319201995012,0.01810379836770152,
0.11077306733167082,0.0439519439545067,
0.11082294264339151,0.008901868631066474,
0.11087281795511222,0.044673599802702066,
0.11092269326683292,0.029071258188663907,
0.11097256857855362,0.029946613509148116,
0.11102244389027431,-0.002006510018550234,
0.111072319201995,0.03776526587678325,
0.11112219451371572,0.02689280412282595,
0.11117206982543641,0.037544393182229685,
0.11122194513715711,0.014264946172566358,
0.1112718204488778,0.03329409675298253,
0.1113216957605985,-0.008426860374995123,
0.11137157107231921,0.01459273597055484,
0.1114214463840399,0.03219227959687166,
0.1114713216957606,0.005050742565436873,
0.1115211970074813,0.012370810936149106,
0.11157107231920199,-0.009645107790084616,
0.11162094763092269,0.025570766781306493,
0.1116708229426434,0.00921829086062308,
0.11172069825436409,0.023835055956369266,
0.11177057356608479,0.024756321795463464,
0.11182044887780548,0.02175784965473993,
0.11187032418952618,0.015094890997415325,
0.11192019950124689,0.021576868229114782,
0.11197007481296758,0.005293267627659257,
0.11201995012468828,0.018964323492397392,
0.11206982543640898,-0.006280760477103832,
0.11211970074812967,0.007249287849310775,
0.11216957605985037,0.016776512101534014,
0.11221945137157108,0.011057553699851948,
0.11226932668329177,0.0068710845131138894,
0.11231920199501247,0.0035289453016503613,
0.11236907730673316,0.01070100801182134,
0.11241895261845386,0.028374372406572014,
0.11246882793017457,-0.0006881992362613026,
0.11251870324189527,0.04974146328445938,
0.11256857855361596,0.019436344693488664,
0.11261845386533666,-0.00218315622989115,
0.11266832917705735,0.02885363759263722,
0.11271820448877805,0.023851035845152538,
0.11276807980049876,0.007987791489628233,
0.11281795511221945,0.024791264377303404,
0.11286783042394015,0.007701537786591371,
0.11291770573566084,0.03326830380250135,
0.11296758104738154,0.027653381171728216,
0.11301745635910225,0.008042918691455956,
0.11306733167082295,0.011639770353851924,
0.11311720698254364,0.006224060882625052,
0.11316708229426434,0.015253104999214007,
0.11321695760598503,-0.016936313235295042,
0.11326683291770574,-0.007346008550127814,
0.11331670822942644,0.03259009388568256,
0.11336658354114713,0.011509623659693663,
0.11341645885286783,-0.012429413343904185,
0.11346633416458853,0.0153905308110218,
0.11351620947630922,-0.0012724227855451901,
0.11356608478802993,-0.0012818967472798485,
0.11361596009975063,-0.014258177370922213,
0.11366583541147132,0.026514790225459637,
0.11371571072319202,-0.0019474818371567355,
0.11376558603491271,0.029443009674771495,
0.11381546134663342,0.008780363707190028,
0.11386533665835412,0.004518123774822096,
0.11391521197007481,-0.013015549594318275,
0.11396508728179551,-0.00672025565416903,
0.1140149625935162,0.01539790735836395,
0.1140648379052369,-0.023332942894348785,
0.11411471321695761,0.029807864360607672,
0.1141645885286783,0.03892374605481143,
0.114214463840399,0.0030174949472297945,
0.1142643391521197,0.0037254665486993912,
0.1143142144638404,0.0059717883473533705,
0.1143640897755611,0.021021115489955257,
0.1144139650872818,0.010853341347175194,
0.1144638403990025,0.01808513799615283,
0.11451371571072319,-0.014438976074593032,
0.11456359102244389,-0.00891794694583976,
0.11461346633416458,0.008996358656865235,
0.11466334164588529,-0.009379786474331745,
0.11471321695760599,0.014944226153826703,
0.11476309226932668,0.009326250060251666,
0.11481296758104738,0.03784117851050442,
0.11486284289276807,-0.0011465460406886105,
0.11491271820448878,-0.005709052200382214,
0.11496259351620948,-0.018514945796921728,
0.11501246882793018,0.002384587234559496,
0.11506234413965087,0.006050314351211618,
0.11511221945137157,0.01819402633124971,
0.11516209476309226,-0.0013438546743408525,
0.11521197007481297,0.02420825157519141,
0.11526184538653367,0.036489813374769635,
0.11531172069825436,-0.017523849293256948,
0.11536159600997506,-0.015610267917732392,
0.11541147132169575,0.015622921850460735,
0.11546134663341646,-0.017753253093537626,
0.11551122194513716,-2.3683807078619685e-05,
0.11556109725685786,0.0010192572286851402,
0.11561097256857855,-0.017237137476605657,
0.11566084788029925,-0.004878004815498776,
0.11571072319201996,0.009703153389090974,
0.11576059850374065,-0.02865156361670073,
0.11581047381546135,-0.00705978102736132,
0.11586034912718204,0.00311065192309172,
0.11591022443890274,-0.012288778660958392,
0.11596009975062344,0.02268958381550385,
0.11600997506234415,0.017808869956171217,
0.11605985037406484,-0.004297991185806293,
0.11610972568578554,-0.02006419349716497,
0.11615960099750623,0.010254798289374359,
0.11620947630922693,-0.004016451377757898,
0.11625935162094764,0.0038233971384377327,
0.11630922693266833,0.03171460680197624,
0.11635910224438903,-0.0004605757647097369,
0.11640897755610972,-0.005286096667958064,
0.11645885286783042,0.002108179916328244,
0.11650872817955112,0.009446782648746859,
0.11655860349127183,0.0177531489121144,
0.11660847880299252,0.0010107951593796606,
0.11665835411471322,-0.006692631506244553,
0.11670822942643391,7.487374285141193e-05,
0.11675810473815461,-0.020405744501902554,
0.11680798004987532,-0.0010404222800849926,
0.11685785536159601,-0.03391762722283365,
0.11690773067331671,-0.020778348652980047,
0.1169576059850374,0.01530918260679233,
0.1170074812967581,0.001390985901474396,
0.1170573566084788,-0.013388972546749745,
0.1171072319201995,0.00010788942716429689,
0.1171571072319202,-0.0075714061245236945,
0.1172069825436409,0.011863075024085816,
0.1172568578553616,-0.011359578772298333,
0.11730673316708229,-0.02261353097341393,
0.117356608478803,-0.014557408327829311,
0.1174064837905237,0.002437305315098514,
0.11745635910224439,0.0023843807609658114,
0.11750623441396509,-0.028694868469948665,
0.11755610972568578,-0.00010316896877012906,
0.11760598503740648,-0.030057779276136593,
0.11765586034912719,-0.031527357991528476,
0.11770573566084788,0.01312951047322045,
0.11775561097256858,-0.015622728266735572,
0.11780548628428927,0.02545200592167663,
0.11785536159600997,-0.011050477277303457,
0.11790523690773068,-0.03211195672555788,
0.11795511221945137,-0.011130023036343303,
0.11800498753117207,-0.010893884054021622,
0.11805486284289277,0.0011419698972019825,
0.11810473815461346,-0.00823866449244224,
0.11815461346633417,-0.02995653814026348,
0.11820448877805487,-0.012528136327123929,
0.11825436408977556,-0.012463805314469565,
0.11830423940149626,-0.018365575755173315,
0.11835411471321695,-0.014474837327704942,
0.11840399002493765,-0.03281463846930388,
0.11845386533665836,-0.037189665788048026,
0.11850374064837906,-0.014714071995222485,
0.11855361596009975,0.010941542161230658,
0.11860349127182045,-0.032266715100579095,
0.11865336658354114,-0.014599200334977743,
0.11870324189526185,-0.0022205947355173027,
0.11875311720698255,0.0025714965504788894,
0.11880299251870324,-0.016979392651067654,
0.11885286783042394,-0.021275578101118867,
0.11890274314214463,0.014541735378905582,
0.11895261845386533,-0.011560084725126677,
0.11900249376558604,-0.009977523431665683,
0.11905236907730674,-0.010121807269970124,
0.11910224438902743,-0.011410784328641484,
0.11915211970074813,-0.004277780790876125,
0.11920199501246882,-0.017783533851677715,
0.11925187032418953,-0.008383354796700035,
0.11930174563591023,0.005559474952481722,
0.11935162094763092,-0.014907429456453784,
0.11940149625935162,-0.016555498775311043,
0.11945137157107232,-0.004112619665662219,
0.11950124688279301,-0.04582024767177121,
0.11955112219451372,-0.014724691679503691,
0.11960099750623442,-0.015221303012189037,
0.11965087281795511,-0.011743060956408856,
0.11970074812967581,0.005421010652097678,
0.1197506234413965,-0.014490768415021173,
0.11980049875311721,-0.006423696746681243,
0.11985037406483791,-0.0015946748166841378,
0.1199002493765586,-0.012290516638299142,
0.1199501246882793,0.0033136632699973696,
0.12,-0.006005324406700237,
0.1200498753117207,-0.013729100060211222,
0.1200997506234414,-0.024651257409103636,
0.1201496259351621,-0.013890244175714484,
0.12019950124688279,-0.019701235077383313,
0.12024937655860349,0.0017436383077460982,
0.12029925187032418,0.004576620207472119,
0.1203491271820449,-0.018479188162814762,
0.12039900249376559,-0.014256822111189348,
0.12044887780548628,-0.006172713788421196,
0.12049875311720698,-0.011778985769700111,
0.12054862842892768,-0.03533342699519229,
0.12059850374064839,-0.004122945318507202,
0.12064837905236908,0.030207840113058694,
0.12069825436408978,-0.0037355434368406206,
0.12074812967581047,-0.007982968429736888,
0.12079800498753117,0.029160095500612722,
0.12084788029925186,0.005178535898439435,
0.12089775561097257,0.006010638957097287,
0.12094763092269327,-0.016720767426752596,
0.12099750623441397,-0.005234657487494884,
0.12104738154613466,-0.003922194032588908,
0.12109725685785536,-0.0320107980490765,
0.12114713216957607,-0.020835491028896067,
0.12119700748129676,-0.000408151392541997,
0.12124688279301746,0.01767267273261043,
0.12129675810473815,-0.0045187191392749605,
0.12134663341645885,-0.0036132265167680548,
0.12139650872817954,0.013251019494548445,
0.12144638403990025,-0.008649929305659599,
0.12149625935162095,0.013975568453649119,
0.12154613466334165,-0.020153838442821082,
0.12159600997506234,0.021257173372617906,
0.12164588528678304,0.015423374524215185,
0.12169576059850375,0.023387276726493916,
0.12174563591022444,-0.005644010345914172,
0.12179551122194514,-0.007513310959266909,
0.12184538653366583,0.011092907269992625,
0.12189526184538653,-0.04448147636028642,
0.12194513715710723,-0.018271012478191198,
0.12199501246882793,-0.003644873346430241,
0.12204488778054863,-0.010353570902784109,
0.12209476309226933,0.01166546531113042,
0.12214463840399002,0.008457832499208812,
0.12219451371571072,0.018394223165256348,
0.12224438902743143,-0.01082501643834062,
0.12229426433915212,0.007757637390299999,
0.12234413965087282,0.01575875749502484,
0.12239401496259351,-0.015958630453516257,
0.12244389027431421,0.021071211753391304,
0.12249376558603492,-0.0056097094927591035,
0.12254364089775562,-0.009606081275803008,
0.12259351620947631,0.00010838333386314078,
0.122643391521197,-0.00563085476182265,
0.1226932668329177,-0.019358441555227486,
0.1227431421446384,0.023106835320496434,
0.12279301745635911,0.0053736261148921455,
0.1228428927680798,0.01230161856241794,
0.1228927680798005,-0.005767505248809167,
0.1229426433915212,0.005304312485647343,
0.12299251870324189,-0.005202137563336352,
0.1230423940149626,-0.0006544110796042682,
0.1230922693266833,0.020869946919957583,
0.12314214463840399,-0.010409915748181554,
0.12319201995012469,-0.002661052408040208,
0.12324189526184538,-0.015606622998892426,
0.12329177057356608,0.018298599168270417,
0.12334164588528679,0.01793089417393816,
0.12339152119700748,-0.00205122627937083,
0.12344139650872818,0.014393560354737323,
0.12349127182044888,0.0019270673466309889,
0.12354114713216957,-0.004766783213862785,
0.12359102244389028,0.01710974788227928,
0.12364089775561098,0.029067520757574506,
0.12369077306733167,-0.002038418507997398,
0.12374064837905237,0.02430682252863995,
0.12379052369077306,0.029808584201348427,
0.12384039900249376,0.0046838634587506155,
0.12389027431421447,0.012279050526922677,
0.12394014962593516,0.0036755133814647973,
0.12399002493765586,0.01985184603180473,
0.12403990024937656,0.030465412995640748,
0.12408977556109725,0.005973588721500441,
0.12413965087281796,0.0022317286125280184,
0.12418952618453866,0.016030338615108268,
0.12423940149625935,0.039716209632869454,
0.12428927680798005,0.003786232815921343,
0.12433915211970074,0.014384200211067878,
0.12438902743142144,-0.011462454130660577,
0.12443890274314215,0.02647382497796806,
0.12448877805486284,0.0031447076046963816,
0.12453865336658354,-0.013940124723020985,
0.12458852867830424,-0.00568357519408148,
0.12463840399002493,0.022687831832912543,
0.12468827930174564,0.012204035105057891,
0.12473815461346634,0.01395762694676329,
0.12478802992518703,0.033300058203030704,
0.12483790523690773,0.03767329784582983,
0.12488778054862842,0.05005760357458002,
0.12493765586034913,0.009909814736258998,
0.12498753117206983,0.011427827418967508,
0.12503740648379053,0.006110838106065499,
0.12508728179551123,0.01859625341629541,
0.12513715710723192,0.02030529736663753,
0.12518703241895263,0.008148192061611525,
0.1252369077306733,0.0056558130286177965,
0.12528678304239402,0.03285688818484355,
0.1253366583541147,0.02922822033999764,
0.1253865336658354,0.03915944762644796,
0.12543640897755612,0.004394449913736106,
0.1254862842892768,0.012679820706793915,
0.1255361596009975,0.049297324227420614,
0.1255860349127182,-0.0017693578103926584,
0.1256359102244389,0.039440528640290046,
0.1256857855361596,0.02923858943892115,
0.1257356608478803,0.010516040144336611,
0.125785536159601,0.008379847073907307,
0.12583541147132168,0.0324580472261933,
0.1258852867830424,0.005762303757075499,
0.1259351620947631,0.006256419499233407,
0.12598503740648379,0.0317695629504931,
0.1260349127182045,0.04468698649651585,
0.12608478802992518,0.030355164502739097,
0.1261346633416459,0.03666911185204109,
0.1261845386533666,0.014089870722699308,
0.12623441396508728,0.05571103384211873,
0.126284289276808,0.02989531428112481,
0.12633416458852867,0.022270431055236704,
0.12638403990024938,0.046971999930266954,
0.1264339152119701,0.02861424344751234,
0.12648379052369077,0.025904141347149492,
0.12653366583541148,0.008393479171388784,
0.12658354114713216,0.02876368774870702,
0.12663341645885287,0.03411440128057243,
0.12668329177057355,0.04901010476019847,
0.12673316708229426,0.015903146936906136,
0.12678304239401497,0.014886418204857074,
0.12683291770573565,0.0324101708274811,
0.12688279301745636,0.026269894347117056,
0.12693266832917705,0.056207632312302025,
0.12698254364089775,0.0157712542974134,
0.12703241895261846,0.025303781938753617,
0.12708229426433915,0.022194697589326177,
0.12713216957605986,0.03103977267961867,
0.12718204488778054,0.01827997705395128,
0.12723192019950125,0.013913687064580935,
0.12728179551122196,0.015033079165234164,
0.12733167082294264,0.03386889278110654,
0.12738154613466335,0.011779684691843331,
0.12743142144638403,0.02552562846169528,
0.12748129675810474,0.02704791334356812,
0.12753117206982545,0.019683463959524833,
0.12758104738154613,0.037612692333329985,
0.12763092269326684,0.04301900648823014,
0.12768079800498752,0.04439215272546079,
0.12773067331670823,0.03304575822848249,
0.1277805486284289,0.03849479266939125,
0.12783042394014962,0.02290091776623754,
0.12788029925187033,0.0037504012899319435,
0.12793017456359101,0.048236022132363554,
0.12798004987531172,0.014093680498312229,
0.1280299251870324,0.044461992009350214,
0.12807980049875312,0.044622451753182864,
0.12812967581047383,0.03618629421047286,
0.1281795511221945,0.02067704956875749,
0.12822942643391522,0.03567523611776644,
0.1282793017456359,0.03272931519953352,
0.1283291770573566,0.03858112316118042,
0.12837905236907732,0.049623984416029526,
0.128428927680798,0.030170931787355165,
0.1284788029925187,0.0431195857035466,
0.1285286783042394,0.025405397460337882,
0.1285785536159601,0.012705111706691682,
0.1286284289276808,0.005148074490428586,
0.1286783042394015,0.03401073939669471,
0.1287281795511222,0.02148022761319853,
0.12877805486284288,0.01149904141760982,
0.1288279301745636,0.03542734636468225,
0.1288778054862843,0.012825425415833206,
0.12892768079800498,0.027644682667206183,
0.1289775561097257,0.039950661446568385,
0.12902743142144638,0.03153130797678066,
0.12907730673316709,0.029943177810398583,
0.12912718204488777,0.05375745443635804,
0.12917705735660848,0.043609288465175,
0.1292269326683292,0.044932663591855215,
0.12927680798004987,0.04138002460305347,
0.12932668329177058,0.0595242917426929,
0.12937655860349126,0.039290762046353275,
0.12942643391521197,0.04194295099727701,
0.12947630922693268,0.015013791090983901,
0.12952618453865336,0.0486318852925003,
0.12957605985037407,0.027459949692980767,
0.12962593516209475,0.03725103740980616,
0.12967581047381546,0.026160470068802094,
0.12972568578553617,0.03102175847102878,
0.12977556109725685,0.016770186299101507,
0.12982543640897756,0.019917119518151862,
0.12987531172069824,0.021879897367353057,
0.12992518703241895,0.004502111439388612,
0.12997506234413966,0.04968913305642292,
0.13002493765586035,0.055758893585932126,
0.13007481296758105,0.005820194122345877,
0.13012468827930174,0.0375545056396599,
0.13017456359102245,0.015654983085130796,
0.13022443890274316,0.04501059157056885,
0.13027431421446384,-0.003242479709983613,
0.13032418952618455,0.007616718166127228,
0.13037406483790523,0.0560831443104642,
0.13042394014962594,0.03889760013653184,
0.13047381546134662,0.03401221380838947,
0.13052369077306733,0.021137206598724242,
0.13057356608478804,0.007486633071983478,
0.13062344139650872,0.052257279526229994,
0.13067331670822943,0.013004140553396963,
0.1307231920199501,0.046811907010973514,
0.13077306733167082,0.03644376650236496,
0.13082294264339153,0.017390823869659164,
0.13087281795511221,0.03470436495183539,
0.13092269326683292,0.0028530469217238133,
0.1309725685785536,-0.01882109840194347,
0.13102244389027431,-0.007437041673928797,
0.13107231920199502,0.016627133822701704,
0.1311221945137157,0.03821489409760435,
0.13117206982543642,0.022358938738217298,
0.1312219451371571,0.02494367004416699,
0.1312718204488778,0.009849263553244843,
0.13132169576059852,0.05207760889839215,
0.1313715710723192,0.024098993494457138,
0.1314214463840399,0.026894683414521385,
0.1314713216957606,0.029154446384331862,
0.1315211970074813,0.012162873095327867,
0.13157107231920198,0.026050216023428885,
0.1316209476309227,0.01632663715983617,
0.1316708229426434,0.010186366407047842,
0.13172069825436408,0.019484201609800068,
0.1317705735660848,-0.02204275215079663,
0.13182044887780547,0.029119969680709585,
0.13187032418952618,0.023629229856943407,
0.1319201995012469,0.015241420972080203,
0.13197007481296757,0.04562866237876049,
0.13201995012468828,0.003113621233623236,
0.13206982543640897,0.013420784489236368,
0.13211970074812968,0.01603617436260968,
0.13216957605985039,0.011849443532690324,
0.13221945137157107,0.012586096133773926,
0.13226932668329178,0.026571273524478828,
0.13231920199501246,0.0015507242590647695,
0.13236907730673317,-0.007328543083576132,
0.13241895261845388,0.0019514086826139757,
0.13246882793017456,0.01619058508380663,
0.13251870324189527,-0.014610146459997253,
0.13256857855361595,-0.002900096487939565,
0.13261845386533666,0.000653634850101472,
0.13266832917705737,0.012302373197192379,
0.13271820448877805,0.007233837401942613,
0.13276807980049876,0.01992141764962336,
0.13281795511221944,0.028900437111316624,
0.13286783042394015,0.023917210044980878,
0.13291770573566083,0.015302496658823194,
0.13296758104738154,0.01649071053811408,
0.13301745635910225,0.0131706046903802,
0.13306733167082294,0.02222927949651717,
0.13311720698254365,0.022933508946568586,
0.13316708229426433,0.03395510187943536,
0.13321695760598504,0.014469605396953194,
0.13326683291770575,0.012346376125499846,
0.13331670822942643,0.021014905839340885,
0.13336658354114714,0.011468636139362299,
0.13341645885286782,0.02335884601752177,
0.13346633416458853,0.004360272476406385,
0.13351620947630924,0.020554483787512477,
0.13356608478802992,0.01324745662250278,
0.13361596009975063,0.019175705849633067,
0.1336658354114713,0.038595784473291546,
0.13371571072319202,0.0046330433258611765,
0.13376558603491273,0.027364248761719293,
0.1338154613466334,0.019122377358587225,
0.13386533665835412,0.005463301382333656,
0.1339152119700748,0.005048827016640771,
0.13396508728179551,0.0035331863341466997,
0.1340149625935162,0.014445125611479103,
0.1340648379052369,0.012962805989085328,
0.13411471321695762,0.026670797476835588,
0.1341645885286783,0.015670584309338993,
0.134214463840399,-0.009175751269653962,
0.1342643391521197,-0.027502180599177934,
0.1343142144638404,-0.0015099077374004337,
0.1343640897755611,0.014638355221113113,
0.1344139650872818,-0.008141023082259953,
0.1344638403990025,-0.005565783560238447,
0.13451371571072318,0.02111809896345246,
0.1345635910224439,-0.0019203787400279256,
0.1346134663341646,-0.013259358412800706,
0.13466334164588528,-0.008025886383788289,
0.134713216957606,-0.025258795706210417,
0.13476309226932667,-0.011228405307578822,
0.13481296758104738,-0.006936979052767608,
0.1348628428927681,-0.03535770227351537,
0.13491271820448877,-0.0024450369421785767,
0.13496259351620948,-0.014745967451626292,
0.13501246882793017,0.002788079404707755,
0.13506234413965088,0.01316940881292802,
0.13511221945137158,-0.01020841219488116,
0.13516209476309227,-0.027389315292070525,
0.13521197007481298,-0.007919277384424484,
0.13526184538653366,0.015898631883915645,
0.13531172069825437,0.03756450977509264,
0.13536159600997505,-0.0006048991770720448,
0.13541147132169576,0.004300018037676202,
0.13546134663341647,0.02054109972538251,
0.13551122194513715,-0.009935884715820055,
0.13556109725685786,5.619236283955619e-05,
0.13561097256857854,0.005582475751555787,
0.13566084788029925,0.011701353019710658,
0.13571072319201996,0.01145293021285421,
0.13576059850374064,0.02140219360201568,
0.13581047381546135,-0.012610097413811937,
0.13586034912718203,0.0046316605095491235,
0.13591022443890274,-0.018044455347619504,
0.13596009975062345,0.001705694790493751,
0.13600997506234414,0.008391992503278331,
0.13605985037406484,-0.020975875762078346,
0.13610972568578553,-0.004575910529810916,
0.13615960099750624,-0.004400184558780403,
0.13620947630922695,-0.021488732015010087,
0.13625935162094763,0.015408149510233107,
0.13630922693266834,-0.0170364954983208,
0.13635910224438902,-0.01420187904075418,
0.13640897755610973,-0.02561238150887042,
0.1364588528678304,-0.03327830223712422,
0.13650872817955112,-0.016988100170346253,
0.13655860349127183,-0.0019049848411177295,
0.1366084788029925,-0.013310269221856585,
0.13665835411471322,-0.0029399164657236084,
0.1367082294264339,0.020262122266458377,
0.1367581047381546,0.004670234404272703,
0.13680798004987532,-0.01740966546458439,
0.136857855361596,-0.0035625211150893464,
0.1369077306733167,0.005159945240903048,
0.1369576059850374,-0.015274400022493419,
0.1370074812967581,-0.023144335233870845,
0.13705735660847881,0.00032187611439055304,
0.1371072319201995,-0.005612393653273838,
0.1371571072319202,-0.005613849345999228,
0.1372069825436409,-0.020675520803983376,
0.1372568578553616,-0.027003014122820457,
0.1373067331670823,-0.009287616863298619,
0.137356608478803,-0.040068910713799206,
0.1374064837905237,0.010535306957778347,
0.13745635910224438,0.0042059935837047025,
0.1375062344139651,0.008589174868151427,
0.1375561097256858,-0.032049836443016885,
0.13760598503740648,-0.0043459838953781,
0.1376558603491272,0.0030494354323356183,
0.13770573566084787,-0.020339003545813767,
0.13775561097256858,0.019992981696139195,
0.13780548628428926,-0.018657345061418428,
0.13785536159600997,0.0214803381879993,
0.13790523690773068,-0.001020051934672415,
0.13795511221945136,-0.01062106388375809,
0.13800498753117207,-0.04992868895070988,
0.13805486284289276,-0.027351978862441298,
0.13810473815461347,0.007038709713308769,
0.13815461346633418,-0.0006480461792506536,
0.13820448877805486,0.0019405334593317492,
0.13825436408977557,0.025969935822119452,
0.13830423940149625,-0.02840061405247724,
0.13835411471321696,0.0017044660005301575,
0.13840399002493767,-0.00578027959176655,
0.13845386533665835,-0.029307786157353376,
0.13850374064837906,0.010720392791395743,
0.13855361596009974,-0.024497103504269636,
0.13860349127182045,0.003337584895936628,
0.13865336658354116,-0.01732948540152534,
0.13870324189526184,0.014637679769544623,
0.13875311720698255,-0.016075295272190024,
0.13880299251870323,0.014899112607759269,
0.13885286783042394,-0.03649940229353503,
0.13890274314214462,0.010102421485035406,
0.13895261845386533,0.0032164701421117017,
0.13900249376558604,0.012099314011673494,
0.13905236907730673,0.00019379909244717462,
0.13910224438902744,-0.005521859203822702,
0.13915211970074812,-0.0022932970980034688,
0.13920199501246883,-0.02914332989817276,
0.13925187032418954,0.0015661760383761207,
0.13930174563591022,-0.006639348749118003,
0.13935162094763093,0.007423837726384004,
0.1394014962593516,-0.00423951546947633,
0.13945137157107232,-0.017311540691962363,
0.13950124688279303,0.01018359747518397,
0.1395511221945137,0.004487271636265737,
0.13960099750623442,-0.013862332612218994,
0.1396508728179551,-0.023339773547871128,
0.1397007481296758,-0.0075247058827338014,
0.13975062344139652,-0.015113583849205307,
0.1398004987531172,-0.010281849485440276,
0.1398503740648379,0.014626870138216301,
0.1399002493765586,-0.0015686185493058273,
0.1399501246882793,-0.04690955715700852,
0.14,0.016336459070803735,
0.1400498753117207,-0.007308096583295253,
0.1400997506234414,-0.005079315597916172,
0.1401496259351621,0.005901314579898037,
0.1401995012468828,-0.01185492831495557,
0.14024937655860348,-0.015921852596044443,
0.1402992518703242,-0.019208810150277627,
0.1403491271820449,-0.007216247998550097,
0.14039900249376558,-0.008805723106234113,
0.1404488778054863,0.002081985969030085,
0.14049875311720697,-0.01660623533828544,
0.14054862842892768,0.011481519527450405,
0.1405985037406484,-0.01980809280622578,
0.14064837905236907,-0.009202770691685692,
0.14069825436408978,-0.03266582067206157,
0.14074812967581046,0.0006524194192733881,
0.14079800498753117,0.0251853664855003,
0.14084788029925188,0.022569089840662884,
0.14089775561097256,-0.006649867774610831,
0.14094763092269327,0.0030667691645450386,
0.14099750623441396,-0.0031010990902591747,
0.14104738154613466,0.025133745933088786,
0.14109725685785537,-0.016159335641576886,
0.14114713216957606,-0.00903685823385424,
0.14119700748129677,-0.0050118461530567985,
0.14124688279301745,-0.02993271515274655,
