time,amplitude,label
0.0,-0.00880903809905614,
4.987531172069826e-05,-0.0017320460168141886,
9.975062344139652e-05,-0.009236528638596479,
0.00014962593516209475,-0.010925677041652855,
0.00019950124688279303,-0.013072883889054511,
0.00024937655860349125,-0.003692956694131453,
0.0002992518703241895,-0.008516680095081323,
0.00034912718204488776,0.013564648020188435,
0.00039900249376558606,-0.006932787081667295,
0.0004488778054862843,-0.010654013972668354,
0.0004987531172069825,-0.023951032134979903,
0.0005486284289276808,-0.011642526254900473,
0.000598503740648379,0.002889289648860841,
0.0006483790523690773,0.0006167861833195259,
0.0006982543640897755,-0.02199103755160349,
0.0007481296758104738,0.016311739913404694,
0.0007980049875311721,0.0019002281033223386,
0.0008478802992518703,0.035820855002551534,
0.0008977556109725686,0.0013118259429669875,
0.0009476309226932668,-0.00039375812463266326,
0.000997506234413965,-0.0003026371115223965,
0.0010473815461346633,-0.002124585932025116,
0.0010972568578553616,-0.02105666878480288,
0.00114713216957606,0.00989926706172899,
0.001197007481296758,-0.02093566635192185,
0.0012468827930174563,0.007379936400507725,
0.0012967581047381546,-0.032728083654482064,
0.001346633416458853,-0.001364153551819521,
0.001396508728179551,-0.01058517250537268,
0.0014463840399002493,0.00579367593948839,
0.0014962593516209476,-0.007870827884107567,
0.001546134663341646,-0.01732156911713835,
0.0015960099750623442,0.0012964370442064294,
0.0016458852867830423,-0.006932831554623172,
0.0016957605985037406,-0.02403609349072749,
0.001745635910224439,-0.009917165689840392,
0.0017955112219451373,-0.034002059009990517,
0.0018453865336658353,-0.018993463578594175,
0.0018952618453865336,-0.01710731065358153,
0.001945137157107232,-0.03001087276513929,
0.00199501246882793,-0.005158244751551386,
0.0020448877805486283,0.004932200176599731,
0.0020947630922693266,0.006153726925475203,
0.002144638403990025,-0.0032192332857368926,
0.0021945137157107233,-0.03249190050003702,
0.0022443890274314216,0.01329784539126442,
0.00229426433915212,-0.03310778226686575,
0.0023441396508728177,0.016022838004926182,
0.002394014962593516,-0.007340234937769095,
0.0024438902743142144,-0.016604520310997264,
0.0024937655860349127,-0.01651741917853049,
0.002543640897755611,-0.015655021214751524,
0.0025935162094763093,0.0008219383360347342,
0.0026433915211970076,-0.013995050528535807,
0.002693266832917706,-0.037469076105174394,
0.002743142144638404,-0.010282646999061982,
0.002793017456359102,-0.0035066140846923555,
0.0028428927680798004,-0.02998703724066834,
0.0028927680798004987,-0.014727163719245203,
0.002942643391521197,-0.010477471798093097,
0.0029925187032418953,-0.037842385687210114,
0.0030423940149625936,-0.01915449187959351,
0.003092269326683292,-0.012054348948697412,
0.00314214463840399,-0.007642120126436343,
0.0031920199501246885,-0.0414179320439182,
0.0032418952618453864,-0.006316969228089667,
0.0032917705735660847,-0.025550090825285802,
0.003341645885286783,-0.03968692169251485,
0.0033915211970074813,-0.0065810174725843325,
0.0034413965087281796,-0.02052120923210648,
0.003491271820448878,-0.010170166811753086,
0.003541147132169576,-0.04705748699028123,
0.0035910224438902745,-0.003821483404826617,
0.0036408977556109724,-0.015895369795562046,
0.0036907730673316707,-0.03843169387832478,
0.003740648379052369,0.005448601627450166,
0.0037905236907730673,-0.02756799342617667,
0.0038403990024937656,-0.031231439963731997,
0.003890274314214464,-0.022471422277621285,
0.003940149625935162,-0.01807140669306323,
0.00399002493765586,-0.05118568376067105,
0.004039900249376558,-0.005189762838412836,
0.004089775561097257,-0.03240987869030953,
0.004139650872817955,-0.038859916534380375,
0.004189526184538653,-0.021284650663534282,
0.004239401496259352,-0.007121251369049682,
0.00428927680798005,-0.02009572383085925,
0.004339152119700748,-0.020774733952695638,
0.0043890274314214465,0.0062495153477037865,
0.004438902743142145,-0.017044341838424897,
0.004488778054862843,-0.03766385521222239,
0.004538653366583541,-0.006681295703023362,
0.00458852867830424,-0.028985652438682785,
0.004638403990024938,0.007566858205529249,
0.0046882793017456355,-0.003618369052490347,
0.004738154613466334,-0.048894505369448615,
0.004788029925187032,-0.03196115134174156,
0.00483790523690773,-0.02770049300305001,
0.004887780548628429,-0.009859690081685819,
0.004937655860349127,-0.045372578432394645,
0.004987531172069825,-0.009523216529599284,
0.005037406483790524,-0.032401263850359234,
0.005087281795511222,-0.03395343762515993,
0.00513715710723192,-0.012737079491835907,
0.0051870324189526185,-0.008581945011746106,
0.005236907730673317,-0.02811564246455879,
0.005286783042394015,-0.013415397927176262,
0.0053366583541147134,0.006752925018889966,
0.005386533665835412,-0.019247577262554594,
0.00543640897755611,-0.0209300834875706,
0.005486284289276808,-0.04585269915932304,
0.005536159600997507,0.013339346069329402,
0.005586034912718204,-0.02651193894118207,
0.005635910224438902,-0.03218217932119249,
0.005685785536159601,-0.03326455505403903,
0.005735660847880299,-0.020932324772589384,
0.005785536159600997,-0.022420550126742027,
0.005835411471321696,-0.022045826847216975,
0.005885286783042394,-0.02416975735168056,
0.005935162094763092,-0.019342551616114825,
0.0059850374064837905,0.010650848354538896,
0.006034912718204489,-0.03190486761546943,
0.006084788029925187,-0.028473794279641897,
0.0061346633416458855,-0.03682984199259392,
0.006184538653366584,-0.019464234485761785,
0.006234413965087282,-0.005487344967986474,
0.00628428927680798,-0.0005248438153697757,
0.006334164588528679,-0.02791087454233169,
0.006384039900249377,-0.016505143606718148,
0.006433915211970074,-0.0260247872154254,
0.006483790523690773,-0.0017316754193223635,
0.006533665835411471,-0.035098040575068344,
0.006583541147132169,-0.03482082222069061,
0.006633416458852868,-0.0012558499365615504,
0.006683291770573566,-0.02902817017544955,
0.006733167082294264,-0.021083452189656463,
0.0067830423940149626,-0.02838468246668737,
0.006832917705735661,-0.009999571754514932,
0.006882793017456359,0.0026834831660205484,
0.0069326683291770575,0.006978619362326882,
0.006982543640897756,-0.00998284940477035,
0.007032418952618454,-0.01776339878584472,
0.007082294264339152,-0.027975950083304748,
0.007132169576059851,-0.0015090846019072332,
0.007182044887780549,-0.005174273084167213,
0.007231920199501247,-0.024591667118586246,
0.007281795511221945,0.0015576547548233656,
0.007331670822942643,-0.024676832528296968,
0.007381546134663341,-0.02121970767215902,
0.00743142144638404,-0.025919681892374147,
0.007481296758104738,-0.004086483172563321,
0.007531172069825436,-0.0289802670595023,
0.007581047381546135,-0.012287225584828613,
0.007630922693266833,0.0007717335890942614,
0.007680798004987531,-0.021302941914315095,
0.0077306733167082295,-0.02115337876869655,
0.007780548628428928,-0.03010277750763716,
0.007830423940149626,-0.031921301889497676,
0.007880299251870324,-0.0025700235544281642,
0.007930174563591023,-0.033994626170073365,
0.00798004987531172,-0.008442510419817528,
0.00802992518703242,-0.023714121379807447,
0.008079800498753117,-0.0031085422994925616,
0.008129675810473816,-0.007132583094507995,
0.008179551122194513,0.0017840983289503839,
0.008229426433915213,-0.011728445379849212,
0.00827930174563591,-0.011420531720658437,
0.00832917705735661,-0.013680868468823928,
0.008379052369077307,0.0004602606079202286,
0.008428927680798006,-0.01252761601951075,
0.008478802992518703,-0.010693616123502094,
0.0085286783042394,-0.007411810979845338,
0.0085785536159601,0.021240486524024136,
0.008628428927680797,-0.0009918325442678545,
0.008678304239401496,0.008133269027390708,
0.008728179551122194,0.0016824558578698648,
0.008778054862842893,-0.02279018221997925,
0.00882793017456359,-0.0065802743419887426,
0.00887780548628429,0.0011333274436888807,
0.008927680798004987,-0.007005320914020154,
0.008977556109725686,0.00033033943082998,
0.009027431421446384,-0.02045224113147493,
0.009077306733167083,-0.013422902019977416,
0.00912718204488778,-0.007708071766429235,
0.00917705735660848,-0.04308285881526587,
0.009226932668329177,-0.014304732846296913,
0.009276807980049876,0.008770029462517266,
0.009326683291770574,0.009808565289763435,
0.009376558603491271,-0.018117599846663786,
0.00942643391521197,-0.036659174825870444,
0.009476309226932668,0.00566307878367058,
0.009526184538653367,-0.00685786993740718,
0.009576059850374064,-0.01316229130198687,
0.009625935162094763,-0.01839598320946747,
0.00967581047381546,-0.013111309663084708,
0.00972568578553616,0.010015133161513819,
0.009775561097256857,-0.00017272473140437627,
0.009825436408977557,0.01705966592227697,
0.009875311720698254,-0.011751178366269016,
0.009925187032418953,0.00992887115857482,
0.00997506234413965,0.020322558470016183,
0.01002493765586035,-0.019306839748478757,
0.010074812967581047,-0.0005390532748294002,
0.010124688279301746,0.012536139498545058,
0.010174563591022444,-0.014823695622296618,
0.010224438902743141,-0.004714944062856795,
0.01027431421446384,0.009609226342201804,
0.010324189526184538,-0.018451443722156964,
0.010374064837905237,-0.0190114625175065,
0.010423940149625935,-0.004721512309202753,
0.010473815461346634,0.008007138244413164,
0.010523690773067331,-0.017141921805059933,
0.01057356608478803,0.017055443237914157,
0.010623441396508728,0.010368619362764451,
0.010673316708229427,-0.006917678580854102,
0.010723192019950124,-0.013772978698473078,
0.010773067331670824,0.01672169346516528,
0.010822942643391521,-0.0030205435184728962,
0.01087281795511222,-0.018417280226864608,
0.010922693266832918,-0.012409993685280136,
0.010972568578553617,0.0049422230840297735,
0.011022443890274314,-0.005736443575373023,
0.011072319201995013,0.006129922316420325,
0.01112219451371571,0.019941622128509095,
0.011172069825436408,-0.02159423730731338,
0.011221945137157107,0.022777881633672337,
0.011271820448877805,-0.004848350158489383,
0.011321695760598504,0.02442586362013702,
0.011371571072319201,-0.002046851373838166,
0.0114214463840399,0.012649985952785887,
0.011471321695760598,-0.012994063168350948,
0.011521197007481297,0.00954499586387026,
0.011571072319201995,0.013387042955777362,
0.011620947630922694,0.00254543560742108,
0.011670822942643391,0.02418447188238175,
0.01172069825436409,-0.0014878971392350074,
0.011770573566084788,-0.0017175958765077732,
0.011820448877805487,0.009539817591190195,
0.011870324189526184,-0.014837781032980824,
0.011920199501246884,0.014387509341390234,
0.011970074812967581,-0.004048995518427306,
0.012019950124688279,0.0124275323611046,
0.012069825436408978,0.007280772757782035,
0.012119700748129675,0.01668877487045473,
0.012169576059850374,-0.009841388328587582,
0.012219451371571072,0.02139845293932069,
0.012269326683291771,0.02798013915787586,
0.012319201995012468,0.027711251750162955,
0.012369077306733168,0.03982220369456193,
0.012418952618453865,0.02410110868931261,
0.012468827930174564,0.008147580832069101,
0.012518703241895262,0.012202906156164388,
0.01256857855361596,0.006128866728168527,
0.012618453865336658,0.0038278334185993385,
0.012668329177057357,0.013026860584208651,
0.012718204488778055,0.016444591113807593,
0.012768079800498754,0.0036758819529700473,
0.012817955112219451,0.00977371087788343,
0.012867830423940149,0.003646164984082996,
0.012917705735660848,0.016676874496536598,
0.012967581047381545,0.014678508234035508,
0.013017456359102245,0.01768351905109203,
0.013067331670822942,0.01171122795030712,
0.013117206982543641,0.009783644675696122,
0.013167082294264339,0.014001701550392836,
0.013216957605985038,0.022150825635756974,
0.013266832917705735,0.0006156545144023386,
0.013316708229426434,0.0020477454526286343,
0.013366583541147132,0.016265978020349885,
0.013416458852867831,0.006607567986564809,
0.013466334164588529,0.0256178753632455,
0.013516209476309228,0.04227180966681027,
0.013566084788029925,0.01807482324784144,
0.013615960099750624,0.021607339410930532,
0.013665835411471322,0.023182391799129457,
0.01371571072319202,0.024477571539031108,
0.013765586034912718,0.007748966698038292,
0.013815461346633416,-0.00025509867796929056,
0.013865336658354115,0.019880178373516702,
0.013915211970074812,0.01130151801255868,
0.013965087281795512,0.0121984541234412,
0.014014962593516209,-0.005751806361670973,
0.014064837905236908,0.03306199635885712,
0.014114713216957606,0.020461414848781497,
0.014164588528678305,-0.021196911633212346,
0.014214463840399002,0.010646514437008025,
0.014264339152119701,0.01175749853165211,
0.014314214463840399,0.041590903966801644,
0.014364089775561098,0.04502180533691383,
0.014413965087281795,0.03474608215584658,
0.014463840399002495,-0.011137580395959436,
0.014513715710723192,0.019071474081785212,
0.01456359102244389,0.000319198640604975,
0.014613466334164589,0.05787375381158784,
0.014663341645885286,0.0007160807729542917,
0.014713216957605985,0.026669309840894453,
0.014763092269326683,0.025246523485763197,
0.014812967581047382,0.05393603423154378,
0.01486284289276808,0.055486361512718504,
0.014912718204488778,0.00692075023090318,
0.014962593516209476,0.00594912778915613,
0.015012468827930175,0.024308707503810693,
0.015062344139650873,0.03920692258883454,
0.015112219451371572,0.022128081019094185,
0.01516209476309227,0.029470257695595387,
0.015211970074812968,0.012103542436344254,
0.015261845386533666,0.038597108125476495,
0.015311720698254365,0.02282218769495935,
0.015361596009975062,0.017217897605518593,
0.01541147132169576,0.043613154443123775,
0.015461346633416459,0.04707223025453911,
0.015511221945137156,0.03485463912782889,
0.015561097256857856,0.02522276232366198,
0.015610972568578553,0.033582353292129496,
0.015660847880299252,0.042284671691231596,
0.01571072319201995,0.021489889863145765,
0.015760598503740647,-0.0017508105807147213,
0.015810473815461346,0.023059020896022506,
0.015860349127182045,0.005031484487177204,
0.015910224438902745,0.02478442301110782,
0.01596009975062344,0.0237222282703596,
0.01600997506234414,0.010138684993072581,
0.01605985037406484,0.03660950995180671,
0.016109725685785538,0.044024260219955993,
0.016159600997506234,0.04860758298005212,
0.016209476309226933,-0.007354417542719156,
0.016259351620947632,0.031238054214077653,
0.016309226932668328,0.013749864134334265,
0.016359102244389027,-0.009337801697025406,
0.016408977556109726,0.01855980328693918,
0.016458852867830425,0.007678954329489193,
0.01650872817955112,0.025561702960860345,
0.01655860349127182,0.038155904791941864,
0.01660847880299252,0.04929986301302906,
0.01665835411471322,0.027716592728499894,
0.016708229426433914,0.020682470659462226,
0.016758104738154613,-0.011133858329849523,
0.016807980049875312,0.036818771458067244,
0.01685785536159601,0.009658925536551314,
0.016907730673316707,0.013786289640280213,
0.016957605985037406,0.03156643335653006,
0.017007481296758106,0.017917470494125794,
0.0170573566084788,0.03571637946962094,
0.0171072319201995,0.02021657231363194,
0.0171571072319202,0.02216113265121522,
0.0172069825436409,0.022476560465787384,
0.017256857855361595,0.0038658978451845075,
0.017306733167082294,0.0063471009351774,
0.017356608478802993,0.008889973665587534,
0.017406483790523692,0.02135223722368547,
0.017456359102244388,-0.0021604522335484586,
0.017506234413965087,0.04975909937813261,
0.017556109725685786,-0.001506394714529742,
0.017605985037406485,0.028394528671947417,
0.01765586034912718,0.014153576907110716,
0.01770573566084788,0.044877532483589506,
0.01775561097256858,0.013070791680341219,
0.01780548628428928,0.011322171382667168,
0.017855361596009974,0.011552393722561392,
0.017905236907730673,0.015206059275114269,
0.017955112219451373,0.03003745077558516,
0.018004987531172068,0.023067267380189792,
0.018054862842892767,0.016818662377366997,
0.018104738154613467,-0.0004932974853100944,
0.018154613466334166,0.008229887193291919,
0.01820448877805486,-0.00590578742752257,
0.01825436408977556,0.017280636174788144,
0.01830423940149626,0.015371579535849892,
0.01835411471321696,0.014098223112163737,
0.018403990024937655,0.013583027594853121,
0.018453865336658354,0.032815170558331865,
0.018503740648379053,0.01560989277270681,
0.018553615960099752,0.022242465233526073,
0.018603491271820448,0.0293168349737098,
0.018653366583541147,0.022689749308469717,
0.018703241895261846,0.01587251830826215,
0.018753117206982542,0.01295557573009894,
0.01880299251870324,0.025156657982778136,
0.01885286783042394,0.020940485057068033,
0.01890274314214464,0.010751389259079742,
0.018952618453865335,0.024366266069558266,
0.019002493765586034,0.044289766557569735,
0.019052369077306733,-0.008868293340502792,
0.019102244389027433,0.02335422385926973,
0.01915211970074813,0.016154013013650395,
0.019201995012468828,-0.0035724266310747533,
0.019251870324189527,-0.005539330946157033,
0.019301745635910226,0.0009739477249916476,
0.01935162094763092,0.0137976005847377,
0.01940149625935162,0.012471107962356611,
0.01945137157107232,0.010240553801057328,
0.01950124688279302,0.005130267995365199,
0.019551122194513715,-0.007929194014718146,
0.019600997506234414,0.01231401383897464,
0.019650872817955113,-0.029543110139446375,
0.01970074812967581,0.017325385458199505,
0.019750623441396508,0.022314364366417497,
0.019800498753117207,-0.020513410723780674,
0.019850374064837906,0.022196490477947417,
0.019900249376558602,-0.030618886291241904,
0.0199501246882793,-0.0006773680938326294,
0.02,-0.0024490569417330525,
0.0200498753117207,-0.009496046403284759,
0.020099750623441395,-0.009880377773921962,
0.020149625935162094,0.001506956894721146,
0.020199501246882794,0.012746964468318089,
0.020249376558603493,-0.006012175150004646,
0.02029925187032419,-0.00908791025290024,
0.020349127182044888,0.019242449405155758,
0.020399002493765587,0.01561603398221932,
0.020448877805486283,0.013382632538606984,
0.02049875311720698,-0.011550505727023867,
0.02054862842892768,-0.006272956487626014,
0.02059850374064838,0.022629623091242262,
0.020648379052369076,0.009839821591575346,
0.020698254364089775,0.01459276583056573,
0.020748129675810474,-0.004609415759869088,
0.020798004987531173,-0.015285697472485912,
0.02084788029925187,0.006551901976846773,
0.020897755610972568,0.00014081401962666505,
0.020947630922693267,-0.0045975664785062684,
0.020997506234413967,-0.007551908240402766,
0.021047381546134662,-0.007955527061872856,
0.02109725685785536,-0.008992696360652521,
0.02114713216957606,0.0011204495893912254,
0.02119700748129676,0.011961952164970363,
0.021246882793017455,-0.0233340252181861,
0.021296758104738155,-0.0010726055864578045,
0.021346633416458854,0.019746157892672977,
0.02139650872817955,-0.006228114638472166,
0.02144638403990025,-0.006002740794709324,
0.021496259351620948,-0.0026275380733678374,
0.021546134663341647,-0.005029751997448378,
0.021596009975062343,0.0015572421147557495,
0.021645885286783042,-0.004985519444264618,
0.02169576059850374,0.005377030163266293,
0.02174563591022444,-0.038878310316060274,
0.021795511221945136,-0.004119619324047041,
0.021845386533665835,0.0023954693489087256,
0.021895261845386534,-0.009688138620730032,
0.021945137157107233,-0.007737668618926354,
0.02199501246882793,0.01928973572362914,
0.02204488778054863,-0.006446480970721968,
0.022094763092269327,-0.019809447683845557,
0.022144638403990027,-0.002491496416053834,
0.022194513715710722,-0.01704652150670389,
0.02224438902743142,0.01682983602096512,
0.02229426433915212,-0.014178579275304137,
0.022344139650872816,0.009082718857081673,
0.022394014962593516,-0.014238819625029032,
0.022443890274314215,-0.024834800121836923,
0.022493765586034914,-0.01757842167452141,
0.02254364089775561,-0.020717125150434813,
0.02259351620947631,0.014948192795648848,
0.022643391521197008,-0.019040798243138556,
0.022693266832917707,-0.01849900575990904,
0.022743142144638403,-0.007160561296909617,
0.022793017456359102,-0.02564173008092538,
0.0228428927680798,-0.0239730593770226,
0.0228927680798005,0.009135135620739296,
0.022942643391521196,-0.017935903412777315,
0.022992518703241895,-0.016511454351355283,
0.023042394014962594,-0.026240900782279548,
0.02309226932668329,-0.0073371322645330375,
0.02314214463840399,-0.0033865831408729473,
0.02319201995012469,-0.03988111367799317,
0.023241895261845388,-0.02587421127983372,
0.023291770573566083,-0.006392110831912884,
0.023341645885286783,-0.0025453233941261,
0.02339152119700748,-0.036939159552954355,
0.02344139650872818,-0.01766502089346481,
0.023491271820448877,-0.040364213792163636,
0.023541147132169576,-0.015782467123563217,
0.023591022443890275,-0.016654505169473525,
0.023640897755610974,0.0006109966668856361,
0.02369077306733167,-0.034287266673456676,
0.02374064837905237,0.020848096595717187,
0.023790523690773068,-0.007789024607146441,
0.023840399002493767,0.01950886548295186,
0.023890274314214463,-0.04666120089433287,
0.023940149625935162,-0.009107305376832634,
0.02399002493765586,-0.022152535787923356,
0.024039900249376557,-0.028686234623664004,
0.024089775561097256,-0.029806470745053375,
0.024139650872817955,-0.013981509847053602,
0.024189526184538655,-0.019034226488727726,
0.02423940149625935,-0.03218193929875906,
0.02428927680798005,0.01808758738941839,
0.02433915211970075,0.002875730734734322,
0.024389027431421448,-0.01358066946666274,
0.024438902743142144,-0.026456454504964973,
0.024488778054862843,-0.017525315752379665,
0.024538653366583542,-0.017571506052721328,
0.02458852867830424,-0.035280681353402746,
0.024638403990024937,0.009637621654546343,
0.024688279301745636,-0.0280973827682387,
0.024738154613466335,-0.009925743749224211,
0.02478802992518703,-0.002114472569035044,
0.02483790523690773,-0.014447400171760487,
0.02488778054862843,-0.004985473651739873,
0.02493765586034913,-0.029911546768775304,
0.024987531172069824,-0.011731889811604064,
0.025037406483790523,-0.013891587461664728,
0.025087281795511222,-0.0009492945599959071,
0.02513715710723192,-0.008199276055616241,
0.025187032418952617,-0.01380383155619854,
0.025236907730673316,-0.026387164150443322,
0.025286783042394016,-0.04193175548234494,
0.025336658354114715,-0.029124568725910325,
0.02538653366583541,-0.024342333348046554,
0.02543640897755611,-0.012250150255233211,
0.02548628428927681,-0.009875359075174743,
0.025536159600997508,-0.03773036919506019,
0.025586034912718204,-0.005517568850920163,
0.025635910224438903,-0.003526340123254715,
0.025685785536159602,-0.029731345942705052,
0.025735660847880298,0.013027553660920788,
0.025785536159600997,0.020454095288639625,
0.025835411471321696,-0.02428829003946125,
0.025885286783042395,-0.01494235498762601,
0.02593516209476309,0.005222455111292958,
0.02598503740648379,-0.049250310149211954,
0.02603491271820449,-0.011108563350924593,
0.02608478802992519,-0.014478147054551655,
0.026134663341645884,-0.03152580261323236,
0.026184538653366583,-0.014053501452596567,
0.026234413965087282,-0.02138011717224875,
0.02628428927680798,-0.013580819486684166,
0.026334164588528677,0.0011036138693458382,
0.026384039900249377,-0.027152371472625253,
0.026433915211970076,-0.005977331176703814,
0.02648379052369077,-0.046218222374873,
0.02653366583541147,-0.027789015076920533,
0.02658354114713217,-0.03343401565335489,
0.02663341645885287,-0.024619838618373368,
0.026683291770573565,0.015288609097065777,
0.026733167082294264,-0.012693681990924372,
0.026783042394014963,-0.05322978069810688,
0.026832917705735662,-0.023583450764583187,
0.026882793017456358,0.021473994023425914,
0.026932668329177057,-0.017149422078301665,
0.026982543640897756,-0.014002141156113722,
0.027032418952618455,-0.02350982081836961,
0.02708229426433915,0.004242948759960383,
0.02713216957605985,-0.00331710648522876,
0.02718204488778055,-0.00802389695828756,
0.02723192019950125,-0.00397186067672118,
0.027281795511221944,-0.008072118545457186,
0.027331670822942643,-0.03485606739586324,
0.027381546134663343,-0.010875626383620381,
0.02743142144638404,-0.007768644556782199,
0.027481296758104738,-0.0009692184705000946,
0.027531172069825437,-0.005170903935158457,
0.027581047381546136,0.010695906126182859,
0.02763092269326683,-0.02624813602385396,
0.02768079800498753,-0.02087787329314391,
0.02773067331670823,-0.024227714313846828,
0.02778054862842893,0.013398535166443806,
0.027830423940149625,-0.02321190863037835,
0.027880299251870324,-0.0018091543860076255,
0.027930174563591023,-0.0022416746106385024,
0.027980049875311722,-0.008283065048885888,
0.028029925187032418,-0.01468921135171684,
0.028079800498753117,-0.024158487836500465,
0.028129675810473816,-0.005564269292632956,
0.028179551122194512,-0.01709915706000812,
0.02822942643391521,-0.01730901276291793,
0.02827930174563591,-0.028914046015489324,
0.02832917705735661,0.0062096190380285295,
0.028379052369077305,-0.014495221254440742,
0.028428927680798004,-0.0011959284957199622,
0.028478802992518704,-0.008613160560668184,
0.028528678304239403,0.001549908060772473,
0.0285785536159601,-0.0038930436306060523,
0.028628428927680798,-0.016587510557941904,
0.028678304239401497,-0.03129163206127543,
0.028728179551122196,-0.01997439067488382,
0.02877805486284289,0.019615186193771984,
0.02882793017456359,0.019450553798728946,
0.02887780548628429,-0.0006412253387785612,
0.02892768079800499,0.017229740596184193,
0.028977556109725685,-0.0213873506976999,
0.029027431421446384,0.0033006222468439537,
0.029077306733167083,-0.01398115788712679,
0.02912718204488778,0.003110280104911653,
0.029177057356608478,0.02449522280016766,
0.029226932668329177,-0.03906932048504858,
0.029276807980049877,-0.00773423640387441,
0.029326683291770572,-0.0005941842620728471,
0.02937655860349127,-0.010636110560554655,
0.02942643391521197,-0.013734447432495318,
0.02947630922693267,0.011499586886218428,
0.029526184538653365,-0.012186338869162707,
0.029576059850374065,-0.02470839675628851,
0.029625935162094764,-0.019226425372619992,
0.029675810473815463,-0.0023817236145807054,
0.02972568578553616,-0.028575216041143728,
0.029775561097256858,0.0259124232455199,
0.029825436408977557,0.0035108536807496775,
0.029875311720698253,-0.014641693056148097,
0.029925187032418952,0.0058224698233674006,
0.02997506234413965,0.023550988519628266,
0.03002493765586035,-0.0055090345505011875,
0.030074812967581046,0.0052167917533247135,
0.030124688279301745,-0.003404499454989239,
0.030174563591022444,-0.0002862359484227386,
0.030224438902743143,0.010201365678745127,
0.03027431421446384,0.00890402487439408,
0.03032418952618454,0.014929457121814888,
0.030374064837905237,-0.011543865407255605,
0.030423940149625937,0.003224147176142885,
0.030473815461346632,0.02035131125565646,
0.03052369077306733,0.002583198104905325,
0.03057356608478803,0.0028167505702990023,
0.03062344139650873,0.008958504534759814,
0.030673316708229426,-0.018339139759304953,
0.030723192019950125,-0.010794152857337685,
0.030773067331670824,0.0036459967302214205,
0.03082294264339152,-0.011933051927625938,
0.03087281795511222,-0.005228511771646473,
0.030922693266832918,0.020541132935584704,
0.030972568578553617,0.007100224443396877,
0.031022443890274313,0.024944250619546533,
0.031072319201995012,-0.02375133456251991,
0.03112219451371571,-0.0029606520519754797,
0.03117206982543641,0.027735040052214874,
0.031221945137157106,-0.0003360660309749304,
0.03127182044887781,0.01850213658555698,
0.031321695760598504,-0.011776227060781396,
0.0313715710723192,0.00880403845794743,
0.0314214463840399,0.014522295239290384,
0.0314713216957606,-0.007193946869882947,
0.031521197007481294,0.005145072478318453,
0.031571072319202,0.014560257308380729,
0.03162094763092269,0.03673305285398549,
0.03167082294264339,-0.006562627888545149,
0.03172069825436409,-0.0010516121792074097,
0.03177057356608479,-0.02153475833992899,
0.03182044887780549,-0.010871894832773836,
0.031870324189526185,0.026133311089133953,
0.03192019950124688,0.001263341140468631,
0.03197007481296758,0.0024563886175867668,
0.03201995012468828,0.015256915359677081,
0.032069825436408975,0.019630028099879522,
0.03211970074812968,0.021816497296404204,
0.03216957605985037,0.03896823970153922,
0.032219451371571076,0.001359121343231155,
0.03226932668329177,6.865871725625881e-05,
0.03231920199501247,0.027292019712631996,
0.03236907730673317,-0.008293522876395981,
0.032418952618453865,0.0032319150015282256,
0.03246882793017456,0.011469190068907158,
0.032518703241895264,0.00783129714048503,
0.03256857855361596,0.015264239306889247,
0.032618453865336655,0.013860967115069026,
0.03266832917705736,0.004034895329701258,
0.032718204488778053,0.04123533056765873,
0.032768079800498756,0.028623860827614277,
0.03281795511221945,0.021040358745511686,
0.03286783042394015,0.02129030861544504,
0.03291770573566085,0.023446600363837194,
0.032967581047381546,0.02933840923554354,
0.03301745635910224,0.02437709953444169,
0.033067331670822944,0.018681737457611543,
0.03311720698254364,0.011910578744002765,
0.03316708229426434,-0.001725428474577649,
0.03321695760598504,0.015647119628954008,
0.033266832917705734,0.00538544878746163,
0.03331670822942644,0.01950662236618471,
0.03336658354114713,-0.0003663663073612475,
0.03341645885286783,0.02125596403517014,
0.03346633416458853,0.03930724361553691,
0.033516209476309226,0.0004268250593560119,
0.03356608478802992,0.017615083290260992,
0.033615960099750625,0.01867531368118343,
0.03366583541147132,0.007948499186423602,
0.03371571072319202,-0.0031135542456700444,
0.03376558603491272,0.011029558593384241,
0.033815461346633414,0.00657396548255954,
0.03386533665835412,0.018839934963393513,
0.03391521197007481,0.04162883090006264,
0.03396508728179551,0.02077767947875997,
0.03401496259351621,0.02553032922864989,
0.03406483790523691,0.01162875166362038,
0.0341147132169576,0.03564228304209196,
0.034164588528678305,0.018477932501885067,
0.034214463840399,-0.004933726057705524,
0.034264339152119704,0.009904740140206937,
0.0343142144638404,0.01568834938182534,
0.034364089775561095,0.04247165417595354,
0.0344139650872818,0.02818240259064657,
0.03446384039900249,0.004099339745716475,
0.03451371571072319,0.055360515778016844,
0.03456359102244389,0.01065332315770731,
0.03461346633416459,-0.0016299550161294127,
0.03466334164588529,0.002061063395394174,
0.034713216957605986,0.035055462148228765,
0.03476309226932668,0.04039463085388659,
0.034812967581047384,0.00957403729215208,
0.03486284289276808,0.014784123162065902,
0.034912718204488775,0.04142023580022079,
0.03496259351620948,0.03637020513876585,
0.035012468827930174,0.01292731022225937,
0.03506234413965087,0.010938722253088288,
0.03511221945137157,0.028695985005658953,
0.03516209476309227,0.0267120494877118,
0.03521197007481297,0.029299046748487455,
0.035261845386533666,0.03396053966895259,
0.03531172069825436,0.015366866436989673,
0.035361596009975065,0.011703001384982167,
0.03541147132169576,0.03077119445893574,
0.035461346633416456,0.015097103724687408,
0.03551122194513716,0.03172796597486705,
0.035561097256857854,0.016523608539759475,
0.03561097256857856,0.005474311603859996,
0.03566084788029925,0.021782343236379273,
0.03571072319201995,-0.010798582617384575,
0.03576059850374065,0.031247260561002008,
0.03581047381546135,0.014557395338965478,
0.03586034912718204,0.02353213289064476,
0.035910224438902745,0.028435846533138565,
0.03596009975062344,0.021173828157388937,
0.036009975062344136,0.024474467260257718,
0.03605985037406484,0.015007397974041263,
0.036109725685785535,0.039073232731500915,
0.03615960099750624,0.01902910536620622,
0.03620947630922693,0.018493943459444606,
0.03625935162094763,0.008401814664026482,
0.03630922693266833,0.03841144902197999,
0.03635910224438903,0.04634090449786468,
0.03640897755610972,0.02759624254998138,
0.036458852867830426,0.032289384009131145,
0.03650872817955112,0.011360327855742793,
0.036558603491271824,0.016393618269628544,
0.03660847880299252,0.04696059119994291,
0.036658354114713215,0.024367219692066375,
0.03670822942643392,0.007312851837665196,
0.036758104738154614,0.01326016007726088,
0.03680798004987531,0.023581271515673456,
0.03685785536159601,-0.018802656094595166,
0.03690773067331671,0.02925897309377683,
0.0369576059850374,0.018790704319814885,
0.037007481296758106,0.04488465191068458,
0.0370573566084788,0.03806336661422803,
0.037107231920199504,0.01986656338223827,
0.0371571072319202,0.003865049398363598,
0.037206982543640896,0.03232298580876977,
0.0372568578553616,0.015244559600285689,
0.037306733167082294,0.02320065626232168,
0.03735660847880299,0.038029991599361775,
0.03740648379052369,0.019951996117842413,
0.03745635910224439,0.026564146883503045,
0.037506234413965084,0.02229806572256258,
0.037556109725685786,0.02588084079423931,
0.03760598503740648,0.02015216298451027,
0.037655860349127185,0.0014676156103215592,
0.03770573566084788,0.02727577336570034,
0.037755610972568576,0.03817382002559948,
0.03780548628428928,0.011963831527967851,
0.037855361596009975,-0.0031687356474615486,
0.03790523690773067,0.011292587340449167,
0.03795511221945137,-0.0013729966657270616,
0.03800498753117207,0.008494405033448218,
0.03805486284289277,0.00607476040974903,
0.03810473815461347,0.011448510022031108,
0.03815461346633416,-0.010322892262131927,
0.038204488778054865,0.029841225003035786,
0.03825436408977556,0.03090032135797323,
0.03830423940149626,0.0330308640089534,
0.03835411471321696,0.031214556060886998,
0.038403990024937655,0.014922459413767396,
0.03845386533665835,0.029366664126327345,
0.03850374064837905,0.03562650658917939,
0.03855361596009975,0.019923780706287243,
0.03860349127182045,0.026638617497347666,
0.03865336658354115,0.00426421885583874,
0.03870324189526184,0.02053539525718336,
0.038753117206982546,0.007240771637498809,
0.03880299251870324,0.001870908232146546,
0.03885286783042394,0.005033995365735408,
0.03890274314214464,0.018636833796473355,
0.038952618453865336,0.013926350350515737,
0.03900249376558604,0.03280737747992277,
0.039052369077306734,0.002599203747297848,
0.03910224438902743,0.007071961475289544,
0.03915211970074813,-0.007616980301285298,
0.03920199501246883,0.005381677447267355,
0.039251870324189524,0.019820095663410423,
0.039301745635910226,0.0351771310102768,
0.03935162094763092,0.02950630606721618,
0.03940149625935162,0.003282149992069888,
0.03945137157107232,0.0029464429861000138,
0.039501246882793016,0.018661246444157994,
0.03955112219451372,0.015198558579376754,
0.039600997506234414,0.019093744929629387,
0.03965087281795511,0.007550598170976304,
0.03970074812967581,0.016815459283978297,
0.03975062344139651,0.008940351290883669,
0.039800498753117204,0.0132388350175993,
0.03985037406483791,0.0012834143897741202,
0.0399002493765586,0.003992353089984103,
0.039950124688279305,0.0009903134939469108,
0.04,0.01283013462523671,
0.0400498753117207,0.011715568906637362,
0.0400997506234414,-0.016001307512690438,
0.040149625935162095,0.015924063718371004,
0.04019950124688279,-0.01546360467150434,
0.04024937655860349,-0.008352266933965012,
0.04029925187032419,0.0091059764434027,
0.040349127182044885,-0.0006813248540500864,
0.04039900249376559,-0.007650168391212707,
0.04044887780548628,-0.004834911887691192,
0.040498753117206986,-0.010444367429002543,
0.04054862842892768,0.017792966243494378,
0.04059850374064838,-0.013053935031796195,
0.04064837905236908,-0.01826509806756722,
0.040698254364089775,-0.003133357702692555,
0.04074812967581047,-0.0001575036550732214,
0.040798004987531174,-0.006834939086931818,
0.04084788029925187,-0.01672642870257746,
0.040897755610972565,-0.005316189555253786,
0.04094763092269327,0.0023213459784355473,
0.04099750623441396,0.004636671293411339,
0.041047381546134666,-0.006986688518979779,
0.04109725685785536,0.026580076033859777,
0.04114713216957606,-0.013833045594792655,
0.04119700748129676,0.0012909568637585913,
0.041246882793017456,0.01926789555016787,
0.04129675810473815,-0.029124842137519473,
0.041346633416458854,-0.004875833804920508,
0.04139650872817955,-0.004140736933039612,
0.04144638403990025,0.0019561100229125643,
0.04149625935162095,-0.007338488710514483,
0.041546134663341644,-0.02331402507340434,
0.04159600997506235,0.005068677938524897,
0.04164588528678304,-0.011539861076172272,
0.04169576059850374,-0.0031972557805389633,
0.04174563591022444,0.014159622201310836,
0.041795511221945136,-0.019539838683059592,
0.04184538653366583,-0.0033487292529129544,
0.041895261845386535,-0.019780073725482447,
0.04194513715710723,-0.0031640323982462014,
0.04199501246882793,-0.018848708608878547,
0.04204488778054863,-0.018824896084550305,
0.042094763092269324,-0.024415083018110652,
0.04214463840399003,-0.003971097223158853,
0.04219451371571072,-0.017828805844405927,
0.04224438902743142,-0.010552851645223472,
0.04229426433915212,-0.010693352235157423,
0.04234413965087282,0.019386358225010402,
0.04239401496259352,-0.005530090654480581,
0.042443890274314215,-0.001649205797024005,
0.04249376558603491,-0.04603002053237678,
0.042543640897755614,-0.03922913873020259,
0.04259351620947631,-0.005073198151217221,
0.042643391521197005,-0.03038136770633219,
0.04269326683291771,-0.0036697101364377973,
0.0427431421446384,0.006431039530239456,
0.0427930174563591,-0.009620789160698452,
0.0428428927680798,-0.03825113932164158,
0.0428927680798005,-0.004710779456719543,
0.0429426433915212,-0.026184266713090185,
0.042992518703241896,-0.001988297266953914,
0.04304239401496259,-0.01578006727030811,
0.043092269326683294,-0.007958784480878896,
0.04314214463840399,-0.021688618762051214,
0.043192019950124685,-0.012276175681366547,
0.04324189526184539,-0.02114132731390684,
0.043291770573566084,-0.005503002113754462,
0.043341645885286786,-0.030239540244958618,
0.04339152119700748,0.0001709634621761616,
0.04344139650872818,-0.019005138187393772,
0.04349127182044888,-0.010189173110121838,
0.043541147132169576,-0.0295859444150362,
0.04359102244389027,-0.010350118490733704,
0.043640897755610975,-0.004816447582435492,
0.04369077306733167,-0.048209192684274746,
0.043740648379052366,-0.03547234621114439,
0.04379052369077307,0.018665530046322182,
0.043840399002493764,0.0020312652015821355,
0.04389027431421447,-0.00870298734002412,
0.04394014962593516,-0.005499682127228669,
0.04399002493765586,-0.016003729307024504,
0.04403990024937656,-0.022002743165564574,
0.04408977556109726,-0.013846762179722544,
0.04413965087281795,-0.013922049419798403,
0.044189526184538655,-0.026569922748082335,
0.04423940149625935,-0.012848109261774482,
0.04428927680798005,-0.03114607892347404,
0.04433915211970075,-0.04207696860473127,
0.044389027431421445,-0.041728892697305967,
0.04443890274314215,0.00015043427833257537,
0.04448877805486284,-0.02462970487286438,
0.04453865336658354,-0.041518926768086495,
0.04458852867830424,-0.009856287798741613,
0.04463840399002494,-0.012447147389359859,
0.04468827930174563,-0.022043826542549966,
0.044738154613466335,-0.00503054856931035,
0.04478802992518703,-0.00047652850651127773,
0.044837905236907734,-0.04101979679650745,
0.04488778054862843,-0.016018650142997963,
0.044937655860349125,-0.013796981451031573,
0.04498753117206983,-0.04626387229269746,
0.045037406483790524,-0.01776457965191357,
0.04508728179551122,-0.015587474859768607,
0.04513715710723192,-0.014516566566489985,
0.04518703241895262,-0.01651565236131602,
0.04523690773067331,0.002294493065197717,
0.045286783042394016,-0.001957341499389146,
0.04533665835411471,-0.03388646249719132,
0.045386533665835414,-0.02237258878394024,
0.04543640897755611,-0.02730327685861425,
0.045486284289276806,-0.038724981885395166,
0.04553615960099751,0.0013278478075201168,
0.045586034912718204,-0.0033804122297518644,
0.0456359102244389,-0.012561155416094573,
0.0456857855361596,0.005372616333221468,
0.0457356608478803,-0.04221667814635281,
0.045785536159601,0.011143615313583127,
0.045835411471321696,-0.03519442809415782,
0.04588528678304239,-0.017919510549538234,
0.045935162094763095,-0.017525777988341103,
0.04598503740648379,-0.00917713673876062,
0.046034912718204486,-0.0034586215875269145,
0.04608478802992519,-0.011347309176600349,
0.046134663341645885,-0.03248089400518732,
0.04618453865336658,0.0039943737606245484,
0.04623441396508728,-0.01467015155490532,
0.04628428927680798,0.007935266077949536,
0.04633416458852868,-0.023201636811221414,
0.04638403990024938,-0.028260346433131363,
0.04643391521197007,-0.012837140619019905,
0.046483790523690775,-0.023471781910373135,
0.04653366583541147,0.009832807623034966,
0.04658354114713217,-0.016828341685741367,
0.04663341645885287,-0.0012305394449742008,
0.046683291770573565,0.008655116176784756,
0.04673316708229427,-0.0029454674100598075,
0.04678304239401496,-0.013248821369230949,
0.04683291770573566,-0.015408579702212828,
0.04688279301745636,-0.01444158453783821,
0.04693266832917706,-0.027777776186346963,
0.04698254364089775,-0.009960509669276384,
0.047032418952618456,-0.024228304786003855,
0.04708229426433915,-0.02131958963858449,
0.04713216957605985,-0.036424556463669974,
0.04718204488778055,-0.01759726419057548,
0.047231920199501246,-0.01622808045929597,
0.04728179551122195,-0.019518380268522723,
0.047331670822942644,-0.03237470441683163,
0.04738154613466334,0.005777840228689525,
0.04743142144638404,-0.01373331612967903,
0.04748129675810474,-0.010538828134803065,
0.047531172069825434,-0.019330493463006082,
0.047581047381546136,-0.013046154403843784,
0.04763092269326683,0.0018490534810381466,
0.047680798004987535,-0.045282708186640944,
0.04773067331670823,0.0051322020185541675,
0.047780548628428926,-0.001067568828615478,
0.04783042394014963,-2.9347553197110396e-05,
0.047880299251870324,0.0007542021927953863,
0.04793017456359102,-0.01795717430815615,
0.04798004987531172,0.020619798090437652,
0.04802992518703242,-0.0006860811723188136,
0.048079800498753114,-0.020255406697223068,
0.04812967581047382,-0.024230661929317745,
0.04817955112219451,-0.02013894823638308,
0.048229426433915215,-0.030833958528233518,
0.04827930174563591,-0.012855503675554629,
0.048329177057356607,0.00424133558270251,
0.04837905236907731,-0.00668654165172379,
0.048428927680798005,-0.038209058952784994,
0.0484788029925187,-0.012901591045513257,
0.0485286783042394,-0.0028464182829627347,
0.0485785536159601,-0.011966963152897067,
0.048628428927680795,-0.012870861160985906,
0.0486783042394015,-0.013608966963016207,
0.04872817955112219,-0.0028116609177613458,
0.048778054862842896,-0.023561068517839442,
0.04882793017456359,-0.01576459842639569,
0.04887780548628429,0.00789863403047621,
0.04892768079800499,-0.0013147576690434983,
0.048977556109725685,-0.02047559528916898,
0.04902743142144638,-0.002251877268306035,
0.049077306733167084,0.001766501497886183,
0.04912718204488778,0.005598888423247976,
0.04917705735660848,0.010913399100389727,
0.04922693266832918,0.008673796242246486,
0.04927680798004987,-0.011366882313461663,
0.049326683291770576,-0.004949844790312937,
0.04937655860349127,-0.009843307578176367,
0.04942643391521197,-0.00024709295202356325,
0.04947630922693267,0.006880845079833208,
0.049526184538653366,-0.008085383263591334,
0.04957605985037406,-0.02484475492085242,
0.049625935162094764,0.013021299001199202,
0.04967581047381546,-0.010666728367053312,
0.04972568578553616,0.007634034511129789,
0.04977556109725686,-0.01896739009015155,
0.049825436408977554,0.008607593218185043,
0.04987531172069826,-0.017931195684019293,
0.04992518703241895,0.01525247848044482,
0.04997506234413965,-0.014584370298359175,
0.05002493765586035,-0.0003379463125377856,
0.050074812967581046,-0.012149073943661114,
0.05012468827930175,0.006076639229940041,
0.050174563591022445,0.004189772752245139,
0.05022443890274314,0.007445849341649576,
0.05027431421446384,-0.00420832091251278,
0.05032418952618454,-0.011935166633373153,
0.050374064837905234,0.024161374551571017,
0.05042394014962594,0.04301768145912698,
0.05047381546134663,0.005409202431275051,
0.05052369077306733,0.006911691892701612,
0.05057356608478803,-0.005334061542532284,
0.05062344139650873,0.01719787852329679,
0.05067331670822943,0.03282356659342785,
0.050723192019950125,-0.01734494837525647,
0.05077306733167082,0.004790223117336382,
0.050822942643391524,0.04293828637316706,
0.05087281795511222,0.01902129358438623,
0.050922693266832915,0.016303016883971608,
0.05097256857855362,0.003111899207781925,
0.05102244389027431,-0.014240284419978206,
0.051072319201995016,-0.004845002834020319,
0.05112219451371571,0.0005121186074567166,
0.05117206982543641,0.043053367037414164,
0.05122194513715711,-0.007756242571149782,
0.051271820448877806,0.02140040176537164,
0.0513216957605985,-0.016805450869340148,
0.051371571072319204,0.01725114354499125,
0.0514214463840399,0.014604655530562095,
0.051471321695760595,-0.010216536050271351,
0.0515211970074813,-0.0005470838868684939,
0.051571072319201994,0.0006558371936360718,
0.051620947630922696,0.049498234329028716,
0.05167082294264339,0.003653075759179861,
0.05172069825436409,0.031085181229790412,
0.05177057356608479,0.001739521221547245,
0.051820448877805486,-0.010153465284906451,
0.05187032418952618,0.031086982924901134,
0.051920199501246884,0.0028415669194616494,
0.05197007481296758,0.011420086956579112,
0.052019950124688276,-0.007803410412074139,
0.05206982543640898,-0.002418148647666804,
0.052119700748129674,0.007527766369999742,
0.05216957605985038,0.012734460889802518,
0.05221945137157107,0.02269349361571158,
0.05226932668329177,0.033590591616033505,
0.05231920199501247,0.01613543413731669,
0.05236907730673317,0.02684045723139055,
0.05241895261845386,0.012147746631573716,
0.052468827930174565,-0.017650661790542727,
0.05251870324189526,0.01788282124821236,
0.05256857855361596,0.007475041158835089,
0.05261845386533666,0.006241818184277499,
0.052668329177057355,0.02936745528420385,
0.05271820448877806,0.009464248737054561,
0.05276807980049875,-0.014332320060323128,
0.05281795511221945,0.007826672702246932,
0.05286783042394015,0.017157181167674423,
0.05291770573566085,0.021754646116161715,
0.05296758104738154,0.014226884026277312,
0.053017456359102245,0.043718447629555,
0.05306733167082294,0.021260184486651002,
0.053117206982543644,-0.009688007196076823,
0.05316708229426434,0.04375794925146082,
0.053216957605985035,0.010391583137058645,
0.05326683291770574,0.033001186196844674,
0.053316708229426434,-0.0069988409096742275,
0.05336658354114713,0.022280041032243715,
0.05341645885286783,0.02740392259566797,
0.05346633416458853,0.038482762971919805,
0.05351620947630923,0.015325246150687949,
0.053566084788029926,0.003397716417012364,
0.05361596009975062,0.030270890206742035,
0.053665835411471324,0.02911448210306358,
0.05371571072319202,-0.0008076691848985969,
0.053765586034912716,0.012981305502933253,
0.05381546134663342,0.020135843614121806,
0.053865336658354114,0.004690625925098071,
0.05391521197007481,0.017484027627005485,
0.05396508728179551,0.044250530391925474,
0.05401496259351621,0.03371794573716115,
0.05406483790523691,-0.003663724884809094,
0.054114713216957606,0.022113993646247672,
0.0541645885286783,-0.015953724358489265,
0.054214463840399005,0.027077862145847405,
0.0542643391521197,0.030446779960316084,
0.054314214463840396,0.013254432647688785,
0.0543640897755611,0.033861778471276506,
0.054413965087281795,0.008852387966270801,
0.0544638403990025,0.00626165732602495,
0.05451371571072319,0.042337403443301,
0.05456359102244389,0.012852554575358563,
0.05461346633416459,0.013894735544727243,
0.05466334164588529,0.03431856653030062,
0.05471321695760598,0.019949388868614262,
0.054763092269326685,0.01960026826977516,
0.05481296758104738,0.02338706859636383,
0.05486284289276808,0.022071527756435776,
0.05491271820448878,0.016176142441642,
0.054962593516209475,0.021848079411560195,
0.05501246882793018,0.01848731465463823,
0.05506234413965087,0.01322628471335724,
0.05511221945137157,0.03801466750812429,
0.05516209476309227,0.025447114351906316,
0.05521197007481297,0.0120567011953688,
0.05526184538653366,0.010208610556938103,
0.055311720698254366,0.02199891466099465,
0.05536159600997506,0.03945944205440969,
0.05541147132169576,0.016019645527954603,
0.05546134663341646,0.02058583022506561,
0.055511221945137156,0.05290562146989843,
0.05556109725685786,0.01964931334926396,
0.055610972568578554,0.0048467686370206806,
0.05566084788029925,0.014873816720960357,
0.05571072319201995,0.03973375911273348,
0.05576059850374065,0.022467163227749627,
0.055810473815461344,0.007793242447234575,
0.055860349127182046,0.034489099143654736,
0.05591022443890274,0.03163326786838989,
0.055960099750623445,0.025332687341924696,
0.05600997506234414,0.03694799120529078,
0.056059850374064836,0.016930527686305662,
0.05610972568578554,0.03370344623002441,
0.056159600997506234,0.02840337293062653,
0.05620947630922693,0.02201665659516852,
0.05625935162094763,0.06096626908217055,
0.05630922693266833,0.010861721542380442,
0.056359102244389024,0.0357205379372567,
0.05640897755610973,0.033484065824115464,
0.05645885286783042,0.020009888009918275,
0.056508728179551125,0.006533987998640092,
0.05655860349127182,0.02517748310385273,
0.056608478802992516,0.023559895045523374,
0.05665835411471322,0.031124462871954174,
0.056708229426433915,0.048037448142268305,
0.05675810473815461,0.0019168425694156173,
0.05680798004987531,-0.009334254912196534,
0.05685785536159601,0.03605897016931203,
0.05690773067331671,0.029534093463989327,
0.05695760598503741,0.04784578645218583,
0.0570074812967581,0.00864347795974546,
0.057057356608478806,0.012328772814267242,
0.0571072319201995,0.012450416356064616,
0.0571571072319202,0.004897075661967915,
0.0572069825436409,0.03745079376845814,
0.057256857855361595,0.03477688038543185,
0.05730673316708229,0.03839894875392828,
0.057356608478802994,0.030745580707500584,
0.05740648379052369,0.008083888602664931,
0.05745635910224439,0.020453066324456107,
0.05750623441396509,0.029730892568670113,
0.05755610972568578,0.012929237405263388,
0.057605985037406486,0.032354292558639704,
0.05765586034912718,0.029846087154000833,
0.05770573566084788,0.021276335007177554,
0.05775561097256858,0.03115541629608066,
0.057805486284289276,0.02537092758522999,
0.05785536159600998,0.005207557857962597,
0.057905236907730674,0.024624730946490037,
0.05795511221945137,0.027534568585030835,
0.05800498753117207,0.0075265254832342435,
0.05805486284289277,-0.01218502410804333,
0.058104738154613464,0.0021420438421410268,
0.05815461346633417,0.02919962026259987,
0.05820448877805486,0.026160594880707214,
0.05825436408977556,0.042942889880346294,
0.05830423940149626,0.009810015670054566,
0.058354114713216956,0.021085322429488556,
0.05840399002493766,0.013968761259797048,
0.058453865336658355,0.015684690922057203,
0.05850374064837905,-0.004335648749400706,
0.05855361596009975,0.009050466684509303,
0.05860349127182045,0.0012164775495590134,
0.058653366583541144,0.014638600774283929,
0.05870324189526185,0.00861235487760283,
0.05875311720698254,0.02920140653403551,
0.05880299251870324,0.0016074881793746443,
0.05885286783042394,0.025075633102376316,
0.05890274314214464,0.027309081943406255,
0.05895261845386534,-0.003599420073355515,
0.059002493765586035,-0.009962161506300778,
0.05905236907730673,0.027951617347282347,
0.059102244389027433,0.028854689712533528,
0.05915211970074813,0.002046897872008003,
0.059201995012468825,0.02239440197763909,
0.05925187032418953,0.03542421071058938,
0.05930174563591022,-0.009003946477138388,
0.059351620947630926,0.03885487229352591,
0.05940149625935162,0.001889212449648096,
0.05945137157107232,0.028429546902530294,
0.05950124688279302,0.02161789987565612,
0.059551122194513716,4.6385622418298675e-05,
0.05960099750623441,0.005832143743847986,
0.059650872817955114,0.019616924275688882,
0.05970074812967581,0.004947606915068059,
0.059750623441396505,0.007217794512372821,
0.05980049875311721,0.016800619474507634,
0.059850374064837904,-0.011671207388916076,
0.059900249376558606,0.03541459153503499,
0.0599501246882793,0.01580563555302152,
0.06,0.017459939091347756,
0.0600498753117207,0.0002246129827164229,
0.060099750623441396,0.008045179488523194,
0.06014962593516209,0.0034999681511578805,
0.060199501246882794,-0.0019473691013169626,
0.06024937655860349,-0.016725793747460947,
0.06029925187032419,0.011686552193426807,
0.06034912718204489,0.011308715162485841,
0.060399002493765584,0.02138285641173458,
0.06044887780548629,0.03344133827639775,
0.06049875311720698,0.05487185275631379,
0.06054862842892768,0.03857142866873609,
0.06059850374064838,-0.0035421076728528768,
0.06064837905236908,0.004016829063583887,
0.06069825436408977,-0.00046197303391894975,
0.060748129675810475,0.013994266989569657,
0.06079800498753117,0.0030089702501603305,
0.06084788029925187,0.03635827142826881,
0.06089775561097257,0.0022058848306508103,
0.060947630922693265,0.018647410392179885,
0.06099750623441397,0.010638245539599935,
0.06104738154613466,0.024387201186401548,
0.06109725685785536,-0.005275461760176524,
0.06114713216957606,0.004510137170072786,
0.06119700748129676,0.01648515341606715,
0.06124688279301746,0.021841914718497977,
0.061296758104738155,-0.012784651472755353,
0.06134663341645885,0.005410417295857064,
0.061396508728179554,0.014965200072229633,
0.06144638403990025,-0.0003503560755482003,
0.061496259351620945,0.025737439639675078,
0.06154613466334165,0.003715778703624631,
0.061596009975062344,0.00935967846257332,
0.06164588528678304,0.001035593710558641,
0.06169576059850374,-0.0016832741588036308,
0.06174563591022444,0.0009426334192606293,
0.06179551122194514,-0.015868028805837184,
0.061845386533665836,0.001102562372365148,
0.06189526184538653,-0.0005855411599620238,
0.061945137157107234,0.03391716559605654,
0.06199501246882793,-0.01163412769676897,
0.062044887780548626,0.00346702119572289,
0.06209476309226933,0.00578967407648113,
0.062144638403990024,-0.02189723328666944,
0.06219451371571072,-0.0015603781628126235,
0.06224438902743142,0.019142368593960808,
0.06229426433915212,0.02542841729747929,
0.06234413965087282,0.015280568585434074,
0.062394014962593516,0.003673667801091327,
0.06244389027431421,-0.029604315633068284,
0.062493765586034915,-0.0027481897346078006,
0.06254364089775562,4.019470843836647e-05,
0.06259351620947631,0.0010274096753110865,
0.06264339152119701,-0.009977468757397771,
0.0626932668329177,-0.01168799267866389,
0.0627431421446384,-0.01085670753690457,
0.0627930174563591,-0.05287489250797883,
0.0628428927680798,-0.0011840132763918012,
0.0628927680798005,-0.03879186833029865,
0.0629426433915212,-0.011943794943986561,
0.06299251870324189,-0.01037683529253011,
0.06304239401496259,-0.013715486684849044,
0.0630922693266833,-0.01101011725655248,
0.063142144638404,-0.008140425834242916,
0.06319201995012469,-0.014316754644251646,
0.06324189526184539,-0.007708725915814811,
0.06329177057356608,-0.0008391847639747443,
0.06334164588528678,-0.021415447682527875,
0.06339152119700749,-0.029504599668204692,
0.06344139650872818,-0.044181943776879555,
0.06349127182044888,-0.029409815429286865,
0.06354114713216957,0.003340791189684512,
0.06359102244389027,-0.019794952226037957,
0.06364089775561098,-0.033888961200006396,
0.06369077306733167,-0.015060261327064988,
0.06374064837905237,0.000310615040367267,
0.06379052369077307,0.010340395136642588,
0.06384039900249376,-0.014552217009782164,
0.06389027431421446,-0.012107666813758983,
0.06394014962593517,-0.012860019041591375,
0.06399002493765586,-0.003045364799170603,
0.06403990024937656,-0.017390725274307448,
0.06408977556109725,-0.023275863364537644,
0.06413965087281795,0.013172793210773446,
0.06418952618453866,-0.016439902965151482,
0.06423940149625935,-0.014124996255138803,
0.06428927680798005,-0.017300634530486185,
0.06433915211970075,0.0036952683289741863,
0.06438902743142144,-0.0021467177199783315,
0.06443890274314215,-0.006211310385959868,
0.06448877805486285,-0.02952356800100039,
0.06453865336658354,-0.013657219681224457,
0.06458852867830424,-0.0044458051632442225,
0.06463840399002493,-0.0027662070604026357,
0.06468827930174563,-0.025291996782608767,
0.06473815461346634,-0.004573031636698028,
0.06478802992518704,-0.03461713765259336,
0.06483790523690773,-0.017278408243906928,
0.06488778054862843,-0.0007223434866071143,
0.06493765586034912,-0.01584814368088618,
0.06498753117206983,-0.017800666218019866,
0.06503740648379053,0.004866826149493289,
0.06508728179551122,-0.0045010685585408165,
0.06513715710723192,0.004331561855276649,
0.06518703241895261,-0.011409714911155923,
0.06523690773067331,-0.03154546793467228,
0.06528678304239402,0.015354094549428907,
0.06533665835411472,-0.02599500908470469,
0.06538653366583541,-0.04513777290067293,
0.06543640897755611,-0.026935051560602073,
0.0654862842892768,-0.029379707441110854,
0.06553615960099751,0.010618303958032241,
0.06558603491271821,-0.026087186332920592,
0.0656359102244389,-0.0004301763229600363,
0.0656857855361596,-0.006731243173405477,
0.0657356608478803,-0.008616069994224356,
0.06578553615960099,-0.02343145401535869,
0.0658354114713217,-0.031021622898575598,
0.0658852867830424,-0.018207591519435216,
0.06593516209476309,-0.002045407356062132,
0.06598503740648379,-0.011170290386397847,
0.06603491271820448,-0.011684790601631282,
0.06608478802992519,-0.023252178095401206,
0.06613466334164589,-0.003835997365235844,
0.06618453865336658,0.007291998517151375,
0.06623441396508728,0.0051726719373010165,
0.06628428927680798,0.018538039697833037,
0.06633416458852869,0.0025666935591580307,
0.06638403990024938,-0.04184885645933347,
0.06643391521197008,-0.026091735960929,
0.06648379052369077,-0.015543826454636235,
0.06653366583541147,-0.0492631090769523,
0.06658354114713216,-0.018156496022732258,
0.06663341645885287,-0.01661462682135262,
0.06668329177057357,-0.021471238325197504,
0.06673316708229426,-0.041786056839721586,
0.06678304239401496,-0.02530292562164968,
0.06683291770573566,-0.01587487809888998,
0.06688279301745637,-0.04747024283649211,
0.06693266832917706,-0.026297015836856612,
0.06698254364089776,-0.011930786067115987,
0.06703241895261845,-0.04841072092812916,
0.06708229426433915,-0.00926087709586938,
0.06713216957605984,0.0006464971171066727,
0.06718204488778055,-0.01129418003649528,
0.06723192019950125,-0.0027747184100539064,
0.06728179551122195,-0.04710083957336198,
0.06733167082294264,-0.01689921693392555,
0.06738154613466334,-0.005201287307696232,
0.06743142144638405,-0.01384364855961534,
0.06748129675810474,-0.010905125308496145,
0.06753117206982544,-0.01948732402239712,
0.06758104738154613,-0.00913928429434535,
0.06763092269326683,-0.0011369789922317589,
0.06768079800498752,-0.03134229312899753,
0.06773067331670823,-0.020116737592485334,
0.06778054862842893,-0.020444743569754703,
0.06783042394014963,-0.008060084453051198,
0.06788029925187032,-0.02722406751219094,
0.06793017456359102,-0.02314366751136481,
0.06798004987531173,-0.013292493305018378,
0.06802992518703242,0.02737230778487503,
0.06807980049875312,0.011789319894603169,
0.06812967581047381,-0.001873033117832548,
0.06817955112219451,-0.009906205407620262,
0.0682294264339152,0.024287178183941615,
0.06827930174563591,-0.002366466092240088,
0.06832917705735661,-0.04667963165250254,
0.0683790523690773,-0.03521241928210524,
0.068428927680798,-0.01982536269075391,
0.0684788029925187,-0.03513298462144444,
0.06852867830423941,-0.011514933191131376,
0.0685785536159601,-0.029883865036325927,
0.0686284289276808,-0.020778438118225287,
0.0686783042394015,-0.002173240568168742,
0.06872817955112219,0.01005496958975597,
0.0687780548628429,-0.009831397248538376,
0.0688279301745636,-0.0039882443788242135,
0.06887780548628429,-0.006113188583918378,
0.06892768079800499,0.006489725316742158,
0.06897755610972568,-0.02491513850935436,
0.06902743142144638,-0.02448949613253123,
0.06907730673316709,-0.025675232087262384,
0.06912718204488778,0.0016179743992922446,
0.06917705735660848,-0.0036289096892365745,
0.06922693266832917,-0.0008436750998662744,
0.06927680798004987,0.004068722977197666,
0.06932668329177058,0.015294751523716649,
0.06937655860349128,-0.024890747663690132,
0.06942643391521197,-0.031313383320316954,
0.06947630922693267,-0.0051833486795613256,
0.06952618453865336,-0.015044395377611326,
0.06957605985037406,-0.0013158873009156292,
0.06962593516209477,0.011659206062201801,
0.06967581047381546,-0.0045861461469426535,
0.06972568578553616,0.026769933671703085,
0.06977556109725686,0.00756464180667532,
0.06982543640897755,0.009086592653943668,
0.06987531172069826,0.007761026009928063,
0.06992518703241896,-0.004688862556111129,
0.06997506234413965,-0.0042303676005484465,
0.07002493765586035,0.00128439752230088,
0.07007481296758104,0.014698135390775717,
0.07012468827930174,0.04064423470458876,
0.07017456359102245,-0.01695848701823561,
0.07022443890274314,0.03250309481360369,
0.07027431421446384,-0.0036066394183339213,
0.07032418952618454,0.023057388556812386,
0.07037406483790523,-0.027847578242819554,
0.07042394014962594,0.020777381329686317,
0.07047381546134664,0.01856525537662667,
0.07052369077306733,-0.011349902240327656,
0.07057356608478803,0.006950229564231822,
0.07062344139650872,0.014930797200127586,
0.07067331670822943,-0.022858994067977638,
0.07072319201995013,-0.01714698524359373,
0.07077306733167082,0.02588728448248761,
0.07082294264339152,-0.01694608663353971,
0.07087281795511222,-0.014574036458555588,
0.07092269326683291,-1.6259587132326503e-05,
0.07097256857855362,-0.0006115818820391205,
0.07102244389027432,0.004896801561417724,
0.07107231920199501,0.002200271904873898,
0.07112219451371571,0.005865672860207184,
0.0711720698254364,0.018621571662558786,
0.07122194513715711,0.02757978981049115,
0.07127182044887781,0.015333212537090123,
0.0713216957605985,0.015969816947653728,
0.0713715710723192,-0.006039032460315183,
0.0714214463840399,-0.005571036089761889,
0.07147132169576059,0.022294240419881036,
0.0715211970074813,0.03365082661124988,
0.071571072319202,-0.0016861429915223918,
0.0716209476309227,0.0003620326006235509,
0.07167082294264339,-0.0038772826103016453,
0.07172069825436408,0.034283132457101115,
0.0717705735660848,0.00426848038665594,
0.07182044887780549,0.01265539467455202,
0.07187032418952619,-0.008772766668431383,
0.07192019950124688,0.020976642354610216,
0.07197007481296758,0.025530293635401574,
0.07201995012468827,0.02492852966846907,
0.07206982543640898,0.02561829286549308,
0.07211970074812968,0.006615206448824466,
0.07216957605985037,0.02683709556254662,
0.07221945137157107,-0.001392526293273296,
0.07226932668329177,0.0194405477022364,
0.07231920199501247,0.0032682905691755696,
0.07236907730673317,0.032138148752921675,
0.07241895261845387,0.030212206600025927,
0.07246882793017456,0.010570376896812589,
0.07251870324189526,0.002182109688732845,
0.07256857855361595,0.012148516475400113,
0.07261845386533666,-0.025181832488814136,
0.07266832917705736,0.009489519271543834,
0.07271820448877805,0.031413901842836364,
0.07276807980049875,0.01962010679432984,
0.07281795511221945,0.021726951657618503,
0.07286783042394016,0.02759579317088974,
0.07291770573566085,0.026866551566460353,
0.07296758104738155,0.015520969683368326,
0.07301745635910224,0.05530196768159787,
0.07306733167082294,0.00782781984245711,
0.07311720698254365,0.013760397652581614,
0.07316708229426434,-0.004754218838565558,
0.07321695760598504,0.02532716494032891,
0.07326683291770573,0.02358235116609939,
0.07331670822942643,0.018353024898390025,
0.07336658354114713,0.007148513522621837,
0.07341645885286784,0.02494969962376614,
0.07346633416458853,0.017958296758697114,
0.07351620947630923,0.00240937018623193,
0.07356608478802992,0.017168697298064327,
0.07361596009975062,0.02246796987154612,
0.07366583541147133,0.02622172503286104,
0.07371571072319202,0.025860467760715152,
0.07376558603491272,-0.014737260949916918,
0.07381546134663342,0.019963837547934588,
0.07386533665835411,0.022892410677502643,
0.0739152119700748,0.008378305918438581,
0.07396508728179552,0.016221140381116925,
0.07401496259351621,0.03341828106106723,
0.07406483790523691,0.028005415862316564,
0.0741147132169576,0.02325475920853612,
0.0741645885286783,0.023224044799090415,
0.07421446384039901,0.04025213498636906,
0.0742643391521197,0.0488036818681844,
0.0743142144638404,-0.005070037895331003,
0.0743640897755611,-0.003388865517211976,
0.07441396508728179,0.029332496018912656,
0.07446384039900249,0.006804071825876848,
0.0745137157107232,0.026031092506672824,
0.07456359102244389,0.025272015707870882,
0.07461346633416459,0.03685437541115829,
0.07466334164588528,0.04706918730538513,
0.07471321695760598,0.01728045335666692,
0.07476309226932669,0.015811562160246463,
0.07481296758104738,0.034708974394459975,
0.07486284289276808,0.01084950527416589,
0.07491271820448878,0.031970570978165566,
0.07496259351620947,-0.0031460377361769154,
0.07501246882793017,0.03332735702215724,
0.07506234413965088,0.04175688908989353,
0.07511221945137157,0.02983466851918156,
0.07516209476309227,0.017203587264202982,
0.07521197007481296,0.02460817310117035,
0.07526184538653366,0.026134856135010903,
0.07531172069825437,0.05927309032056316,
0.07536159600997507,0.010858593422581454,
0.07541147132169576,0.021067653648327363,
0.07546134663341646,0.030679198826486308,
0.07551122194513715,0.020039688688921052,
0.07556109725685786,0.030537733723256508,
0.07561097256857856,0.006554137850523108,
0.07566084788029925,0.020063433219814266,
0.07571072319201995,0.043747712808978025,
0.07576059850374064,0.011969021875871615,
0.07581047381546134,0.021889697188191618,
0.07586034912718205,0.012749859344372708,
0.07591022443890275,0.0009844432040182448,
0.07596009975062344,0.031138701844006376,
0.07600997506234414,0.0018387593624330963,
0.07605985037406483,0.03538953064755094,
0.07610972568578554,-1.887107050655215e-05,
0.07615960099750624,-0.003079578040065655,
0.07620947630922693,0.0345365095802351,
0.07625935162094763,0.020641346550804743,
0.07630922693266833,0.005691800194086119,
0.07635910224438902,0.01964429233646471,
0.07640897755610973,0.025739528395729454,
0.07645885286783043,0.015548512716888375,
0.07650872817955112,0.028634198518825284,
0.07655860349127182,0.007452761533453811,
0.07660847880299251,0.02590216721756502,
0.07665835411471322,0.01156878528732582,
0.07670822942643392,0.003931586663917717,
0.07675810473815461,0.03836453795334612,
0.07680798004987531,0.03705428561090683,
0.076857855361596,0.025181277784798218,
0.0769077306733167,0.02310002083469591,
0.07695760598503741,0.02879119309843117,
0.0770074812967581,0.00544318141821009,
0.0770573566084788,0.041406089467054506,
0.0771072319201995,0.01371335478250087,
0.0771571072319202,0.021373014812416758,
0.0772069825436409,0.01136023361340309,
0.0772568578553616,0.005191017039160403,
0.0773067331670823,0.04145273467210048,
0.07735660847880299,0.012618151084905242,
0.07740648379052369,0.022357276944445222,
0.0774563591022444,0.025600225927959748,
0.07750623441396509,0.04525206053008851,
0.07755610972568579,0.01817276600177497,
0.07760598503740648,0.012475926977983194,
0.07765586034912718,-0.00904300187930105,
0.07770573566084787,0.01437404644944559,
0.07775561097256858,0.016132596995537818,
0.07780548628428928,0.009470080911944932,
0.07785536159600998,0.03196728695112729,
0.07790523690773067,0.021582258902958357,
0.07795511221945137,0.036697958927026174,
0.07800498753117208,0.022223259459401255,
0.07805486284289277,0.03538379580757743,
0.07810473815461347,-0.003731984621277204,
0.07815461346633416,0.026615715269861947,
0.07820448877805486,0.03151407324623287,
0.07825436408977555,0.024637790381255992,
0.07830423940149626,0.025499472162373256,
0.07835411471321696,0.014933421141913605,
0.07840399002493766,0.005067126091071829,
0.07845386533665835,0.012142307591455109,
0.07850374064837905,0.028616584868870254,
0.07855361596009976,0.032480409159296376,
0.07860349127182045,0.004509690861498354,
0.07865336658354115,0.020895943170940727,
0.07870324189526184,-0.0018212007185586729,
0.07875311720698254,0.015371408354149177,
0.07880299251870324,-0.007034348268934031,
0.07885286783042394,0.0036280046758852807,
0.07890274314214464,0.03040316660640771,
0.07895261845386534,0.0392456814040971,
0.07900249376558603,0.036756796261092115,
0.07905236907730673,-0.010898788275754122,
0.07910224438902744,0.009649181578041403,
0.07915211970074813,0.015297838544428335,
0.07920199501246883,0.020949808750116122,
0.07925187032418952,0.021415590610055435,
0.07930174563591022,-0.0033234070695318148,
0.07935162094763092,-0.006060030480169842,
0.07940149625935163,-0.01587100150441116,
0.07945137157107232,0.01277138122045512,
0.07950124688279302,0.015382629990528935,
0.07955112219451371,-0.0017525348132259345,
0.07960099750623441,0.011542102221465836,
0.07965087281795512,0.03082607358496237,
0.07970074812967581,-0.008393311099364744,
0.07975062344139651,0.005931415090501204,
0.0798004987531172,0.015896877803874866,
0.0798503740648379,0.0020562784997010513,
0.07990024937655861,-0.005157155085063472,
0.0799501246882793,0.019196449734075333,
0.08,0.010620456647105807,
0.0800498753117207,0.021614062994599816,
0.0800997506234414,0.005238176642063449,
0.08014962593516209,-0.01110738527033683,
0.0801995012468828,-0.011027384877628861,
0.0802493765586035,0.008822748081159558,
0.08029925187032419,0.016358246278851893,
0.08034912718204489,0.01977822167122789,
0.08039900249376558,0.00641377310173311,
0.08044887780548629,-0.010839922452796535,
0.08049875311720699,0.007068071834948738,
0.08054862842892768,0.02168161614308892,
0.08059850374064838,0.026947372747638886,
0.08064837905236907,0.01224027162059256,
0.08069825436408977,0.029695358135223143,
0.08074812967581048,0.005590898234915273,
0.08079800498753117,-0.038749700772725076,
0.08084788029925187,-0.002004207146657144,
0.08089775561097257,0.02676361551868993,
0.08094763092269326,-0.006934248038303812,
0.08099750623441397,-0.018375746501662966,
0.08104738154613467,0.00618317900305908,
0.08109725685785536,0.010306597931604176,
0.08114713216957606,0.0021693753745681294,
0.08119700748129675,-0.0023495548446912685,
0.08124688279301745,-0.0027613260239981313,
0.08129675810473816,0.006033412708777552,
0.08134663341645886,-0.002732750901588898,
0.08139650872817955,0.024032575139252783,
0.08144638403990025,-0.007027192164975289,
0.08149625935162094,-0.013713439194653843,
0.08154613466334165,-0.014902822590835394,
0.08159600997506235,-0.018251040359559052,
0.08164588528678304,-0.025077525227376066,
0.08169576059850374,-0.014073979925974034,
0.08174563591022443,0.013195022467491477,
0.08179551122194513,0.012256179907509334,
0.08184538653366584,-0.010318033857196415,
0.08189526184538654,0.004372127550605104,
0.08194513715710723,0.013898578490386577,
0.08199501246882793,0.0202343693330282,
0.08204488778054862,-0.027433694674063924,
0.08209476309226933,-0.00024240604264369903,
0.08214463840399003,-0.0120149748441665,
0.08219451371571072,0.018859358286781914,
0.08224438902743142,-0.009614609503463982,
0.08229426433915212,-0.01832016312939466,
0.08234413965087282,0.0052035334452176524,
0.08239401496259352,0.01296685137260506,
0.08244389027431422,0.004878020247281405,
0.08249376558603491,0.0013811943598023109,
0.08254364089775561,-0.00775509364935999,
0.0825935162094763,-0.005882296750883696,
0.08264339152119701,-0.019953138913814956,
0.08269326683291771,-0.009059901601107785,
0.0827431421446384,-0.008460595981479673,
0.0827930174563591,-0.027537452933136593,
0.0828428927680798,0.006746960965515022,
0.0828927680798005,0.027594431723221714,
0.0829426433915212,-0.010005232059997747,
0.0829925187032419,-0.0006753867742391702,
0.08304239401496259,-0.027969985742206306,
0.08309226932668329,-0.03592524849217534,
0.08314214463840398,-0.009302069130809507,
0.0831920199501247,-0.001803999705444712,
0.08324189526184539,-0.001608621514855182,
0.08329177057356608,0.0032449838259205853,
0.08334164588528678,-0.0045941107415085995,
0.08339152119700748,-0.02397862628154148,
0.08344139650872819,0.003938634073355755,
0.08349127182044888,-0.026648554692627346,
0.08354114713216958,0.003168401849045991,
0.08359102244389027,-0.02344535941719892,
0.08364089775561097,0.001177180136599773,
0.08369077306733166,-0.01935206461243098,
0.08374064837905237,0.007046748959709238,
0.08379052369077307,0.007188441616372398,
0.08384039900249377,-0.004973444330717834,
0.08389027431421446,-0.023234305153343505,
0.08394014962593516,-0.011205522100556304,
0.08399002493765587,-0.0060890447646787665,
0.08403990024937656,0.007155373619712312,
0.08408977556109726,-0.03899386693006497,
0.08413965087281795,-0.004055659529459448,
0.08418952618453865,-0.021598896106148353,
0.08423940149625936,-0.00758757943360058,
0.08428927680798005,-0.030524990664318026,
0.08433915211970075,-0.004693100483679891,
0.08438902743142145,-0.008733992558615344,
0.08443890274314214,0.010357809796185113,
0.08448877805486284,-0.03310557733707831,
0.08453865336658355,-0.017693769789158965,
0.08458852867830424,-0.017509306959130926,
0.08463840399002494,-0.034082473394430324,
0.08468827930174563,-0.036186236446582205,
0.08473815461346633,-0.03749052013498993,
0.08478802992518704,-0.0014947009755495108,
0.08483790523690773,-0.018567494266236717,
0.08488778054862843,-0.046126640146021594,
0.08493765586034913,-0.011369405262070666,
0.08498753117206982,-0.009397242472347573,
0.08503740648379052,0.012559419717170853,
0.08508728179551123,0.023663798888997258,
0.08513715710723192,0.020283396979741877,
0.08518703241895262,-0.05999590366156947,
0.08523690773067331,-0.019142407613932006,
0.08528678304239401,-0.004113747209935476,
0.08533665835411472,-0.0041220391049186615,
0.08538653366583542,-0.029006159056988272,
0.08543640897755611,-0.02127509832157533,
0.0854862842892768,-0.0010310103717175324,
0.0855361596009975,-0.012015991740947602,
0.0855860349127182,-0.0186025730493334,
0.08563591022443891,-0.023479622001610037,
0.0856857855361596,-0.03682223782697589,
0.0857356608478803,0.015077580628770322,
0.085785536159601,-0.008667894421064734,
0.08583541147132169,-0.004704639299034041,
0.0858852867830424,0.009316974286145807,
0.0859351620947631,-0.018418680108571176,
0.08598503740648379,-0.022259969167200508,
0.08603491271820449,-0.010620003372257318,
0.08608478802992518,-0.004007242074709479,
0.08613466334164588,-0.007737562775816019,
0.08618453865336659,-0.009108866042656791,
0.08623441396508728,-0.022767623799020704,
0.08628428927680798,-0.04000019644741225,
0.08633416458852868,-0.014109940904371952,
0.08638403990024937,-0.006248220235236861,
0.08643391521197008,-0.00943185406398081,
0.08648379052369078,-0.017554628881120107,
0.08653366583541147,0.00425365453661793,
0.08658354114713217,-0.003816033660287106,
0.08663341645885286,-0.031748901032544796,
0.08668329177057357,0.0159246779343048,
0.08673316708229427,0.0005893455955978174,
0.08678304239401496,-0.021262299116588456,
0.08683291770573566,0.010920586976360261,
0.08688279301745636,-0.01791029626523139,
0.08693266832917705,-0.004500407314651601,
0.08698254364089776,-0.036190860504492356,
0.08703241895261846,-0.01734928528658245,
0.08708229426433915,0.01690283402330091,
0.08713216957605985,-0.02187789560275303,
0.08718204488778054,0.009964892095624636,
0.08723192019950125,-0.0057801321871901595,
0.08728179551122195,-0.007778907640388643,
0.08733167082294264,-0.0045244607883227475,
0.08738154613466334,0.002613539917309454,
0.08743142144638404,-0.016927850285907972,
0.08748129675810473,-0.024041757335622208,
0.08753117206982544,-0.006756150905549766,
0.08758104738154614,0.009428644431215709,
0.08763092269326683,-0.025943913322262636,
0.08768079800498753,-0.01709894473584108,
0.08773067331670822,-0.014514578592802599,
0.08778054862842893,-0.03258037299799239,
0.08783042394014963,-0.01042618984838106,
0.08788029925187033,-0.010794916792589994,
0.08793017456359102,-0.02104392807043908,
0.08798004987531172,0.015744194939806937,
0.08802992518703241,-0.00594686704812682,
0.08807980049875312,0.003431390062472819,
0.08812967581047382,0.02198461037106518,
0.08817955112219451,-0.027774416409867005,
0.08822942643391521,0.018176751500525147,
0.0882793017456359,-0.015734091709625964,
0.08832917705735661,-0.009366965679135326,
0.08837905236907731,0.02082244245236334,
0.088428927680798,0.015210619814724359,
0.0884788029925187,-0.01758109692475052,
0.0885286783042394,-0.019939284763496046,
0.0885785536159601,-0.014848643924355118,
0.0886284289276808,-0.02453628192256354,
0.0886783042394015,0.016117914139736667,
0.0887281795511222,-0.024870904125921293,
0.08877805486284289,0.010228562387671189,
0.08882793017456359,0.009498819152139588,
0.0888778054862843,-0.003975959794134839,
0.08892768079800499,0.021334607672803832,
0.08897755610972569,-0.03153462144103613,
0.08902743142144638,-0.006065716445276068,
0.08907730673316708,0.005034537788617131,
0.08912718204488779,-0.011115240076217912,
0.08917705735660848,-0.010085283374540515,
0.08922693266832918,-0.007878424859154383,
0.08927680798004987,0.002422764793643767,
0.08932668329177057,0.002148411107132496,
0.08937655860349127,0.028377637803441685,
0.08942643391521198,-0.016810415098944913,
0.08947630922693267,-0.03666484990766005,
0.08952618453865337,-0.018557496289068755,
0.08957605985037406,0.0022828852723231325,
0.08962593516209476,0.009044809558644852,
0.08967581047381547,0.006053274921434278,
0.08972568578553616,0.014745311805444444,
0.08977556109725686,0.0336309655357534,
0.08982543640897755,-0.01690695345395956,
0.08987531172069825,-0.002273016137965457,
0.08992518703241895,-0.0013697000489207396,
0.08997506234413966,0.004628880135962855,
0.09002493765586035,0.004359791940395674,
0.09007481296758105,0.01340907959694075,
0.09012468827930174,0.023709823593832374,
0.09017456359102244,0.0201770694731692,
0.09022443890274315,0.0007258748141310278,
0.09027431421446384,0.011096031003693975,
0.09032418952618454,-0.021267262079688112,
0.09037406483790524,0.01563325170389201,
0.09042394014962593,0.004252155824726254,
0.09047381546134663,0.0028195307684293677,
0.09052369077306734,0.018705843077363497,
0.09057356608478803,0.025143766633227323,
0.09062344139650873,0.009596184860386051,
0.09067331670822942,-0.010187336477792162,
0.09072319201995012,0.01237274512784556,
0.09077306733167083,0.029047041505497254,
0.09082294264339152,-0.00784296426393109,
0.09087281795511222,0.025895346027298635,
0.09092269326683292,0.017488929569316313,
0.09097256857855361,0.013288466390546337,
0.09102244389027432,0.050819340189584866,
0.09107231920199502,-0.005846506568065495,
0.09112219451371571,-8.16545785798442e-05,
0.09117206982543641,0.0028848472373152675,
0.0912219451371571,0.008730577553417381,
0.0912718204488778,0.03653494832530617,
0.09132169576059851,0.004872141810359048,
0.0913715710723192,0.013045498295005183,
0.0914214463840399,0.03208782428357815,
0.0914713216957606,0.004641563272218131,
0.09152119700748129,0.017419989862370953,
0.091571072319202,0.016357825664596905,
0.0916209476309227,-0.011746218300546066,
0.09167082294264339,0.020290207549146295,
0.09172069825436409,0.03194163029158456,
0.09177057356608478,0.024907180968286577,
0.09182044887780548,0.04821936772373047,
0.09187032418952619,0.05234026619028372,
0.09192019950124689,0.011738445657790572,
0.09197007481296758,0.02163139732185035,
0.09201995012468828,-0.0072172756197092305,
0.09206982543640897,0.008179884785697936,
0.09211970074812968,-0.010723776624305806,
0.09216957605985038,0.02209014055368804,
0.09221945137157107,0.018100918259389847,
0.09226932668329177,0.0012367876935320751,
0.09231920199501246,0.014797891647583435,
0.09236907730673316,0.025195000303774296,
0.09241895261845387,-0.005098296726618736,
0.09246882793017457,0.012714824705129524,
0.09251870324189526,0.032043436822560695,
0.09256857855361596,0.043264746843626044,
0.09261845386533665,-0.007432141202345595,
0.09266832917705736,0.006714527646999608,
0.09271820448877806,-0.010921042842932976,
0.09276807980049875,-0.0017143905370952395,
0.09281795511221945,0.027523794883477063,
0.09286783042394015,0.03132246645181755,
0.09291770573566084,0.010351842623126523,
0.09296758104738155,0.019381481894536878,
0.09301745635910225,0.035141214685024624,
0.09306733167082294,0.03649980252167696,
0.09311720698254364,-0.01520902589500548,
0.09316708229426433,0.02114605487463108,
0.09321695760598504,0.016505749307300865,
0.09326683291770574,0.04520945544643959,
0.09331670822942643,0.029674327484071616,
0.09336658354114713,0.031047839990366095,
0.09341645885286783,0.012758264955593786,
0.09346633416458854,0.036963271245617144,
0.09351620947630923,0.02145660081479539,
0.09356608478802993,0.014915179883070784,
0.09361596009975062,-0.002661849929007618,
0.09366583541147132,0.01419754335925181,
0.09371571072319201,-0.004881100610177075,
0.09376558603491272,0.0071107263555954085,
0.09381546134663342,0.021842967015526894,
0.09386533665835411,0.010739894384395347,
0.09391521197007481,0.038925308383569536,
0.0939650872817955,0.04014696934329338,
0.09401496259351622,0.053787482814334375,
0.09406483790523691,0.05514624301730228,
0.09411471321695761,0.05446750619096257,
0.0941645885286783,0.013407220184135923,
0.094214463840399,0.03149672748537106,
0.0942643391521197,0.05365610401241326,
0.0943142144638404,0.04368635208587145,
0.0943640897755611,0.018437290216769462,
0.0944139650872818,0.04209614805648858,
0.09446384039900249,0.045368040984168564,
0.09451371571072319,0.0358734898287413,
0.0945635910224439,0.017753683952039453,
0.09461346633416459,0.054592263435079676,
0.09466334164588529,0.01839082538838699,
0.09471321695760598,0.024076280098200117,
0.09476309226932668,0.04407984168215674,
0.09481296758104737,0.03983836525185602,
0.09486284289276808,0.03182065405353404,
0.09491271820448878,-0.0018143237508400183,
0.09496259351620948,0.03743557245978865,
0.09501246882793017,0.0460297030128861,
0.09506234413965087,-0.004009625443868868,
0.09511221945137158,0.007974784784096835,
0.09516209476309227,0.026022502688569676,
0.09521197007481297,0.015947979050162688,
0.09526184538653366,0.01538687413712725,
0.09531172069825436,0.04164848306519099,
0.09536159600997507,0.03957793225307217,
0.09541147132169576,0.005146982513225502,
0.09546134663341646,0.05511577256247425,
0.09551122194513716,0.012367889955405258,
0.09556109725685785,0.03203635626916698,
0.09561097256857855,0.006779622965550645,
0.09566084788029926,0.012004434577447105,
0.09571072319201995,0.045592389461036595,
0.09576059850374065,0.04922449797674525,
0.09581047381546134,0.037755904594018425,
0.09586034912718204,0.03110377968028159,
0.09591022443890275,0.02823955859098419,
0.09596009975062345,0.010212000977964514,
0.09600997506234414,0.03233074940803428,
0.09605985037406484,0.04854979832426255,
0.09610972568578553,0.058443075260835364,
0.09615960099750623,0.05065125468156709,
0.09620947630922694,0.037204232327675724,
0.09625935162094763,0.04719834733660594,
0.09630922693266833,0.04038583501242493,
0.09635910224438902,0.026676150949637933,
0.09640897755610972,0.011189262514139492,
0.09645885286783043,0.036261165348251426,
0.09650872817955113,0.02309676359367841,
0.09655860349127182,0.008946068848815734,
0.09660847880299252,0.05692267414649543,
0.09665835411471321,0.028233799190056905,
0.09670822942643391,0.010518524266710643,
0.09675810473815462,0.024459950274619932,
0.09680798004987531,0.01323175138748146,
0.09685785536159601,0.04396258857430074,
0.0969077306733167,-0.006786834405754467,
0.0969576059850374,0.023297756972356472,
0.09700748129675811,0.01147522413029606,
0.0970573566084788,0.023848437802630757,
0.0971072319201995,0.03218572665271126,
0.0971571072319202,0.013663431144036101,
0.0972069825436409,0.01000033538064518,
0.09725685785536159,0.012226134343789729,
0.0973067331670823,0.04664445901718531,
0.097356608478803,-0.003246330200720824,
0.09740648379052369,0.009054772585880062,
0.09745635910224439,-0.0032729417573986105,
0.09750623441396508,0.031164566895342492,
0.09755610972568579,0.004428386202619407,
0.09760598503740649,0.0032695226616949076,
0.09765586034912718,0.0013474841461936574,
0.09770573566084788,0.004013508948626409,
0.09775561097256857,0.03015053560111481,
0.09780548628428928,0.03789318911245145,
0.09785536159600998,0.01032722849957749,
0.09790523690773068,0.010568045210612872,
0.09795511221945137,0.033323632944184584,
0.09800498753117207,0.018810137755365965,
0.09805486284289276,0.018511085255293366,
0.09810473815461347,0.06674946021053335,
0.09815461346633417,0.030692997143369167,
0.09820448877805486,0.03778429630540649,
0.09825436408977556,0.03129002841089208,
0.09830423940149625,0.026317232113977317,
0.09835411471321696,0.03790046513738929,
0.09840399002493766,0.016634089524135275,
0.09845386533665836,0.021755619244736662,
0.09850374064837905,0.014499059520365926,
0.09855361596009975,0.007093889300805404,
0.09860349127182044,0.009837292145579483,
0.09865336658354115,0.03675238232926144,
0.09870324189526185,0.013057925192672844,
0.09875311720698254,0.033443770940575414,
0.09880299251870324,0.011243208268092674,
0.09885286783042393,0.0004262949192814017,
0.09890274314214464,0.015232017134076176,
0.09895261845386534,-0.002824468569540148,
0.09900249376558604,0.0029625321955095377,
0.09905236907730673,0.038214226353179295,
0.09910224438902743,0.038523411873154764,
0.09915211970074812,0.0036611012148453134,
0.09920199501246883,0.036627064143484114,
0.09925187032418953,0.03467827389999109,
0.09930174563591022,0.012275461431088805,
0.09935162094763092,0.0083771489683095,
0.09940149625935162,0.016041034091601174,
0.09945137157107233,0.018474302938691636,
0.09950124688279302,-0.006986131184472361,
0.09955112219451372,0.03780657393695955,
0.09960099750623441,0.010820827134299597,
0.09965087281795511,0.0012207882966805902,
0.0997007481296758,-0.008658913783853018,
0.09975062344139651,-0.003180263848034468,
0.09980049875311721,0.018620413002698684,
0.0998503740648379,0.015249184575185041,
0.0999002493765586,0.03274946505513164,
0.0999501246882793,0.029722556269059282,
0.1,0.01381124851704351,
0.1000498753117207,0.039468185353807576,
0.1000997506234414,-0.0076288865906923835,
0.10014962593516209,0.012747416531054307,
0.10019950124688279,-0.015125794561140753,
0.1002493765586035,0.020884197005992755,
0.1002992518703242,0.011653451457975084,
0.10034912718204489,0.016992408098782143,
0.10039900249376559,0.015200171181183346,
0.10044887780548628,0.032355037107611596,
0.10049875311720698,0.01366535239471077,
0.10054862842892769,0.020674776211892523,
0.10059850374064838,0.004895551962452871,
0.10064837905236908,0.014023585956577447,
0.10069825436408977,0.029013472374147063,
0.10074812967581047,0.02676620045096865,
0.10079800498753118,-0.009685801895829769,
0.10084788029925187,0.014391557414282333,
0.10089775561097257,0.003954864827508095,
0.10094763092269327,-0.0005683195705379115,
0.10099750623441396,0.01129764947558044,
0.10104738154613466,-0.006855941836398691,
0.10109725685785537,0.01981949857066268,
0.10114713216957606,0.0011617012840275647,
0.10119700748129676,-0.007734000309544883,
0.10124688279301745,-0.012247978341150904,
0.10129675810473815,0.030093157171204296,
0.10134663341645886,-0.024717043153616693,
0.10139650872817955,0.006564487852934136,
0.10144638403990025,0.02182076446321233,
0.10149625935162095,-0.006192697614594331,
0.10154613466334164,0.014185698169723225,
0.10159600997506234,-0.0071450313755604105,
0.10164588528678305,0.01827833719130047,
0.10169576059850374,-0.018419838999905576,
0.10174563591022444,-0.019820012162414784,
0.10179551122194513,-0.0029111115761799315,
0.10184538653366583,-0.014947844917721394,
0.10189526184538654,-0.004821101047264571,
0.10194513715710724,0.012787399497764102,
0.10199501246882793,-0.012555093881123455,
0.10204488778054863,0.0033930928473703895,
0.10209476309226932,-0.004815069849866698,
0.10214463840399003,0.0008046360171680422,
0.10219451371571073,0.0022344829861060712,
0.10224438902743142,0.01933857739714999,
0.10229426433915212,0.00746349025114711,
0.10234413965087281,-0.013272725886687906,
0.10239401496259351,-0.011759442895061947,
0.10244389027431422,-0.018543611725251253,
0.10249376558603492,0.010202337888682769,
0.10254364089775561,0.005221721907548448,
0.10259351620947631,-0.026745670707186055,
0.102643391521197,-0.009448876006192528,
0.10269326683291771,0.0008932050208930687,
0.10274314214463841,-0.0022240786515381633,
0.1027930174563591,0.0016326860756672515,
0.1028428927680798,-0.01122231628281313,
0.1028927680798005,0.0399045709840811,
0.10294264339152119,0.006120753911195982,
0.1029925187032419,-0.011483682122534039,
0.1030423940149626,0.012437866129931512,
0.10309226932668329,-0.002721129440299266,
0.10314214463840399,-0.008083162812572752,
0.10319201995012468,0.000413520060851014,
0.10324189526184539,0.0010121790499069876,
0.10329177057356609,-0.01852750974989512,
0.10334164588528678,-0.025191970441646602,
0.10339152119700748,0.01989339974427716,
0.10344139650872818,-0.007422191297290604,
0.10349127182044887,0.020608531292753245,
0.10354114713216958,0.00217297196416112,
0.10359102244389028,-0.002238949008612783,
0.10364089775561097,0.009095720073666793,
0.10369077306733167,0.012549490287020723,
0.10374064837905236,0.001341962378356057,
0.10379052369077307,-0.019366715607166636,
0.10384039900249377,-0.011422428620201404,
0.10389027431421446,-0.020247299794349062,
0.10394014962593516,-0.016644254700211126,
0.10399002493765586,-0.01228089984386029,
0.10403990024937655,-0.017008920624157382,
0.10408977556109726,1.2891629059746251e-05,
0.10413965087281796,0.0027163263343735755,
0.10418952618453865,0.016937948040023677,
0.10423940149625935,-0.03230713629625591,
0.10428927680798004,-0.014709451673685273,
0.10433915211970075,-0.012234193057183118,
0.10438902743142145,-0.014536084470699089,
0.10443890274314215,-0.005960064927640648,
0.10448877805486284,-0.019611882739139525,
0.10453865336658354,0.0019967333055155734,
0.10458852867830425,-0.01199974078935788,
0.10463840399002494,-0.02787553705271667,
0.10468827930174564,-0.006078936666328657,
0.10473815461346633,-0.026354676652379186,
0.10478802992518703,-0.010366540215457683,
0.10483790523690772,-0.030927824337968375,
0.10488778054862843,-0.03898696778798322,
0.10493765586034913,0.016221231467641144,
0.10498753117206983,-0.03076234463173943,
0.10503740648379052,-0.04769626374024079,
0.10508728179551122,-0.021555733031973827,
0.10513715710723193,0.012968012088301678,
0.10518703241895262,-0.0017420408628873556,
0.10523690773067332,-0.04482576638515727,
0.10528678304239401,-0.016339504417565934,
0.10533665835411471,-0.0035086773776743206,
0.1053865336658354,-0.005534641302841253,
0.10543640897755611,-0.01322978441705151,
0.10548628428927681,0.009537644250594628,
0.1055361596009975,-0.014757063836699951,
0.1055860349127182,0.027475566231602612,
0.1056359102244389,-0.0075778003760123575,
0.10568578553615961,-0.0099074527623673,
0.1057356608478803,-0.014466750781708448,
0.105785536159601,-0.017524342534818438,
0.1058354114713217,-0.009820322247186687,
0.10588528678304239,-0.014079199153973716,
0.10593516209476309,-0.024174532947722135,
0.1059850374064838,-0.033694053314636235,
0.10603491271820449,-0.038105233142175184,
0.10608478802992519,-0.019278523573372112,
0.10613466334164588,-0.004852428524441866,
0.10618453865336658,-0.0211362864480815,
0.10623441396508729,-0.007311559880848634,
0.10628428927680798,-0.008387489839539292,
0.10633416458852868,-0.041368239006116296,
0.10638403990024937,-0.009344333891430303,
0.10643391521197007,0.006116160439139547,
0.10648379052369077,-0.040353656719667536,
0.10653366583541148,-0.01554086727649463,
0.10658354114713217,-0.018296100258496355,
0.10663341645885287,0.01861546286194598,
0.10668329177057356,-0.0033510388224102586,
0.10673316708229426,0.0018063381657325347,
0.10678304239401497,0.0065255977297435375,
0.10683291770573566,-0.021072735449041306,
0.10688279301745636,-0.012523773235066508,
0.10693266832917706,-0.014333564893910734,
0.10698254364089775,-0.00913479225913718,
0.10703241895261846,-0.020689269061927192,
0.10708229426433916,-0.02514267377821881,
0.10713216957605985,0.0007236739954907968,
0.10718204488778055,0.007341692846911834,
0.10723192019950124,-0.014719067864274656,
0.10728179551122194,-0.013363216790015217,
0.10733167082294265,-0.021166090669222502,
0.10738154613466334,-0.00746377238484121,
0.10743142144638404,0.0024657555793120064,
0.10748129675810474,0.00560969706028641,
0.10753117206982543,-0.003056318963920404,
0.10758104738154614,-0.035134366295467456,
0.10763092269326684,0.010775069869953097,
0.10768079800498753,-0.012120763616544284,
0.10773067331670823,-0.02542702216877942,
0.10778054862842892,-0.0033055947061065337,
0.10783042394014962,-0.015591976528627847,
0.10788029925187033,-0.01927265413389352,
0.10793017456359102,0.0008575866770411493,
0.10798004987531172,-0.026681979654235154,
0.10802992518703242,-0.044246379396054164,
0.10807980049875311,-0.007009294956515961,
0.10812967581047382,-0.008615324112024302,
0.10817955112219452,-0.0009138045691357722,
0.10822942643391521,-0.004016413221257813,
0.10827930174563591,-0.03146219585267149,
0.1083291770573566,-0.017899682955817644,
0.1083790523690773,-0.017286364666533743,
0.10842892768079801,-0.017658195034409185,
0.1084788029925187,0.00959154099166191,
0.1085286783042394,0.03417531009759428,
0.1085785536159601,0.002275484288829028,
0.10862842892768079,0.011643025727833135,
0.1086783042394015,-0.008881085507063007,
0.1087281795511222,0.0031893382718200455,
0.1087780548628429,-0.008671942522488166,
0.10882793017456359,9.879773308668323e-05,
0.10887780548628428,-0.004761158985555632,
0.108927680798005,0.009140507202981072,
0.10897755610972569,-0.004734290622551537,
0.10902743142144639,0.00913955504076823,
0.10907730673316708,-0.003187645479046103,
0.10912718204488778,0.009394998902864386,
0.10917705735660847,-0.015196657278608965,
0.10922693266832918,-0.025193081982465088,
0.10927680798004988,-0.011007314640580383,
0.10932668329177057,-0.0026756299837926286,
0.10937655860349127,0.014362817142679717,
0.10942643391521197,-0.004149826276921557,
0.10947630922693267,-0.0019657937824661582,
0.10952618453865337,-0.00334888375657075,
0.10957605985037407,0.0029332573512946356,
0.10962593516209476,0.02279765891080688,
0.10967581047381546,0.031772010175828425,
0.10972568578553615,0.003135741969943053,
0.10977556109725686,0.0028123721507300552,
0.10982543640897756,-0.009853638085030349,
0.10987531172069825,0.0462357816122163,
0.10992518703241895,-0.005290085938375653,
0.10997506234413965,-0.0024208555720479736,
0.11002493765586036,0.0294778171264941,
0.11007481296758105,-0.01261942388444548,
0.11012468827930175,0.009883024675968527,
0.11017456359102244,0.005846539851620542,
0.11022443890274314,0.02664654492874234,
0.11027431421446383,-0.01903179256549465,
0.11032418952618454,-0.002492436704139774,
0.11037406483790524,-0.004141101183582882,
0.11042394014962593,0.011367466055987232,
0.11047381546134663,0.003985610654643096,
0.11052369077306733,0.006031339441305933,
0.11057356608478804,0.010426810136846648,
0.11062344139650873,-0.003049692032044117,
0.11067331670822943,0.02167039992431262,
0.11072319201995012,0.029554081591288334,
0.11077306733167082,-0.027362053290690122,
0.11082294264339151,0.01739205872960044,
0.11087281795511222,0.03895542663474008,
0.11092269326683292,0.011271064122409222,
0.11097256857855362,0.02178603171024365,
0.11102244389027431,0.006081139132100251,
0.111072319201995,0.014740861643375864,
0.11112219451371572,0.017187843397089748,
0.11117206982543641,0.004289364800036034,
0.11122194513715711,0.01889104612200493,
0.1112718204488778,0.016517632239761465,
0.1113216957605985,-0.004216243814783648,
0.11137157107231921,0.018634398318414413,
0.1114214463840399,0.040391374571077776,
0.1114713216957606,0.015005572101825055,
0.1115211970074813,0.022211274116354308,
0.11157107231920199,0.01878914083317919,
0.11162094763092269,0.007489719852239871,
0.1116708229426434,0.01903394887513234,
0.11172069825436409,0.01524357681648105,
0.11177057356608479,0.03906309614374285,
0.11182044887780548,0.024749860311059232,
0.11187032418952618,0.023258798375470048,
0.11192019950124689,0.0014219055650818175,
0.11197007481296758,0.02501110065866027,
0.11201995012468828,0.008158565790606202,
0.11206982543640898,0.010319472534962067,
0.11211970074812967,0.019254960284336514,
0.11216957605985037,0.033889105497846836,
0.11221945137157108,0.010568818094383897,
0.11226932668329177,0.029254675344250976,
0.11231920199501247,0.02015551968479983,
0.11236907730673316,0.0034574770989203585,
0.11241895261845386,0.004688416751435279,
0.11246882793017457,0.03410800543224824,
0.11251870324189527,0.020947636500311378,
0.11256857855361596,0.039460947211412856,
0.11261845386533666,0.04646566281003972,
0.11266832917705735,0.02895792203726897,
0.11271820448877805,0.04511344204087704,
0.11276807980049876,0.007730966692190849,
0.11281795511221945,0.030795113936568107,
0.11286783042394015,-0.00931167397213117,
0.11291770573566084,0.04949274361107256,
0.11296758104738154,0.023825788684301807,
0.11301745635910225,0.04959111713204019,
0.11306733167082295,0.03430956946776214,
0.11311720698254364,0.05719568087815665,
0.11316708229426434,0.03053384546791683,
0.11321695760598503,0.02249902004754188,
0.11326683291770574,0.029567312182032533,
0.11331670822942644,0.040101703326652464,
0.11336658354114713,0.03360037774467168,
0.11341645885286783,0.03846329107989595,
0.11346633416458853,0.019257487922700278,
0.11351620947630922,0.04126555186903129,
0.11356608478802993,0.008337086389021378,
0.11361596009975063,0.033015454844423954,
0.11366583541147132,0.023403889929248,
0.11371571072319202,0.023081959919411782,
0.11376558603491271,0.006673479925194688,
0.11381546134663342,0.03697044361562551,
0.11386533665835412,0.011109894683581386,
0.11391521197007481,0.010371914475476262,
0.11396508728179551,0.02996571651891204,
0.1140149625935162,0.0419160358944994,
0.1140648379052369,0.037670566194128424,
0.11411471321695761,-0.016559625075287653,
0.1141645885286783,0.00917540937642998,
0.114214463840399,0.052858624394889,
0.1142643391521197,0.04386404828727779,
0.1143142144638404,0.0485688262004259,
0.1143640897755611,0.023914603066399715,
0.1144139650872818,0.00966818874865065,
0.1144638403990025,0.05610625736109016,
0.11451371571072319,0.0035040308086424048,
0.11456359102244389,0.028172608293076138,
0.11461346633416458,-0.002582721798269287,
0.11466334164588529,0.03902290162690699,
0.11471321695760599,0.029231117212451387,
0.11476309226932668,0.029705455982706155,
0.11481296758104738,0.014619524996881567,
0.11486284289276807,0.04258623835448471,
0.11491271820448878,0.011606970708094973,
0.11496259351620948,0.02941199567467895,
0.11501246882793018,0.04355418725370998,
0.11506234413965087,-0.0014554717972666067,
0.11511221945137157,0.014648758083544964,
0.11516209476309226,0.032712883399028364,
0.11521197007481297,0.020794006363421536,
0.11526184538653367,0.0390093211893997,
0.11531172069825436,0.05481554408476362,
0.11536159600997506,0.03394293076864519,
0.11541147132169575,0.01642354937770451,
0.11546134663341646,0.018385944053114802,
0.11551122194513716,0.01375662331260379,
0.11556109725685786,0.035182191791271605,
0.11561097256857855,0.04304497775535936,
0.11566084788029925,0.044576302483657404,
0.11571072319201996,0.02369390370645423,
0.11576059850374065,0.03632394990049893,
0.11581047381546135,0.0036210273191069793,
0.11586034912718204,0.031276836056128327,
0.11591022443890274,0.024505166780760666,
0.11596009975062344,-0.002547463676237434,
0.11600997506234415,0.0438997650039637,
0.11605985037406484,0.04578222607137315,
0.11610972568578554,0.02931795194808741,
0.11615960099750623,0.012078542186179035,
0.11620947630922693,0.049367682643599184,
0.11625935162094764,0.011665496551808013,
0.11630922693266833,0.016648386033164597,
0.11635910224438903,0.041839038190544325,
0.11640897755610972,0.01994911402814762,
0.11645885286783042,0.011917938727020665,
0.11650872817955112,0.04628858794422809,
0.11655860349127183,0.030849348360785647,
0.11660847880299252,0.01618632779474803,
0.11665835411471322,0.03602280084955633,
0.11670822942643391,0.004041832502185691,
0.11675810473815461,0.026032681543628845,
0.11680798004987532,0.027753551021448254,
0.11685785536159601,0.00020241189885962865,
0.11690773067331671,0.0147042012735061,
0.1169576059850374,0.052103522437094374,
0.1170074812967581,0.03756144131481919,
0.1170573566084788,0.029123013742538867,
0.1171072319201995,0.026350397911942262,
0.1171571072319202,-0.0019781090940535657,
0.1172069825436409,0.011599355584384735,
0.1172568578553616,0.039743859379123295,
0.11730673316708229,0.05329714807089994,
0.117356608478803,0.04942251873648677,
0.1174064837905237,0.03031949672503412,
0.11745635910224439,0.05068565903742146,
0.11750623441396509,0.006989451317361967,
0.11755610972568578,0.05244802032636951,
0.11760598503740648,0.026655543190285267,
0.11765586034912719,0.041827115697175954,
0.11770573566084788,0.021471699695353428,
0.11775561097256858,0.021081273905599416,
0.11780548628428927,0.007998991741962235,
0.11785536159600997,0.01417749456490736,
0.11790523690773068,0.0045705608763963075,
0.11795511221945137,0.019200984403087037,
0.11800498753117207,0.027126702617844015,
0.11805486284289277,0.02884336019715501,
0.11810473815461346,0.031185823936591646,
0.11815461346633417,0.012984201721042872,
0.11820448877805487,0.013886389753787904,
0.11825436408977556,0.02038552253764632,
0.11830423940149626,0.022570970243311266,
0.11835411471321695,0.020749976878565207,
0.11840399002493765,0.027174393868965793,
0.11845386533665836,0.040180642188968094,
0.11850374064837906,0.04432042193070505,
0.11855361596009975,0.011791258781648172,
0.11860349127182045,0.03892501683307055,
0.11865336658354114,0.02213068120402082,
0.11870324189526185,0.0027521730060216347,
0.11875311720698255,0.021918738002306308,
0.11880299251870324,0.0007161424728506366,
0.11885286783042394,0.015460557319432305,
0.11890274314214463,0.02751833271284454,
0.11895261845386533,0.014588692078446682,
0.11900249376558604,0.005297978348574149,
0.11905236907730674,0.01997450268430639,
0.11910224438902743,0.01340505924406439,
0.11915211970074813,0.056479267169373605,
0.11920199501246882,-0.006458409480561433,
0.11925187032418953,-0.006092481462043626,
0.11930174563591023,0.03580271395895128,
0.11935162094763092,0.0060894975844804754,
0.11940149625935162,0.03765472353953902,
0.11945137157107232,0.013407265095754985,
0.11950124688279301,0.007235362278979253,
0.11955112219451372,0.006662923794252897,
0.11960099750623442,0.019025491699280687,
0.11965087281795511,0.024172055673543226,
0.11970074812967581,0.02483202694455581,
0.1197506234413965,-0.0002198407198691979,
0.11980049875311721,0.0033169246129864383,
0.11985037406483791,0.010637226115818351,
0.1199002493765586,0.011605064921546553,
0.1199501246882793,0.011320179623710704,
0.12,0.02135253685369312,
0.1200498753117207,0.012004522618647796,
0.1200997506234414,0.027972079385737085,
0.1201496259351621,-0.004357735010797633,
0.12019950124688279,0.005933236679685373,
0.12024937655860349,0.008273490564782653,
0.12029925187032418,0.008180746861524322,
0.1203491271820449,0.01573409114828104,
0.12039900249376559,-0.005183721596172405,
0.12044887780548628,-0.027268211376474095,
0.12049875311720698,0.020652372175940008,
0.12054862842892768,-0.005784070190350611,
0.12059850374064839,0.005823830229911029,
0.12064837905236908,0.018266464701316022,
0.12069825436408978,-0.0004357816751305744,
0.12074812967581047,0.029550782200629348,
0.12079800498753117,-0.004914580132152793,
0.12084788029925186,0.007044834198880269,
0.12089775561097257,0.015562798900920521,
0.12094763092269327,-0.018247919824229512,
0.12099750623441397,0.0012262819100389045,
0.12104738154613466,-0.013110953791504133,
0.12109725685785536,0.028683088295582256,
0.12114713216957607,0.015068590343403687,
0.12119700748129676,-0.009082171628701098,
0.12124688279301746,-0.008487092908836912,
0.12129675810473815,0.03914391920247867,
0.12134663341645885,0.008356152678606758,
0.12139650872817954,0.014503676899287672,
0.12144638403990025,0.01294678297178835,
0.12149625935162095,0.009440439306170991,
0.12154613466334165,-0.011683366336141683,
0.12159600997506234,-0.0009982224235189604,
0.12164588528678304,-0.01736527453900858,
0.12169576059850375,-0.006673961088610203,
0.12174563591022444,0.004595183259240947,
0.12179551122194514,0.015264189162962226,
0.12184538653366583,0.005186854520568305,
0.12189526184538653,-0.018965293574756473,
0.12194513715710723,-0.0016892379415559475,
0.12199501246882793,-0.0006138214911172044,
0.12204488778054863,-0.01734782176216941,
0.12209476309226933,0.023797345132600293,
0.12214463840399002,0.015729236256786766,
0.12219451371571072,-0.03587672878931322,
0.12224438902743143,-0.0189107233078551,
0.12229426433915212,-0.0003856016513734751,
0.12234413965087282,-0.006933352840326379,
0.12239401496259351,-0.0066080467068867525,
0.12244389027431421,-0.001886475293392962,
0.12249376558603492,-0.006110625522221482,
0.12254364089775562,0.013388097904851551,
0.12259351620947631,0.0006338215822596256,
0.122643391521197,0.00497338449498942,
0.1226932668329177,-0.04629030677043644,
0.1227431421446384,-0.008403071450171322,
0.12279301745635911,0.00044194888733175685,
0.1228428927680798,0.009117866443102573,
0.1228927680798005,0.003675905543132487,
0.1229426433915212,-0.023825054635061765,
0.12299251870324189,0.008461951571203453,
0.1230423940149626,-0.0008346842055694291,
0.1230922693266833,-0.013468365869168384,
0.12314214463840399,0.014903444666019738,
0.12319201995012469,-0.013700194776323976,
0.12324189526184538,0.013892113806173455,
0.12329177057356608,-0.007110060679078986,
0.12334164588528679,0.009312549429647083,
0.12339152119700748,0.003670708168549329,
0.12344139650872818,-0.029666045179050728,
0.12349127182044888,-0.01477998365503707,
0.12354114713216957,0.006736006110351276,
0.12359102244389028,0.021067164904182575,
0.12364089775561098,0.004418200479209789,
0.12369077306733167,0.000870737519064746,
0.12374064837905237,-0.02825858927773228,
0.12379052369077306,-0.02699620663591087,
0.12384039900249376,-0.027380025735803004,
0.12389027431421447,0.01371670348972833,
0.12394014962593516,-0.03066336292240731,
0.12399002493765586,-0.02587178814313798,
0.12403990024937656,-0.025256637584921148,
0.12408977556109725,-0.004143408435963892,
0.12413965087281796,-0.016612351664802093,
0.12418952618453866,-0.00632646017957558,
0.12423940149625935,-0.001614465478723591,
0.12428927680798005,-0.012484803858578685,
0.12433915211970074,-0.021488568705595817,
0.12438902743142144,0.011774744445320012,
0.12443890274314215,-0.011117425549054198,
0.12448877805486284,-0.012924407198577539,
0.12453865336658354,-0.03629522916238405,
0.12458852867830424,-0.00023568551518112282,
0.12463840399002493,0.014176849729091728,
0.12468827930174564,-0.03218756707302335,
0.12473815461346634,-0.015812659111497956,
0.12478802992518703,0.009254832551154803,
0.12483790523690773,-0.02050354859340235,
0.12488778054862842,-0.012032184854366836,
0.12493765586034913,-0.02312955470391971,
0.12498753117206983,-0.021048014212082453,
0.12503740648379053,-0.0059964150140933365,
0.12508728179551123,-0.020755798271793056,
0.12513715710723192,-0.004729244042232185,
0.12518703241895263,0.0027266964732586448,
0.1252369077306733,0.012712573211167859,
0.12528678304239402,0.000775095548760367,
0.1253366583541147,-0.009432320263295019,
0.1253865336658354,0.007852230553174256,
0.12543640897755612,-0.02645889058292692,
0.1254862842892768,-0.02679413680109472,
0.1255361596009975,-0.024322861951974167,
0.1255860349127182,0.009592160754462287,
0.1256359102244389,0.0029931281319620397,
0.1256857855361596,-0.01512149338750008,
0.1257356608478803,-0.033557106428284286,
0.125785536159601,-0.014598558840937954,
0.12583541147132168,-0.029521595531332292,
0.1258852867830424,0.01047947807701299,
0.1259351620947631,-0.027274119293560474,
0.12598503740648379,-0.017963220888963276,
0.1260349127182045,0.009420978418253886,
0.12608478802992518,-0.006219129555373264,
0.1261346633416459,0.011337392056086937,
0.1261845386533666,-0.012712932225561658,
0.12623441396508728,-0.035713607852042854,
0.126284289276808,-0.002385262813663829,
0.12633416458852867,-0.014033905195323498,
0.12638403990024938,-0.005479061643040272,
0.1264339152119701,-0.004977514913259281,
0.12648379052369077,-0.009028758146291763,
0.12653366583541148,0.011402195581394943,
0.12658354114713216,-0.013786845258266841,
0.12663341645885287,0.00775539321673417,
0.12668329177057355,0.011923048589739858,
0.12673316708229426,0.02642398746755744,
0.12678304239401497,-0.016820043327320934,
0.12683291770573565,0.013779013312812798,
0.12688279301745636,-0.010798762112011442,
0.12693266832917705,-0.021181579011462302,
0.12698254364089775,-0.023523855970505315,
0.12703241895261846,-0.0016288108755427898,
0.12708229426433915,-0.009731270063376561,
0.12713216957605986,0.003961567626864353,
0.12718204488778054,0.0007023096222640423,
0.12723192019950125,-0.006690337917515232,
0.12728179551122196,-0.011981694747290456,
0.12733167082294264,-0.024410386460984566,
0.12738154613466335,-0.003477270621385087,
0.12743142144638403,-0.013595870605531291,
0.12748129675810474,-0.014362983806327983,
0.12753117206982545,-0.0147261431758924,
0.12758104738154613,0.001748571321522275,
0.12763092269326684,-0.019547598439424135,
0.12768079800498752,0.007050371335525225,
0.12773067331670823,-0.017079788550298944,
0.1277805486284289,-0.016409887675279077,
0.12783042394014962,0.008854633456392022,
0.12788029925187033,0.006572015191406478,
0.12793017456359101,-0.00012266509291870148,
0.12798004987531172,-0.015783980710965463,
0.1280299251870324,0.014810418334695787,
0.12807980049875312,-0.016465355747737158,
0.12812967581047383,0.007498755965784695,
0.1281795511221945,-0.0045411047771064025,
0.12822942643391522,0.009352028062898221,
0.1282793017456359,-0.0019504882560438712,
0.1283291770573566,0.01253672147831196,
0.12837905236907732,-0.00862755541981745,
0.128428927680798,0.010856331871338852,
0.1284788029925187,0.022066882200786803,
0.1285286783042394,-0.020604960710061338,
0.1285785536159601,-0.015374648575985628,
0.1286284289276808,-0.013552250871983059,
0.1286783042394015,0.005214041355285624,
0.1287281795511222,-0.0011802105844135856,
0.12877805486284288,0.007583633688308913,
0.1288279301745636,-0.00045295358783611553,
0.1288778054862843,-0.01243704060363766,
0.12892768079800498,-0.01441193394848542,
0.1289775561097257,0.024245014399825876,
0.12902743142144638,-0.01529413109758495,
0.12907730673316709,-0.0017471107597470826,
0.12912718204488777,0.002487996975753028,
0.12917705735660848,0.0070019577072410275,
0.1292269326683292,-0.023577205237384942,
0.12927680798004987,-0.005848695432729594,
0.12932668329177058,0.005234467970246121,
0.12937655860349126,-1.24285642797645e-05,
0.12942643391521197,0.007942527411736365,
0.12947630922693268,-0.01151138520146875,
0.12952618453865336,0.00673579492389305,
0.12957605985037407,0.008007977912023147,
0.12962593516209475,0.02859774230893497,
0.12967581047381546,-0.01911138559654875,
0.12972568578553617,0.0020059190508492078,
0.12977556109725685,0.021396452077292738,
0.12982543640897756,0.02661391381590167,
0.12987531172069824,-0.015779860409172414,
0.12992518703241895,0.005878951790335782,
0.12997506234413966,0.008409719607447417,
0.13002493765586035,0.016106884703130576,
0.13007481296758105,0.012987411578361394,
0.13012468827930174,0.005471225711073659,
0.13017456359102245,0.007344907100290253,
0.13022443890274316,0.012638822661672554,
0.13027431421446384,0.0012292985129650448,
0.13032418952618455,0.030226663526259016,
0.13037406483790523,0.0015988377195769454,
0.13042394014962594,0.024441249896085017,
0.13047381546134662,0.03396744292130245,
0.13052369077306733,0.03244306854079473,
0.13057356608478804,0.026987618040139962,
0.13062344139650872,-0.010049690834056957,
0.13067331670822943,0.03127274149154244,
0.1307231920199501,0.01291883509366058,
0.13077306733167082,0.007309693667927144,
0.13082294264339153,0.021965263990385727,
0.13087281795511221,0.023308350561334748,
0.13092269326683292,0.0004270843563762665,
0.1309725685785536,-0.01168747348969964,
0.13102244389027431,-0.0002799766157743893,
0.13107231920199502,0.02404139102843819,
0.1311221945137157,-0.009373122889189463,
0.13117206982543642,0.01576654553596795,
0.1312219451371571,0.032295582282799135,
0.1312718204488778,0.004295775952454393,
0.13132169576059852,-0.003721024925313853,
0.1313715710723192,0.00915620832452873,
0.1314214463840399,0.009940817984982607,
0.1314713216957606,0.027603116582394123,
0.1315211970074813,0.038943692402489155,
0.13157107231920198,0.01495359026555065,
0.1316209476309227,0.034028318621700124,
0.1316708229426434,0.01672982033013007,
0.13172069825436408,0.009935964917434072,
0.1317705735660848,0.006953614124099641,
0.13182044887780547,0.04084899750877445,
0.13187032418952618,0.04204916020222238,
0.1319201995012469,0.03453811837802073,
0.13197007481296757,0.05751841547092214,
0.13201995012468828,0.020394614236627372,
0.13206982543640897,0.02678944720673388,
0.13211970074812968,0.02580966066224482,
0.13216957605985039,0.02131225244202653,
0.13221945137157107,0.013304091205986648,
0.13226932668329178,0.0308174324676188,
0.13231920199501246,0.017369663286695605,
0.13236907730673317,0.027605166668412638,
0.13241895261845388,0.03316962232772347,
0.13246882793017456,0.0340714840179637,
0.13251870324189527,0.0016633764558007802,
0.13256857855361595,0.014359643474887326,
0.13261845386533666,0.026594062685157276,
0.13266832917705737,0.02366838821159076,
0.13271820448877805,0.01587048605064612,
0.13276807980049876,0.018469279184259398,
0.13281795511221944,0.013137387687133559,
0.13286783042394015,0.0437848431355846,
0.13291770573566083,0.035901112182512386,
0.13296758104738154,0.021112881463963746,
0.13301745635910225,0.015348486396319885,
0.13306733167082294,0.023877949587577316,
0.13311720698254365,0.03532077856604284,
0.13316708229426433,0.023662679527965233,
0.13321695760598504,0.018892305298480905,
0.13326683291770575,0.023909833724932075,
0.13331670822942643,0.008277886703775234,
0.13336658354114714,0.033642939546081746,
0.13341645885286782,0.03271441254732534,
0.13346633416458853,0.003398141730760123,
0.13351620947630924,0.03749509889607994,
0.13356608478802992,0.005876729736671114,
0.13361596009975063,0.029360752461636788,
0.1336658354114713,0.043513461403337304,
0.13371571072319202,0.017119785883046284,
0.13376558603491273,0.025531159090838536,
0.1338154613466334,0.0015180109713473777,
0.13386533665835412,0.016665773546285477,
0.1339152119700748,0.0019712855913983814,
0.13396508728179551,0.02809542975478651,
0.1340149625935162,0.01191170516861656,
0.1340648379052369,0.03417621297435279,
0.13411471321695762,0.008839631206805493,
0.1341645885286783,0.02686568994775316,
0.134214463840399,0.006567739812256845,
0.1342643391521197,0.03891171317989488,
0.1343142144638404,0.027189592180144485,
0.1343640897755611,0.02513647683867532,
0.1344139650872818,0.042067300621893136,
0.1344638403990025,0.021309953214795258,
0.13451371571072318,0.03139403170561427,
0.1345635910224439,0.04581236142018434,
0.1346134663341646,0.029575605159949565,
0.13466334164588528,0.021947275102953124,
0.134713216957606,0.02716712761040291,
0.13476309226932667,0.04274605272772997,
0.13481296758104738,0.06128344393657184,
0.1348628428927681,0.019892764840223356,
0.13491271820448877,0.013900824785817716,
0.13496259351620948,0.021020068980535978,
0.13501246882793017,0.03616526377939751,
0.13506234413965088,0.032463620632764735,
0.13511221945137158,0.025970849266116564,
0.13516209476309227,0.03343234230890148,
0.13521197007481298,0.05560652615669279,
0.13526184538653366,0.039137708223118954,
0.13531172069825437,0.0498515225744582,
0.13536159600997505,0.03160128927453246,
0.13541147132169576,0.009828712808310488,
0.13546134663341647,0.03346378884029165,
0.13551122194513715,0.0182298700239591,
0.13556109725685786,0.03362083615719826,
0.13561097256857854,0.03506012676694743,
0.13566084788029925,0.008518617612887018,
0.13571072319201996,0.06140270231460261,
0.13576059850374064,0.037405577395542185,
0.13581047381546135,0.02663369150719198,
0.13586034912718203,0.046724208971282065,
0.13591022443890274,0.021993869266568097,
0.13596009975062345,0.03403420099797618,
0.13600997506234414,0.02928328339774264,
0.13605985037406484,0.01233190636622319,
0.13610972568578553,0.04610761982193874,
0.13615960099750624,0.02109081891518868,
0.13620947630922695,0.027370056438714704,
0.13625935162094763,0.052444051718371014,
0.13630922693266834,0.05198569043663924,
0.13635910224438902,0.017565204780303142,
0.13640897755610973,0.017895285407395843,
0.1364588528678304,0.024621889675425526,
0.13650872817955112,0.01816959145711198,
0.13655860349127183,0.04083312048900154,
0.1366084788029925,0.0331859476082984,
0.13665835411471322,0.02140408305818582,
0.1367082294264339,0.07122754010903709,
0.1367581047381546,0.0481799449748634,
0.13680798004987532,-0.007841773618567756,
0.136857855361596,0.041310001908781736,
0.1369077306733167,0.0002815951047077832,
0.1369576059850374,0.019434023603066626,
0.1370074812967581,0.03370615943978722,
0.13705735660847881,0.013891289232052696,
0.1371072319201995,0.031729077847994745,
0.1371571072319202,0.03101427468627002,
0.1372069825436409,0.034400055847688876,
0.1372568578553616,0.026971603448902013,
0.1373067331670823,0.0316747159091271,
0.137356608478803,0.031238254338015126,
0.1374064837905237,0.03561144193350478,
0.13745635910224438,0.014644619535825066,
0.1375062344139651,0.04768095962324874,
0.1375561097256858,0.036351702373130526,
0.13760598503740648,0.010750744767952751,
0.1376558603491272,0.020795436518278622,
0.13770573566084787,0.006183466458816556,
0.13775561097256858,0.01786633270738067,
0.13780548628428926,0.033864500775116685,
0.13785536159600997,0.025725529431029473,
0.13790523690773068,0.013709288463250225,
0.13795511221945136,0.03498278469615418,
0.13800498753117207,-0.0037481866275112415,
0.13805486284289276,0.028311820931608372,
0.13810473815461347,0.030857591493620867,
0.13815461346633418,0.019837881609226615,
0.13820448877805486,0.015719937067851412,
0.13825436408977557,0.011714447713107142,
0.13830423940149625,0.022987741580864026,
0.13835411471321696,0.005965691184190061,
0.13840399002493767,0.032426779669023124,
0.13845386533665835,0.04429870538724093,
0.13850374064837906,-0.009522358885545604,
0.13855361596009974,0.0033934068804498674,
0.13860349127182045,0.017524164399084097,
0.13865336658354116,0.05208576905453939,
0.13870324189526184,0.0186366103056377,
0.13875311720698255,0.043949362584534954,
0.13880299251870323,0.036210633616971896,
0.13885286783042394,0.010672491288294134,
0.13890274314214462,0.021215192906672977,
0.13895261845386533,-0.0003278451379458494,
0.13900249376558604,-0.0006262486962885401,
0.13905236907730673,0.018228534833190712,
0.13910224438902744,0.021859115578504226,
0.13915211970074812,0.004509541091452117,
0.13920199501246883,-0.008636569491215964,
0.13925187032418954,0.019154819493894065,
0.13930174563591022,0.0027556727612705664,
0.13935162094763093,0.025127781154434665,
0.1394014962593516,0.02053874395733922,
0.13945137157107232,0.014824829105861042,
0.13950124688279303,0.05143362274479589,
0.1395511221945137,0.009328822153741246,
0.13960099750623442,0.02186939407824864,
0.1396508728179551,-0.00013575421144574815,
0.1397007481296758,0.00552294779760258,
0.13975062344139652,0.011972005323217523,
0.1398004987531172,0.0011103758613219827,
0.1398503740648379,0.02630614077758052,
0.1399002493765586,0.011175255248726855,
0.1399501246882793,0.007209553554690922,
0.14,0.02515542554985663,
0.1400498753117207,0.005357190854248541,
0.1400997506234414,-0.011698602211030902,
0.1401496259351621,0.005643511338021709,
0.1401995012468828,0.007746894646776344,
0.14024937655860348,-0.0031077870980490765,
0.1402992518703242,0.005112326351509816,
0.1403491271820449,0.005739050890380161,
0.14039900249376558,0.013487306093853154,
0.1404488778054863,0.025693982315758167,
0.14049875311720697,-0.0073566350436206785,
0.14054862842892768,0.01972189078449607,
0.1405985037406484,0.014304087678385962,
0.14064837905236907,-0.014463866536552288,
0.14069825436408978,0.01587551948322989,
0.14074812967581046,0.029918149904803397,
0.14079800498753117,-0.013170794791176344,
0.14084788029925188,0.023660575128329857,
0.14089775561097256,-0.006183838065862994,
0.14094763092269327,0.005107627105570112,
0.14099750623441396,-0.002935506127294261,
0.14104738154613466,0.006517551130752785,
0.14109725685785537,0.00263472908467261,
0.14114713216957606,0.014686175118519957,
0.14119700748129677,0.029925583823205225,
0.14124688279301745,0.03824781980087122,
0.14129675810473816,0.013635517364592986,
0.14134663341645887,-0.01693546613111518,
