time,amplitude,label
0.0,0.03792037027536323,
4.987531172069826e-05,-0.00439312976467434,
9.975062344139652e-05,0.007552241456267475,
0.00014962593516209475,0.030562003442963406,
0.00019950124688279303,0.024903757429346314,
0.00024937655860349125,0.033434943417419885,
0.0002992518703241895,0.019670821942523772,
0.00034912718204488776,0.0032210780231452206,
0.00039900249376558606,0.05716465574139437,
0.0004488778054862843,0.025345963689746537,
0.0004987531172069825,0.04034687429437547,
0.0005486284289276808,0.01751259798348554,
0.000598503740648379,0.023968903339610888,
0.0006483790523690773,0.033527829811054455,
0.0006982543640897755,0.016464456197224392,
0.0007481296758104738,0.0011860170553270911,
0.0007980049875311721,0.025150825250123358,
0.0008478802992518703,0.015902708177421013,
0.0008977556109725686,0.007432278654357069,
0.0009476309226932668,0.01304135448507577,
0.000997506234413965,0.04079978686067648,
0.0010473815461346633,0.044280424363642275,
0.0010972568578553616,0.01981484245734969,
0.00114713216957606,0.018627402853298475,
0.001197007481296758,0.01407752256067461,
0.0012468827930174563,0.02081905695320989,
0.0012967581047381546,0.02282825519070379,
0.001346633416458853,0.0013643569137997726,
0.001396508728179551,0.008674905554175483,
0.0014463840399002493,0.016484344508135563,
0.0014962593516209476,0.015738110548259722,
0.001546134663341646,0.02990653373018888,
0.0015960099750623442,0.022286599327741782,
0.0016458852867830423,0.05709890878175161,
0.0016957605985037406,0.019360208264279817,
0.001745635910224439,0.027472729933064363,
0.0017955112219451373,-0.004216184605905532,
0.0018453865336658353,0.03144449619020567,
0.0018952618453865336,0.02617735406522534,
0.001945137157107232,-0.003907939241013011,
0.00199501246882793,-0.011459751038807595,
0.0020448877805486283,0.006568171156980407,
0.0020947630922693266,0.0025602344152313473,
0.002144638403990025,0.022608566971214033,
0.0021945137157107233,0.01058712388386725,
0.0022443890274314216,0.031235963039827404,
0.00229426433915212,-0.0019282070232299817,
0.0023441396508728177,-0.004745571258876667,
0.002394014962593516,0.0020488408914663813,
0.0024438902743142144,0.001390473353720105,
0.0024937655860349127,0.011829960664939151,
0.002543640897755611,0.007336891607361362,
0.0025935162094763093,0.025650578460001294,
0.0026433915211970076,0.005497881029691998,
0.002693266832917706,0.01477014252295042,
0.002743142144638404,0.020597412617147405,
0.002793017456359102,0.027706037628276805,
0.0028428927680798004,0.030664190152638646,
0.0028927680798004987,-0.0060907712918511145,
0.002942643391521197,0.008408024125502407,
0.0029925187032418953,0.01735902344834898,
0.0030423940149625936,0.030436837771240555,
0.003092269326683292,0.013211363405974738,
0.00314214463840399,-0.004946055125139494,
0.0031920199501246885,0.0025575047761739163,
0.0032418952618453864,0.02281694313222693,
0.0032917705735660847,0.004765897693666927,
0.003341645885286783,0.019957480365986945,
0.0033915211970074813,0.014147060225135118,
0.0034413965087281796,-0.0005622604681004856,
0.003491271820448878,-0.012072428223397153,
0.003541147132169576,0.019554266674429943,
0.0035910224438902745,0.03836960645329507,
0.0036408977556109724,0.004461441228664006,
0.0036907730673316707,0.011357362575762704,
0.003740648379052369,0.0008217963029799281,
0.0037905236907730673,-0.012104973425491924,
0.0038403990024937656,0.003333479452399184,
0.003890274314214464,0.009976644496558978,
0.003940149625935162,-0.016646242963932155,
0.00399002493765586,0.003898022403146926,
0.004039900249376558,0.01281088792987202,
0.004089775561097257,-0.02533744886297578,
0.004139650872817955,-0.008284335979318777,
0.004189526184538653,0.011073483105058018,
0.004239401496259352,-0.0053655289405750645,
0.00428927680798005,0.009785229652545527,
0.004339152119700748,-0.006899563757718575,
0.0043890274314214465,-0.008864025145311257,
0.004438902743142145,0.006256063701850232,
0.004488778054862843,-0.0037711025238578075,
0.004538653366583541,-0.0001029646955164683,
0.00458852867830424,0.0220453843662112,
0.004638403990024938,-0.00564319164980217,
0.0046882793017456355,-0.020475458954539408,
0.004738154613466334,-0.016100891388445893,
0.004788029925187032,-0.0017327105887674614,
0.00483790523690773,-0.002597812094364136,
0.004887780548628429,-0.018890387481040417,
0.004937655860349127,-0.009485695686435218,
0.004987531172069825,0.01971454442125893,
0.005037406483790524,-0.007342570663047403,
0.005087281795511222,0.024470224630916186,
0.00513715710723192,0.002679867973639061,
0.0051870324189526185,0.019223311019595297,
0.005236907730673317,-0.006294424089519441,
0.005286783042394015,-0.0017731344876474604,
0.0053366583541147134,-0.01444899095946147,
0.005386533665835412,-0.010381898541557478,
0.00543640897755611,-0.008013853413245895,
0.005486284289276808,-0.0383641751230322,
0.005536159600997507,-0.002467111413114089,
0.005586034912718204,-0.01944324539425173,
0.005635910224438902,0.008500956830400086,
0.005685785536159601,-0.009250210427061414,
0.005735660847880299,-0.000823306969794867,
0.005785536159600997,-0.018870135405502232,
0.005835411471321696,-0.012182670427480575,
0.005885286783042394,0.003621229954607728,
0.005935162094763092,0.008114638046005478,
0.0059850374064837905,-0.01731405421847789,
0.006034912718204489,0.011785564629746207,
0.006084788029925187,-0.026608366774538768,
0.0061346633416458855,0.00642146490437269,
0.006184538653366584,0.010231258734046057,
0.006234413965087282,0.016678100764794444,
0.00628428927680798,-0.02525648476072278,
0.006334164588528679,0.0008443065351176546,
0.006384039900249377,0.0004833608061602136,
0.006433915211970074,0.02514784591855839,
0.006483790523690773,-0.015878175171448076,
0.006533665835411471,0.0004897028175585866,
0.006583541147132169,0.002689298038946932,
0.006633416458852868,-0.017622080137849317,
0.006683291770573566,-0.006529088581880507,
0.006733167082294264,-0.01116669256652484,
0.0067830423940149626,0.007792362030457637,
0.006832917705735661,0.011688664570360035,
0.006882793017456359,0.0011816349118393757,
0.0069326683291770575,-0.009501103520766706,
0.006982543640897756,0.00784143792451348,
0.007032418952618454,0.013005014153690132,
0.007082294264339152,-0.024424035036920262,
0.007132169576059851,-0.011192753643257187,
0.007182044887780549,-0.02441878887918701,
0.007231920199501247,-0.01908969444213321,
0.007281795511221945,-0.0027023242701874686,
0.007331670822942643,-0.032385848996138986,
0.007381546134663341,-0.0025466398779487188,
0.00743142144638404,0.011090102025347161,
0.007481296758104738,-0.049201054749007364,
0.007531172069825436,-0.011888383645299146,
0.007581047381546135,-0.02507368985626736,
0.007630922693266833,-0.02006040656202996,
0.007680798004987531,-0.008987197543970506,
0.0077306733167082295,0.012908744671881797,
0.007780548628428928,-0.019905335313620404,
0.007830423940149626,0.001817250196637199,
0.007880299251870324,-0.01667067493166068,
0.007930174563591023,-0.01971727117729103,
0.00798004987531172,-0.022030404673604658,
0.00802992518703242,-0.04546975954538675,
0.008079800498753117,-0.012755569705263113,
0.008129675810473816,-0.013561728096259662,
0.008179551122194513,0.017931495486164253,
0.008229426433915213,-0.021911403511838137,
0.00827930174563591,0.0018359910180158062,
0.00832917705735661,-0.011811060378967068,
0.008379052369077307,-0.03398837606520763,
0.008428927680798006,-0.026895983372222244,
0.008478802992518703,-0.008807890102853258,
0.0085286783042394,-0.053486706449682134,
0.0085785536159601,-0.018663891646445642,
0.008628428927680797,-0.04820447221107074,
0.008678304239401496,-0.021077888898688883,
0.008728179551122194,0.020069925717125722,
0.008778054862842893,-0.023703313685383087,
0.00882793017456359,-0.03277988954938753,
0.00887780548628429,-0.04145005267852113,
0.008927680798004987,-0.03204904550406809,
0.008977556109725686,0.0020111966773507413,
0.009027431421446384,-0.007679369128529937,
0.009077306733167083,-0.020702823939290124,
0.00912718204488778,-0.027957310261020017,
0.00917705735660848,-0.04122470569959835,
0.009226932668329177,-0.01935049928661231,
0.009276807980049876,-0.032116170456645894,
0.009326683291770574,-0.039528324892145056,
0.009376558603491271,0.004456997254290409,
0.00942643391521197,0.0021604549981674194,
0.009476309226932668,-0.04165736242695642,
0.009526184538653367,-0.015594310578376536,
0.009576059850374064,-0.009220963800748667,
0.009625935162094763,-0.03351662131783411,
0.00967581047381546,-0.016298790562890516,
0.00972568578553616,-0.037878761288765175,
0.009775561097256857,-0.020785810912414555,
0.009825436408977557,-0.009133283194583569,
0.009875311720698254,-0.011353330328958655,
0.009925187032418953,-0.0019172587808460734,
0.00997506234413965,-0.026748063680376813,
0.01002493765586035,-0.009589997896734339,
0.010074812967581047,-0.021612691034352902,
0.010124688279301746,-0.007308227304976232,
0.010174563591022444,-0.015934028776518935,
0.010224438902743141,-0.03983445537005057,
0.01027431421446384,-0.021193766162579595,
0.010324189526184538,0.012204220469600072,
0.010374064837905237,-0.006454945159379694,
0.010423940149625935,-0.026919800192682617,
0.010473815461346634,-0.0233730852643875,
0.010523690773067331,-0.04371544374923395,
0.01057356608478803,-0.03826721999801541,
0.010623441396508728,-0.03904190923010238,
0.010673316708229427,-0.020298930839676422,
0.010723192019950124,-0.011120267081797959,
0.010773067331670824,-0.027941187666126258,
0.010822942643391521,-0.02533450826160974,
0.01087281795511222,-0.012778609955717429,
0.010922693266832918,-0.012236036653069639,
0.010972568578553617,0.007487822908669232,
0.011022443890274314,-0.014457418260256432,
0.011072319201995013,-0.017302332073305993,
0.01112219451371571,-0.010537126084770653,
0.011172069825436408,-0.019644383399144462,
0.011221945137157107,-0.008794237684434355,
0.011271820448877805,-0.017153684195712157,
0.011321695760598504,-0.02985843106476825,
0.011371571072319201,0.004078941366994344,
0.0114214463840399,-0.013598791691626914,
0.011471321695760598,-0.014274005192672558,
0.011521197007481297,-0.004611094395080709,
0.011571072319201995,-0.029075116541700717,
0.011620947630922694,-0.01814095263138514,
0.011670822942643391,-0.022170915589447074,
0.01172069825436409,-0.015013112415373129,
0.011770573566084788,-0.004718591400971993,
0.011820448877805487,-0.0029454873021907153,
0.011870324189526184,0.002980790005040767,
0.011920199501246884,-0.023903886529908724,
0.011970074812967581,-0.004399354648974528,
0.012019950124688279,-0.046796241620895296,
0.012069825436408978,-0.015928574465752087,
0.012119700748129675,0.012297657022925887,
0.012169576059850374,-0.0030639480156182345,
0.012219451371571072,-0.0063118529376576344,
0.012269326683291771,-0.037301814067931996,
0.012319201995012468,-0.03748492762405853,
0.012369077306733168,-0.01590688206131036,
0.012418952618453865,-0.02555581434926106,
0.012468827930174564,-0.011880060581445941,
0.012518703241895262,0.026760670213755028,
0.01256857855361596,-0.025780118330545707,
0.012618453865336658,0.007565293057469008,
0.012668329177057357,-0.02466833799807089,
0.012718204488778055,-0.008683129099395991,
0.012768079800498754,-0.0027517719259632463,
0.012817955112219451,-0.04184184802656167,
0.012867830423940149,0.005778641280976413,
0.012917705735660848,0.003682766436018319,
0.012967581047381545,-0.0030717620279415115,
0.013017456359102245,0.004084747562255804,
0.013067331670822942,-0.024280265160175982,
0.013117206982543641,-0.0031199578775449755,
0.013167082294264339,-0.0035503530727433712,
0.013216957605985038,-0.010234572890131053,
0.013266832917705735,0.011394407635065478,
0.013316708229426434,-0.011274571410219602,
0.013366583541147132,-0.025380845501023777,
0.013416458852867831,-0.00893964383526618,
0.013466334164588529,-0.0025372896804026187,
0.013516209476309228,0.0162833808230081,
0.013566084788029925,-0.023284098152023175,
0.013615960099750624,0.035183855977136046,
0.013665835411471322,-0.02063320038305496,
0.01371571072319202,0.0040985567811974025,
0.013765586034912718,0.01226681687985822,
0.013815461346633416,0.02126728894364995,
0.013865336658354115,-0.019374924689618184,
0.013915211970074812,-0.0222583120970643,
0.013965087281795512,-0.019804430121671844,
0.014014962593516209,-0.02941766564341973,
0.014064837905236908,-0.006508326636506851,
0.014114713216957606,-0.000864262462587091,
0.014164588528678305,-0.030209927565975212,
0.014214463840399002,0.014515936254576887,
0.014264339152119701,-0.006749478903816712,
0.014314214463840399,-0.019861513954090367,
0.014364089775561098,0.001597411230427946,
0.014413965087281795,-0.003608215225640047,
0.014463840399002495,-0.026169882520915146,
0.014513715710723192,-0.0025369922622495576,
0.01456359102244389,0.029027263847935116,
0.014613466334164589,-0.010866488047246372,
0.014663341645885286,-0.009234427227849621,
0.014713216957605985,0.016697545473988672,
0.014763092269326683,0.0032643274626990904,
0.014812967581047382,-0.000523198636129004,
0.01486284289276808,-0.009745841164048889,
0.014912718204488778,0.0007520576116224905,
0.014962593516209476,-0.015410068712277337,
0.015012468827930175,-0.014286454329002746,
0.015062344139650873,0.009540549003170955,
0.015112219451371572,0.01180309596255038,
0.01516209476309227,0.012493034563314926,
0.015211970074812968,-0.0009500594986256777,
0.015261845386533666,0.009063712110142029,
0.015311720698254365,-0.00539456300776925,
0.015361596009975062,0.005219306846616728,
0.01541147132169576,0.02043154432576469,
0.015461346633416459,0.011646462265484612,
0.015511221945137156,0.002352264635996468,
0.015561097256857856,-0.022520871033926235,
0.015610972568578553,-0.008502651792960295,
0.015660847880299252,0.019286262438577135,
0.01571072319201995,0.003240979376133538,
0.015760598503740647,-0.012870249307395143,
0.015810473815461346,0.00224065919409548,
0.015860349127182045,0.049901393813366404,
0.015910224438902745,0.0068967340632068485,
0.01596009975062344,0.0021307833106655877,
0.01600997506234414,0.012566783705393467,
0.01605985037406484,0.003688488510613561,
0.016109725685785538,0.006013349011518175,
0.016159600997506234,0.0036486875805028162,
0.016209476309226933,0.01149470865353983,
0.016259351620947632,0.014266684417418202,
0.016309226932668328,0.017365312136434833,
0.016359102244389027,0.02924715011724049,
0.016408977556109726,0.008330522959140224,
0.016458852867830425,-0.003000811551553224,
0.01650872817955112,0.00519992154275814,
0.01655860349127182,0.015807931904379097,
0.01660847880299252,0.0200617642816305,
0.01665835411471322,-0.013895577849105788,
0.016708229426433914,0.005272780615983354,
0.016758104738154613,0.024663549425093217,
0.016807980049875312,0.01973541935501853,
0.01685785536159601,-0.007807880266015678,
0.016907730673316707,0.027258517963697007,
0.016957605985037406,0.028886703561899638,
0.017007481296758106,0.005103840853085566,
0.0170573566084788,0.01434331811194764,
0.0171072319201995,0.02855129970049381,
0.0171571072319202,0.0264799674808188,
0.0172069825436409,0.02520618883311339,
0.017256857855361595,0.028450492030280158,
0.017306733167082294,0.014536980845189262,
0.017356608478802993,-0.004071426177962866,
0.017406483790523692,0.0054127024077410026,
0.017456359102244388,0.03892285311586168,
0.017506234413965087,0.006874362618779991,
0.017556109725685786,0.018870004817426955,
0.017605985037406485,0.014140134133388622,
0.01765586034912718,0.002950080239040656,
0.01770573566084788,0.047459109754479,
0.01775561097256858,0.0063620151536313875,
0.01780548628428928,0.027552097008761045,
0.017855361596009974,0.00666699091654036,
0.017905236907730673,0.03803987714178677,
0.017955112219451373,0.007433690302830621,
0.018004987531172068,0.013034267438614465,
0.018054862842892767,0.017985045834696473,
0.018104738154613467,0.0024126688812711704,
0.018154613466334166,-0.006356369928433966,
0.01820448877805486,0.0161627262524138,
0.01825436408977556,0.017945460741094932,
0.01830423940149626,0.003361355069102765,
0.01835411471321696,-0.016947838314300356,
0.018403990024937655,0.00015551381556888969,
0.018453865336658354,0.008720990127170444,
0.018503740648379053,-0.0005750751655686157,
0.018553615960099752,0.026284687250436926,
0.018603491271820448,0.011741146382537678,
0.018653366583541147,0.0008231163879137728,
0.018703241895261846,0.003202281465502308,
0.018753117206982542,0.016086735131299584,
0.01880299251870324,0.01564461824382384,
0.01885286783042394,-0.0028776785880162588,
0.01890274314214464,0.010615792282917336,
0.018952618453865335,0.024465816244836677,
0.019002493765586034,0.013482216309129415,
0.019052369077306733,-0.008949802229900983,
0.019102244389027433,0.016264293078539483,
0.01915211970074813,0.028831762782709054,
0.019201995012468828,0.005458035460749935,
0.019251870324189527,0.03216931333818992,
0.019301745635910226,0.006138191866082271,
0.01935162094763092,0.047539928198112674,
0.01940149625935162,0.0235598536671339,
0.01945137157107232,0.0036066615008282614,
0.01950124688279302,0.02395363707212044,
0.019551122194513715,0.05625975575012514,
0.019600997506234414,0.02966112029371129,
0.019650872817955113,0.03681831822129772,
0.01970074812967581,0.03182068462412048,
0.019750623441396508,0.040381328701520974,
0.019800498753117207,0.025744742157566752,
0.019850374064837906,0.002792604422205157,
0.019900249376558602,0.028139852621757333,
0.0199501246882793,0.01727951628804384,
0.02,0.005497648914292861,
0.0200498753117207,0.03969170787832921,
0.020099750623441395,0.02498521866393865,
0.020149625935162094,-0.003656361198767926,
0.020199501246882794,0.010262924230295492,
0.020249376558603493,0.04194502949664395,
0.02029925187032419,0.022515774160240414,
0.020349127182044888,0.018153220926563362,
0.020399002493765587,0.03288833378351705,
0.020448877805486283,0.057064203478825085,
0.02049875311720698,0.020262814138195966,
0.02054862842892768,-0.012339420155995727,
0.02059850374064838,0.04642886977201975,
0.020648379052369076,0.03779687942990176,
0.020698254364089775,0.0431378321991418,
0.020748129675810474,0.015599104281065108,
0.020798004987531173,0.015686739500677643,
0.02084788029925187,0.031185017609887615,
0.020897755610972568,0.056395650482118004,
0.020947630922693267,0.028350565428288475,
0.020997506234413967,0.005647588129480295,
0.021047381546134662,0.007569902577893814,
0.02109725685785536,-0.0038483359029510243,
0.02114713216957606,0.04127709057424245,
0.02119700748129676,0.059067141644113606,
0.021246882793017455,0.028535232553830003,
0.021296758104738155,0.007590223279436429,
0.021346633416458854,0.02429117150307561,
0.02139650872817955,0.01967268606331389,
0.02144638403990025,-0.008209176406020782,
0.021496259351620948,0.01923171182612525,
0.021546134663341647,0.014827302303343413,
0.021596009975062343,0.024784186552016405,
0.021645885286783042,0.01267201890923749,
0.02169576059850374,-0.013859828378866505,
0.02174563591022444,0.027930539540545377,
0.021795511221945136,0.019722005028264735,
0.021845386533665835,0.038240009963737415,
0.021895261845386534,0.0010877648411404192,
0.021945137157107233,0.028580814973459483,
0.02199501246882793,0.016180994512006698,
0.02204488778054863,0.053153565380315265,
0.022094763092269327,0.026352333434499806,
0.022144638403990027,0.0313258101806759,
0.022194513715710722,0.031510012831128184,
0.02224438902743142,0.009423679955063453,
0.02229426433915212,0.014849677015942855,
0.022344139650872816,0.01903319231837346,
0.022394014962593516,0.0005912949785162967,
0.022443890274314215,-0.013951679401562455,
0.022493765586034914,0.022095139631274692,
0.02254364089775561,0.02569047258060582,
0.02259351620947631,-0.0030905941046972373,
0.022643391521197008,-0.0066114990168394654,
0.022693266832917707,0.012076299186500054,
0.022743142144638403,0.009867401106716179,
0.022793017456359102,0.022856611372372698,
0.0228428927680798,0.006861789291985947,
0.0228927680798005,0.005678748340767102,
0.022942643391521196,0.0031271452881714897,
0.022992518703241895,-0.015518049874736225,
0.023042394014962594,0.019588250574769928,
0.02309226932668329,0.00788807113098419,
0.02314214463840399,-0.0049059855470091965,
0.02319201995012469,0.02874671781099323,
0.023241895261845388,0.03494601234202267,
0.023291770573566083,-0.010905769823860255,
0.023341645885286783,0.01956771808423224,
0.02339152119700748,0.017412733845225927,
0.02344139650872818,0.008062233107397444,
0.023491271820448877,-0.011429484488248667,
0.023541147132169576,0.0066666301409416,
0.023591022443890275,-0.021861967108041093,
0.023640897755610974,0.0069818095755503524,
0.02369077306733167,6.411279972428838e-05,
0.02374064837905237,0.0005822168552973989,
0.023790523690773068,0.01399400995333401,
0.023840399002493767,-0.018079521402835017,
0.023890274314214463,0.01417469051507771,
0.023940149625935162,0.0004996621888721442,
0.02399002493765586,0.019697542695164303,
0.024039900249376557,0.00161770332515485,
0.024089775561097256,0.017555503839520453,
0.024139650872817955,0.014588685021046365,
0.024189526184538655,-0.03383737946191047,
0.02423940149625935,0.007804083543205408,
0.02428927680798005,-0.0017825744761095228,
0.02433915211970075,-0.00031348007782431957,
0.024389027431421448,0.0008459934263576061,
0.024438902743142144,-0.026494936927804906,
0.024488778054862843,0.004115738769435847,
0.024538653366583542,0.009128538061097962,
0.02458852867830424,0.017864736455290436,
0.024638403990024937,-0.002323677150902102,
0.024688279301745636,0.036005401027133885,
0.024738154613466335,0.021560597387329277,
0.02478802992518703,-0.008027430011176905,
0.02483790523690773,0.00966918889577926,
0.02488778054862843,0.0018132738503729763,
0.02493765586034913,0.028406071520148506,
0.024987531172069824,-0.0260523423901844,
0.025037406483790523,-0.007535264383363688,
0.025087281795511222,-0.006869269404154945,
0.02513715710723192,0.01630048590737499,
0.025187032418952617,0.008384128119426897,
0.025236907730673316,-0.01640716076895952,
0.025286783042394016,-0.0018297835085350552,
0.025336658354114715,0.011937384357966223,
0.02538653366583541,0.0075205282336764535,
0.02543640897755611,0.010496289916213675,
0.02548628428927681,0.021735549173093935,
0.025536159600997508,-0.006120554329583834,
0.025586034912718204,-0.0094325815327811,
0.025635910224438903,0.011017940761819884,
0.025685785536159602,0.0017093421146776198,
0.025735660847880298,0.011956203857869224,
0.025785536159600997,0.003595517691471724,
0.025835411471321696,0.006286206483125999,
0.025885286783042395,0.018868262134637766,
0.02593516209476309,-0.0019551591749487,
0.02598503740648379,-0.0015487805703008513,
0.02603491271820449,-0.02214078421695627,
0.02608478802992519,-0.011879061917998052,
0.026134663341645884,-0.02008909665950317,
0.026184538653366583,0.011148026637570248,
0.026234413965087282,-0.018211112948709404,
0.02628428927680798,-0.018643880400751666,
0.026334164588528677,-0.011592909490879684,
0.026384039900249377,0.013668734325672382,
0.026433915211970076,0.00434830812440728,
0.02648379052369077,-0.00633349609907568,
0.02653366583541147,0.00883433546982879,
0.02658354114713217,-0.0016361843596635478,
0.02663341645885287,-0.00919836685466369,
0.026683291770573565,-0.03605031329903577,
0.026733167082294264,-0.02182147414443772,
0.026783042394014963,-0.020597239552712344,
0.026832917705735662,-0.016349468225373594,
0.026882793017456358,0.012501363665829579,
0.026932668329177057,-0.026441596126442944,
0.026982543640897756,-0.02210745917140121,
0.027032418952618455,-0.031378313117557566,
0.02708229426433915,-0.007782160803812552,
0.02713216957605985,-0.017333317444678753,
0.02718204488778055,-0.018522153196588925,
0.02723192019950125,-0.006142600611033845,
0.027281795511221944,-0.01533891908681851,
0.027331670822942643,-0.010102762928052778,
0.027381546134663343,0.026469947494455602,
0.02743142144638404,-0.013124618241594846,
0.027481296758104738,-0.005859370583270371,
0.027531172069825437,0.012364460706378389,
0.027581047381546136,-0.0032551879167113836,
0.02763092269326683,-0.02852319310567197,
0.02768079800498753,-0.011113756471467144,
0.02773067331670823,-0.02421319925275607,
0.02778054862842893,-0.018201232510320242,
0.027830423940149625,-0.026799686924587833,
0.027880299251870324,0.0020996186469919853,
0.027930174563591023,-0.016764011109845968,
0.027980049875311722,-0.03365243350194805,
0.028029925187032418,-0.030589215918254406,
0.028079800498753117,-0.016613982327502056,
0.028129675810473816,-0.010734778971790312,
0.028179551122194512,-0.033580621939830205,
0.02822942643391521,-0.003643808003755562,
0.02827930174563591,-0.025587559551194298,
0.02832917705735661,-0.04073143011263376,
0.028379052369077305,-0.02964105129153966,
0.028428927680798004,-0.004014425966145298,
0.028478802992518704,-0.023687115683883715,
0.028528678304239403,-0.02190796841710917,
0.0285785536159601,0.008134281276889775,
0.028628428927680798,-0.03505467403306788,
0.028678304239401497,-0.027133082205891258,
0.028728179551122196,-0.03103244676134598,
0.02877805486284289,0.007180040414986894,
0.02882793017456359,-0.034794760454275035,
0.02887780548628429,0.011977446619815316,
0.02892768079800499,-0.013816587199173827,
0.028977556109725685,-0.02318127980831919,
0.029027431421446384,-0.0562409736344865,
0.029077306733167083,-0.020437952128250093,
0.02912718204488778,-0.017189524211495232,
0.029177057356608478,-0.010003638605830024,
0.029226932668329177,-0.020624060792810067,
0.029276807980049877,-0.02931890646242782,
0.029326683291770572,-0.01502963045678731,
0.02937655860349127,-0.029188953831469105,
0.02942643391521197,-0.02175984580046804,
0.02947630922693267,-0.015363018239797879,
0.029526184538653365,-0.011884952420726323,
0.029576059850374065,-0.048253026825219036,
0.029625935162094764,-0.004212371447856382,
0.029675810473815463,-0.019124557349029882,
0.02972568578553616,-0.02216845998067216,
0.029775561097256858,0.0004284966604051234,
0.029825436408977557,-0.012551288769461379,
0.029875311720698253,-0.023040616339522754,
0.029925187032418952,-0.0011811541681315298,
0.02997506234413965,-0.02796134386623258,
0.03002493765586035,-0.0014033984532840563,
0.030074812967581046,-0.0206168996262975,
0.030124688279301745,-0.014487590699194641,
0.030174563591022444,-0.00853001392935445,
0.030224438902743143,-0.03263866138113303,
0.03027431421446384,-0.009927866435511764,
0.03032418952618454,-0.04197337556339888,
0.030374064837905237,-0.014947900724194167,
0.030423940149625937,-0.017105579078176458,
0.030473815461346632,-0.03209868792067715,
0.03052369077306733,-0.008652473804700264,
0.03057356608478803,-0.005678687769096516,
0.03062344139650873,0.0019417092733757142,
0.030673316708229426,-0.005950363770582109,
0.030723192019950125,-0.00948906174500417,
0.030773067331670824,-0.02165999627113863,
0.03082294264339152,-0.018759206090016058,
0.03087281795511222,0.007180276092151529,
0.030922693266832918,-0.007436808901962029,
0.030972568578553617,-0.05291129875022476,
0.031022443890274313,-0.00998722273072936,
0.031072319201995012,-0.0010312553317070126,
0.03112219451371571,-0.00826351616439496,
0.03117206982543641,0.002335830586217858,
0.031221945137157106,-0.01048384608044095,
0.03127182044887781,-0.011858342426733953,
0.031321695760598504,0.009972220421809416,
0.0313715710723192,-0.02744078544117631,
0.0314214463840399,-0.02481945941939173,
0.0314713216957606,-0.028519528902520998,
0.031521197007481294,-0.016164002002531964,
0.031571072319202,-0.017240595011983044,
0.03162094763092269,-0.011127591267690314,
0.03167082294264339,0.013693290317352653,
0.03172069825436409,-0.026797752317981968,
0.03177057356608479,0.0026077443127600266,
0.03182044887780549,-0.013640321214364263,
0.031870324189526185,0.005843560148494702,
0.03192019950124688,-0.011528284867784856,
0.03197007481296758,-0.027838619173183043,
0.03201995012468828,-0.012673574873077133,
0.032069825436408975,-0.007076972451430011,
0.03211970074812968,0.004328573490077786,
0.03216957605985037,-0.011186238938544809,
0.032219451371571076,0.01761335121812366,
0.03226932668329177,-0.028723226490613367,
0.03231920199501247,-0.01348026089365911,
0.03236907730673317,-0.01976962266531927,
0.032418952618453865,0.006010680270826985,
0.03246882793017456,-0.023610552778618413,
0.032518703241895264,-0.0003957544057014168,
0.03256857855361596,-0.03529419612537862,
0.032618453865336655,-0.013932868256589681,
0.03266832917705736,-0.016209557499956524,
0.032718204488778053,-0.020294714146381614,
0.032768079800498756,0.0023064863672532,
0.03281795511221945,0.01726556398617934,
0.03286783042394015,0.002382157892959034,
0.03291770573566085,-0.012254615453995199,
0.032967581047381546,-0.033947474431541835,
0.03301745635910224,0.01198209694284252,
0.033067331670822944,-0.006463605439253288,
0.03311720698254364,-0.0011153332996706325,
0.03316708229426434,0.01631714470975258,
0.03321695760598504,-0.018907812556333142,
0.033266832917705734,-0.005126797978964761,
0.03331670822942644,-0.011558737593057955,
0.03336658354114713,0.002358874054136594,
0.03341645885286783,-0.04512484391995256,
0.03346633416458853,0.01734336703917433,
0.033516209476309226,0.012630749956328784,
0.03356608478802992,-0.010883640511919552,
0.033615960099750625,0.002702668787569684,
0.03366583541147132,0.008740783978832397,
0.03371571072319202,0.0011546893774612137,
0.03376558603491272,-0.029070646952568266,
0.033815461346633414,0.000321112294880859,
0.03386533665835412,0.0034535959979994446,
0.03391521197007481,-0.030695108651338614,
0.03396508728179551,0.01811714459742878,
0.03401496259351621,-0.015286318904169495,
0.03406483790523691,-0.0019697753578771463,
0.0341147132169576,-0.014226539815128562,
0.034164588528678305,-0.011386048908527617,
0.034214463840399,0.019201115992682004,
0.034264339152119704,0.004521831463383863,
0.0343142144638404,0.0001737261540922248,
0.034364089775561095,-0.0323824789042946,
0.0344139650872818,0.026350435170986685,
0.03446384039900249,0.013556232935183366,
0.03451371571072319,0.02618946178926496,
0.03456359102244389,-0.013697424951273717,
0.03461346633416459,0.007425598174514626,
0.03466334164588529,0.003819048844410383,
0.034713216957605986,-0.0016629663252731956,
0.03476309226932668,0.013187436100359516,
0.034812967581047384,0.02392867289508179,
0.03486284289276808,-0.0017235507558967353,
0.034912718204488775,0.029482647127729994,
0.03496259351620948,0.019653911736280665,
0.035012468827930174,-0.003997786459170146,
0.03506234413965087,0.0022881083557209406,
0.03511221945137157,0.0073298303382899384,
0.03516209476309227,-0.0013149626396339355,
0.03521197007481297,-0.0011795684595316347,
0.035261845386533666,0.00027294477822883707,
0.03531172069825436,-0.010278036998806691,
0.035361596009975065,-0.003248108073579139,
0.03541147132169576,0.004485440589659426,
0.035461346633416456,0.02881520084317857,
0.03551122194513716,-0.02588076337395716,
0.035561097256857854,0.006732519267052137,
0.03561097256857856,-0.022021073626072116,
0.03566084788029925,-0.010722723529725718,
0.03571072319201995,0.003479801626585761,
0.03576059850374065,-9.859886708515203e-05,
0.03581047381546135,0.014783903091509908,
0.03586034912718204,0.008775478804378014,
0.035910224438902745,-0.01637275887253946,
0.03596009975062344,0.012124123633191854,
0.036009975062344136,-0.012393967967263114,
0.03605985037406484,0.0034037164242466684,
0.036109725685785535,-0.015591723837052528,
0.03615960099750624,0.006923511036892785,
0.03620947630922693,-0.031864703622833376,
0.03625935162094763,-0.005460989183001495,
0.03630922693266833,0.004354557867356709,
0.03635910224438903,-0.0061006492536860735,
0.03640897755610972,0.017493220669256956,
0.036458852867830426,0.016396423743744136,
0.03650872817955112,-0.013572829941629602,
0.036558603491271824,-0.0066825638702882675,
0.03660847880299252,-0.0006094404360144131,
0.036658354114713215,-0.0020993843104091282,
0.03670822942643392,0.01160360162136336,
0.036758104738154614,0.035755790826518155,
0.03680798004987531,0.003317850255232343,
0.03685785536159601,0.0125508870793383,
0.03690773067331671,0.007157395498772116,
0.0369576059850374,-0.0031381922035357,
0.037007481296758106,0.03160996672434662,
0.0370573566084788,0.0008955546813734817,
0.037107231920199504,0.004371211928320573,
0.0371571072319202,-0.018461524651185005,
0.037206982543640896,0.016499426682148623,
0.0372568578553616,0.0035509844395027624,
0.037306733167082294,0.029076400895419047,
0.03735660847880299,0.008807853644369593,
0.03740648379052369,-0.0074676163784839315,
0.03745635910224439,0.017335212219911085,
0.037506234413965084,0.03878294560043334,
0.037556109725685786,0.04507576807602394,
0.03760598503740648,-0.011540805909201663,
0.037655860349127185,-0.009766067100223052,
0.03770573566084788,0.02886017060799291,
0.037755610972568576,0.027324193703737246,
0.03780548628428928,0.017346735361556415,
0.037855361596009975,0.0161454605758116,
0.03790523690773067,0.019533819692038084,
0.03795511221945137,0.025146625563266967,
0.03800498753117207,0.01622911414403513,
0.03805486284289277,0.014960138779838341,
0.03810473815461347,0.0012173144386860395,
0.03815461346633416,0.033760758739963544,
0.038204488778054865,0.030624947375419025,
0.03825436408977556,0.011746127319550858,
0.03830423940149626,0.026153172963672006,
0.03835411471321696,0.03066248368961169,
0.038403990024937655,0.014713260879065104,
0.03845386533665835,0.034144318931891314,
0.03850374064837905,0.014939622688789539,
0.03855361596009975,0.014295520466203903,
0.03860349127182045,0.04841077789504719,
0.03865336658354115,-0.0001821138499849967,
0.03870324189526184,0.025535216544084628,
0.038753117206982546,0.05395094733809462,
0.03880299251870324,0.024356883206978222,
0.03885286783042394,0.019643498364230544,
0.03890274314214464,0.025096999583168206,
0.038952618453865336,0.028456700747339452,
0.03900249376558604,0.013078422585029212,
0.039052369077306734,0.01726039353561935,
0.03910224438902743,0.023457706955838306,
0.03915211970074813,-0.006719787127946707,
0.03920199501246883,0.012188237433783156,
0.039251870324189524,0.05220445889976737,
0.039301745635910226,0.04113152236399581,
0.03935162094763092,0.03695868943427018,
0.03940149625935162,0.03822406047690597,
0.03945137157107232,0.02381693486754313,
0.039501246882793016,0.03490583132091621,
0.03955112219451372,0.03786938650759612,
0.039600997506234414,0.02504563386158807,
0.03965087281795511,0.03473359592194283,
0.03970074812967581,0.044663921139316345,
0.03975062344139651,0.006450787232864713,
0.039800498753117204,-0.0007589475320645515,
0.03985037406483791,0.01950952902615273,
0.0399002493765586,0.0415071056623048,
0.039950124688279305,0.017955703407418824,
0.04,0.0198283269901036,
0.0400498753117207,0.029333721564296214,
0.0400997506234414,0.04451074543701951,
0.040149625935162095,0.03256550607937461,
0.04019950124688279,0.01827519504450013,
0.04024937655860349,0.020053775793586623,
0.04029925187032419,0.032594742644942096,
0.040349127182044885,0.00343125469343537,
0.04039900249376559,0.04483361446720332,
0.04044887780548628,0.037578435158882616,
0.040498753117206986,0.050833078805857565,
0.04054862842892768,0.057635136832294556,
0.04059850374064838,0.012169455933147647,
0.04064837905236908,-0.011045443491025653,
0.040698254364089775,0.017413398914345818,
0.04074812967581047,0.030994708022914028,
0.040798004987531174,0.014935785083739436,
0.04084788029925187,-0.004298773839567709,
0.040897755610972565,0.027040799658445806,
0.04094763092269327,0.007273552279509456,
0.04099750623441396,-0.0032588757534709814,
0.041047381546134666,0.03753508793897531,
0.04109725685785536,0.03231464636691727,
0.04114713216957606,0.015104221272506834,
0.04119700748129676,0.03810362575322654,
0.041246882793017456,0.01625932709174463,
0.04129675810473815,0.005472006939979221,
0.041346633416458854,0.003907417367908155,
0.04139650872817955,0.02061671972356923,
0.04144638403990025,0.017619216801866924,
0.04149625935162095,0.02522805169656217,
0.041546134663341644,0.023812216595640093,
0.04159600997506235,0.020190631905826817,
0.04164588528678304,0.03698428778013384,
0.04169576059850374,0.03359480131261515,
0.04174563591022444,0.024837800862104374,
0.041795511221945136,0.03370249040312222,
0.04184538653366583,-0.0006510898565132914,
0.041895261845386535,0.010989969652215343,
0.04194513715710723,-0.007225911302192245,
0.04199501246882793,0.02609545544314455,
0.04204488778054863,0.031477957017725676,
0.042094763092269324,0.010503880458569162,
0.04214463840399003,0.02038562108011183,
0.04219451371571072,0.02334345280413036,
0.04224438902743142,0.004312776250522222,
0.04229426433915212,0.022046072021835103,
0.04234413965087282,0.04022816908084941,
0.04239401496259352,0.014600196874807025,
0.042443890274314215,0.01853507456936931,
0.04249376558603491,-0.00040340721886507683,
0.042543640897755614,0.024981634849884547,
0.04259351620947631,0.030246282149394024,
0.042643391521197005,0.025961136394473294,
0.04269326683291771,0.014456797684068613,
0.0427431421446384,0.01549879634456878,
0.0427930174563591,0.022485977001624698,
0.0428428927680798,0.033700727345178885,
0.0428927680798005,0.043316723171470006,
0.0429426433915212,0.002810009826779222,
0.042992518703241896,0.020212781196709988,
0.04304239401496259,0.018509705128533678,
0.043092269326683294,-0.0009389555982696803,
0.04314214463840399,-0.001347496429905835,
0.043192019950124685,-0.005926884620156454,
0.04324189526184539,0.005669295128702657,
0.043291770573566084,0.008567843247022169,
0.043341645885286786,0.0003331789454418012,
0.04339152119700748,0.02043033012709454,
0.04344139650872818,0.004230044817156681,
0.04349127182044888,0.014664438181110896,
0.043541147132169576,0.01640024589385057,
0.04359102244389027,0.012772809563312752,
0.043640897755610975,0.01252889066718498,
0.04369077306733167,-0.0007825605661964663,
0.043740648379052366,0.053059855870380875,
0.04379052369077307,0.0177382814975418,
0.043840399002493764,0.028098331730128483,
0.04389027431421447,0.01923797413421751,
0.04394014962593516,0.019073387167135296,
0.04399002493765586,0.006077890496836816,
0.04403990024937656,0.0021454715315875,
0.04408977556109726,0.012684446493730916,
0.04413965087281795,0.03737836685333586,
0.044189526184538655,-0.005639168594257589,
0.04423940149625935,-0.01292637170221721,
0.04428927680798005,0.023743847129942097,
0.04433915211970075,0.01170339766620183,
0.044389027431421445,-0.009054269591585583,
0.04443890274314215,0.004629971193899122,
0.04448877805486284,-0.004108748768169057,
0.04453865336658354,-0.013740317881519238,
0.04458852867830424,-0.0045147119303113725,
0.04463840399002494,-0.00781649521232319,
0.04468827930174563,-0.0009444172864198838,
0.044738154613466335,0.002877156824484881,
0.04478802992518703,-0.004292281558545482,
0.044837905236907734,0.035085977519927966,
0.04488778054862843,0.0041712179116366686,
0.044937655860349125,-0.002019534135847796,
0.04498753117206983,0.02437583816187279,
0.045037406483790524,-0.015590158432336238,
0.04508728179551122,-0.009555360953522347,
0.04513715710723192,-0.0002760252188753953,
0.04518703241895262,-0.003983480158062677,
0.04523690773067331,-0.009171238749610124,
0.045286783042394016,-0.01505495006170992,
0.04533665835411471,-0.012582427663661072,
0.045386533665835414,-0.013078711669054213,
0.04543640897755611,0.0027475159247383183,
0.045486284289276806,-0.0017235528097988232,
0.04553615960099751,0.012452885265773012,
0.045586034912718204,0.0008701730349950413,
0.0456359102244389,-0.015073343481134373,
0.0456857855361596,0.010821479055481491,
0.0457356608478803,-0.01755874696252823,
0.045785536159601,-0.003936101891791345,
0.045835411471321696,-0.01897583992197034,
0.04588528678304239,0.0034122330189477763,
0.045935162094763095,-0.006629360317534312,
0.04598503740648379,-0.016162007050243597,
0.046034912718204486,-0.009043794583208687,
0.04608478802992519,0.02625415883916287,
0.046134663341645885,-0.031508507435316885,
0.04618453865336658,0.01854176950787332,
0.04623441396508728,0.008378358119402145,
0.04628428927680798,-0.0013692476349952644,
0.04633416458852868,0.0024507158171236934,
0.04638403990024938,-0.004205301883702891,
0.04643391521197007,-0.018494040313538018,
0.046483790523690775,0.0018268926823135408,
0.04653366583541147,0.00041389279260328066,
0.04658354114713217,-0.008276856995858525,
0.04663341645885287,-0.013387628185437744,
0.046683291770573565,-0.007783130491327624,
0.04673316708229427,-0.0056029732793892745,
0.04678304239401496,0.010379715351739588,
0.04683291770573566,-0.03231449143205231,
0.04688279301745636,-0.016851362331204392,
0.04693266832917706,-0.015230065423444253,
0.04698254364089775,-0.015019162196169264,
0.047032418952618456,-0.01967775535247933,
0.04708229426433915,-0.014918553370540634,
0.04713216957605985,-0.018307115342121285,
0.04718204488778055,-0.03778212091454633,
0.047231920199501246,-0.022839855871171048,
0.04728179551122195,-0.009728963344671139,
0.047331670822942644,-0.01934222557548621,
0.04738154613466334,-0.012370436459212934,
0.04743142144638404,-0.011420421702897973,
0.04748129675810474,-0.0025333958976265156,
0.047531172069825434,-0.04025549765546691,
0.047581047381546136,-0.005163155287184974,
0.04763092269326683,-0.008247852806412007,
0.047680798004987535,-0.008832258880173608,
0.04773067331670823,-0.021451907975168504,
0.047780548628428926,0.015608837769536057,
0.04783042394014963,0.0071196547085716315,
0.047880299251870324,-0.00888250914337384,
0.04793017456359102,-0.0446941929496857,
0.04798004987531172,-0.01995089445730248,
0.04802992518703242,-0.028947706424421515,
0.048079800498753114,-0.03792580423305929,
0.04812967581047382,0.008088226230140848,
0.04817955112219451,0.006483227192050628,
0.048229426433915215,-0.008660376077040382,
0.04827930174563591,-0.025349322938351036,
0.048329177057356607,-0.008030990893963873,
0.04837905236907731,-0.019398414331724748,
0.048428927680798005,0.003444037660217763,
0.0484788029925187,-0.017181318485691807,
0.0485286783042394,-0.010572398645201587,
0.0485785536159601,-0.017139928917662,
0.048628428927680795,-0.008505438770288698,
0.0486783042394015,0.02413571374946653,
0.04872817955112219,0.01535250367842927,
0.048778054862842896,-0.00940549275138359,
0.04882793017456359,-0.005971033741500818,
0.04887780548628429,-0.0038533086247712206,
0.04892768079800499,-0.015870302164138466,
0.048977556109725685,-0.03213944438415493,
0.04902743142144638,-0.012711365695880526,
0.049077306733167084,-0.024713926443878213,
0.04912718204488778,-0.010446061444148795,
0.04917705735660848,-0.010690309006982951,
0.04922693266832918,-0.01544526834703052,
0.04927680798004987,-0.0004890369426055925,
0.049326683291770576,-0.027262826435537166,
0.04937655860349127,-0.0028587306953412484,
0.04942643391521197,0.0050608331191915185,
0.04947630922693267,-0.021870912018354557,
0.049526184538653366,-0.03139370918498018,
0.04957605985037406,-0.028880681685652592,
0.049625935162094764,-0.037154731914445085,
0.04967581047381546,-0.005172356625918938,
0.04972568578553616,-0.002222991812629251,
0.04977556109725686,-0.04838825998370412,
0.049825436408977554,-0.0008661221278447161,
0.04987531172069826,-0.025953583722169625,
0.04992518703241895,-0.04220925081072613,
0.04997506234413965,0.00638288307046099,
0.05002493765586035,-0.019395537470393385,
0.050074812967581046,0.013464484340219695,
0.05012468827930175,-0.020926953887241893,
0.050174563591022445,0.0054942411104736515,
0.05022443890274314,-0.03459747912441061,
0.05027431421446384,-0.014302925324441074,
0.05032418952618454,0.003781240777259963,
0.050374064837905234,-0.03172633143940727,
0.05042394014962594,-0.00929411147557424,
0.05047381546134663,-0.006822669895097671,
0.05052369077306733,0.005444600037494213,
0.05057356608478803,0.0035042127667155327,
0.05062344139650873,-0.005405694927816684,
0.05067331670822943,-0.014510318399016002,
0.050723192019950125,0.013663707454601978,
0.05077306733167082,0.010879080305903455,
0.050822942643391524,-0.023113198810728534,
0.05087281795511222,0.0020615289669897677,
0.050922693266832915,-0.015388685331370215,
0.05097256857855362,-0.013763602124907794,
0.05102244389027431,-0.026189713965678717,
0.051072319201995016,-0.015598235619330691,
0.05112219451371571,-0.03440915323232739,
0.05117206982543641,-0.02873379742883253,
0.05122194513715711,-0.003250870964554467,
0.051271820448877806,-0.0004016377584069482,
0.0513216957605985,-0.015030143241631927,
0.051371571072319204,-0.012615409507123558,
0.0514214463840399,-0.02737750147989851,
0.051471321695760595,0.020372755580127105,
0.0515211970074813,0.0011433319307668308,
0.051571072319201994,0.005944689952436976,
0.051620947630922696,-0.0006376998799994676,
0.05167082294264339,-0.03053250710931308,
0.05172069825436409,-0.013209159024213194,
0.05177057356608479,-0.019870868442270435,
0.051820448877805486,-0.013340695641301213,
0.05187032418952618,-0.015699507922732857,
0.051920199501246884,0.001845375941799239,
0.05197007481296758,-0.024308233167439786,
0.052019950124688276,-0.01991377588412451,
0.05206982543640898,-0.037252705804794284,
0.052119700748129674,-0.008086144231771092,
0.05216957605985038,-0.0044130223595922995,
0.05221945137157107,0.0029590060758715835,
0.05226932668329177,0.013756357505302992,
0.05231920199501247,0.005767540873226316,
0.05236907730673317,0.002006253233287559,
0.05241895261845386,0.00016014561485401708,
0.052468827930174565,0.0021080777138180566,
0.05251870324189526,0.0036441537288216946,
0.05256857855361596,0.01051609273726185,
0.05261845386533666,-0.004529915304637536,
0.052668329177057355,-0.011864736367376335,
0.05271820448877806,0.008260011858372055,
0.05276807980049875,-0.01717148699054104,
0.05281795511221945,0.0003544981111223708,
0.05286783042394015,-0.0083762957990364,
0.05291770573566085,0.005270629544659523,
0.05296758104738154,-0.006793645389438375,
0.053017456359102245,-0.002555918872506342,
0.05306733167082294,-0.004059893832432333,
0.053117206982543644,-0.003854034421102788,
0.05316708229426434,0.009091241963441132,
0.053216957605985035,-0.026117724667955373,
0.05326683291770574,-0.01337297635272848,
0.053316708229426434,-0.011246536898000075,
0.05336658354114713,0.0003595653142827891,
0.05341645885286783,-0.033412574291950506,
0.05346633416458853,-0.02305986701076393,
0.05351620947630923,0.003395862174764449,
0.053566084788029926,-0.02207808862635873,
0.05361596009975062,-0.024508878725928614,
0.053665835411471324,0.006518181884358932,
0.05371571072319202,-0.027425778638259048,
0.053765586034912716,-0.020206469033279304,
0.05381546134663342,-0.005298797310749386,
0.053865336658354114,-0.01677154861249677,
0.05391521197007481,-0.009768513599666061,
0.05396508728179551,-0.01076385148986746,
0.05401496259351621,-0.0009881639537254131,
0.05406483790523691,0.023657340033791316,
0.054114713216957606,0.007409707952619944,
0.0541645885286783,0.022780148763382066,
0.054214463840399005,-0.003522897797254767,
0.0542643391521197,-0.021178038036222792,
0.054314214463840396,0.02078741940381678,
0.0543640897755611,0.0033111878219248872,
0.054413965087281795,0.028932373961346392,
0.0544638403990025,0.013793104412437793,
0.05451371571072319,-0.008765271739960917,
0.05456359102244389,0.03577927907149824,
0.05461346633416459,0.013523487375523986,
0.05466334164588529,-0.016200730596253474,
0.05471321695760598,0.014218463139583137,
0.054763092269326685,-0.009434014342459052,
0.05481296758104738,0.012822398634022528,
0.05486284289276808,-0.015257903489114523,
0.05491271820448878,0.012780832467845886,
0.054962593516209475,0.019600126148496516,
0.05501246882793018,-0.01588498253073469,
0.05506234413965087,0.032240792925551556,
0.05511221945137157,0.0010463584354312213,
0.05516209476309227,0.0016137399724310986,
0.05521197007481297,-0.0004725382974683926,
0.05526184538653366,0.0035542058055886483,
0.055311720698254366,0.02800011617670881,
0.05536159600997506,0.008072951920435762,
0.05541147132169576,0.01850812374755042,
0.05546134663341646,-0.0038973866727481116,
0.055511221945137156,0.0306332756878544,
0.05556109725685786,0.010690904645498302,
0.055610972568578554,0.003543281144165142,
0.05566084788029925,0.009496892093896987,
0.05571072319201995,0.0077494027274731155,
0.05576059850374065,0.00500973970517695,
0.055810473815461344,-0.0022713141152422185,
0.055860349127182046,0.008820448043462312,
0.05591022443890274,0.01973899053041547,
0.055960099750623445,0.017139102813415078,
0.05600997506234414,0.01633711303957374,
0.056059850374064836,0.02219312097622132,
0.05610972568578554,0.008642858446761131,
0.056159600997506234,0.03995878019486922,
0.05620947630922693,0.017761473232927587,
0.05625935162094763,0.028559183643881342,
0.05630922693266833,0.028860279750638134,
0.056359102244389024,0.009069110323686383,
0.05640897755610973,0.002457216023631449,
0.05645885286783042,-0.0018009095239705994,
0.056508728179551125,0.0006415296538716565,
0.05655860349127182,0.0020635334986491213,
0.056608478802992516,0.035094939508472464,
0.05665835411471322,0.028749650590282037,
0.056708229426433915,0.02142280163688886,
0.05675810473815461,0.0348593887308833,
0.05680798004987531,0.03708177613659634,
0.05685785536159601,0.01977935628883383,
0.05690773067331671,0.023369211054874606,
0.05695760598503741,0.0504979557066901,
0.0570074812967581,-0.012377239346439181,
0.057057356608478806,0.004394808208001347,
0.0571072319201995,0.027980275308964717,
0.0571571072319202,-0.005573917544633728,
0.0572069825436409,0.02866405779884274,
0.057256857855361595,0.03584885662716461,
0.05730673316708229,0.014775502289346487,
0.057356608478802994,0.007211650246802209,
0.05740648379052369,-0.0052290593697149855,
0.05745635910224439,0.024685303759966512,
0.05750623441396509,0.025694785061888572,
0.05755610972568578,0.03366623654415877,
0.057605985037406486,0.027384142029414953,
0.05765586034912718,0.013068193615814112,
0.05770573566084788,0.029935918902769393,
0.05775561097256858,0.0076458035953046715,
0.057805486284289276,0.02141016116262289,
0.05785536159600998,0.03896991358336069,
0.057905236907730674,0.051257212681361686,
0.05795511221945137,0.03369604182845526,
0.05800498753117207,0.020068431005215326,
0.05805486284289277,0.018647077824199443,
0.058104738154613464,0.008023010014653989,
0.05815461346633417,0.033746121966268874,
0.05820448877805486,0.037301140986053666,
0.05825436408977556,0.04591130880856439,
0.05830423940149626,0.03989637637929846,
0.058354114713216956,-0.0058172961662376135,
0.05840399002493766,0.03929107081990109,
0.058453865336658355,0.03059956666016206,
0.05850374064837905,0.034999199691925165,
0.05855361596009975,-0.00642567542339207,
0.05860349127182045,0.024156022360790036,
0.058653366583541144,0.03318185249180317,
0.05870324189526185,0.04104826800368234,
0.05875311720698254,0.017490281927156945,
0.05880299251870324,0.028736113355630196,
0.05885286783042394,0.015026174522037082,
0.05890274314214464,0.011081113597740527,
0.05895261845386534,0.009052153940781382,
0.059002493765586035,0.015794577529726055,
0.05905236907730673,0.04022234790463697,
0.059102244389027433,0.02558569560744659,
0.05915211970074813,0.008095754688728956,
0.059201995012468825,0.01949760530838236,
0.05925187032418953,0.044549101583398136,
0.05930174563591022,0.025584221656805375,
0.059351620947630926,0.021977897226252482,
0.05940149625935162,0.01651462551120179,
0.05945137157107232,0.008965368656611444,
0.05950124688279302,0.02970554427506121,
0.059551122194513716,0.0364336583093222,
0.05960099750623441,0.011166239586420306,
0.059650872817955114,0.0226220854036755,
0.05970074812967581,0.00884126068470234,
0.059750623441396505,0.028271352121200986,
0.05980049875311721,0.017662536647876415,
0.059850374064837904,-0.012981956327926657,
0.059900249376558606,0.024093345475434857,
0.0599501246882793,0.007583039435091688,
0.06,0.024049187430518693,
0.0600498753117207,0.022807222963400643,
0.060099750623441396,0.0450519390233814,
0.06014962593516209,0.04276362017285683,
0.060199501246882794,0.02865109119720617,
0.06024937655860349,0.031342934009436246,
0.06029925187032419,0.023615861675938613,
0.06034912718204489,0.03017526441935016,
0.060399002493765584,0.0215550789944929,
0.06044887780548629,0.05754197371179023,
0.06049875311720698,0.03904719558702939,
0.06054862842892768,-0.003093762111981719,
0.06059850374064838,-0.0018348488857096827,
0.06064837905236908,0.02459754357895258,
0.06069825436408977,0.05211487561874555,
0.060748129675810475,0.05278689701743504,
0.06079800498753117,0.06051719524756365,
0.06084788029925187,0.01460038603150634,
0.06089775561097257,0.031026027821974674,
0.060947630922693265,0.01608191360196799,
0.06099750623441397,0.03754947340795385,
0.06104738154613466,0.024785245542139317,
0.06109725685785536,-0.013704658245397718,
0.06114713216957606,0.013707767601550873,
0.06119700748129676,0.020718927690655427,
0.06124688279301746,-0.0006532356616858019,
0.061296758104738155,0.0021749336105239617,
0.06134663341645885,-0.0007188547998355603,
0.061396508728179554,0.019366629602940846,
0.06144638403990025,0.00914041718453971,
0.061496259351620945,0.03190797262486908,
0.06154613466334165,-0.010529167463522365,
0.061596009975062344,0.021689673333053865,
0.06164588528678304,0.0038704505107316385,
0.06169576059850374,0.04305977539071699,
0.06174563591022444,0.03230573884665908,
0.06179551122194514,0.02089250505252931,
0.061845386533665836,0.017233719421250713,
0.06189526184538653,0.04790254797800311,
0.061945137157107234,0.021156048527421374,
0.06199501246882793,0.020058532797602942,
0.062044887780548626,0.023746390787207746,
0.06209476309226933,0.03251070201802544,
0.062144638403990024,-0.0025808013985720406,
0.06219451371571072,0.03615381868721483,
0.06224438902743142,0.00427591747436548,
0.06229426433915212,0.0026652956217446747,
0.06234413965087282,0.017342273678407683,
0.062394014962593516,0.025402311147152867,
0.06244389027431421,0.027765789886135546,
0.062493765586034915,0.04933806520287512,
0.06254364089775562,0.03246741675701547,
0.06259351620947631,0.018018009084492866,
0.06264339152119701,0.032126889851461525,
0.0626932668329177,0.02862634016398857,
0.0627431421446384,0.022102095352933494,
0.0627930174563591,0.009627311473792543,
0.0628428927680798,-0.01261800560924969,
0.0628927680798005,0.018141047313235063,
0.0629426433915212,0.02331568497072086,
0.06299251870324189,0.02838532536815588,
0.06304239401496259,0.006439195838623299,
0.0630922693266833,0.028029321775707543,
0.063142144638404,0.011627345417321081,
0.06319201995012469,0.013296045616424255,
0.06324189526184539,-0.0023948304515690223,
0.06329177057356608,0.022353110067465584,
0.06334164588528678,0.0026068201833711214,
0.06339152119700749,0.02169602735464809,
0.06344139650872818,0.019268377720516098,
0.06349127182044888,0.00857772617308272,
0.06354114713216957,0.01408259756475351,
0.06359102244389027,0.003906868885123084,
0.06364089775561098,0.027217873228903268,
0.06369077306733167,0.022807588603907407,
0.06374064837905237,-0.024470969135601508,
0.06379052369077307,0.016406001290028543,
0.06384039900249376,0.022593459273255748,
0.06389027431421446,0.010681267213634984,
0.06394014962593517,-0.004073664594302813,
0.06399002493765586,0.006554580901369499,
0.06403990024937656,0.024051491597269485,
0.06408977556109725,0.024237470751421207,
0.06413965087281795,-0.03586589311978191,
0.06418952618453866,-0.02547644893134148,
0.06423940149625935,0.0015492361666164921,
0.06428927680798005,0.006250954128997432,
0.06433915211970075,0.0167065323011081,
0.06438902743142144,-0.011753001482494096,
0.06443890274314215,-0.0015964273456872454,
0.06448877805486285,0.0020533690003073177,
0.06453865336658354,-0.004335640564484039,
0.06458852867830424,0.009843686489637333,
0.06463840399002493,0.013676704648038353,
0.06468827930174563,0.009385999305469524,
0.06473815461346634,-0.007111580434968538,
0.06478802992518704,0.006031447993624351,
0.06483790523690773,0.004521009998365251,
0.06488778054862843,0.00019616457441150054,
0.06493765586034912,-0.019470942679394754,
0.06498753117206983,0.01456141490930713,
0.06503740648379053,0.0006212785020627996,
0.06508728179551122,0.0035064582171899766,
0.06513715710723192,0.011133868572661364,
0.06518703241895261,-0.020234754839654562,
0.06523690773067331,-0.031194856752531374,
0.06528678304239402,-0.011776997010822191,
0.06533665835411472,-0.02044300406276206,
0.06538653366583541,-0.006893446899226668,
0.06543640897755611,0.009651275303743396,
0.0654862842892768,-0.0012125536003219858,
0.06553615960099751,-0.013685286118714841,
0.06558603491271821,-0.0036193543354658872,
0.0656359102244389,-0.0025268487148433654,
0.0656857855361596,-0.011081755200805048,
0.0657356608478803,0.004372718088071428,
0.06578553615960099,0.02020148707070598,
0.0658354114713217,0.013647445457012922,
0.0658852867830424,0.004247244198808202,
0.06593516209476309,0.0005241216000044296,
0.06598503740648379,-0.012269579408440832,
0.06603491271820448,-0.016137118698650768,
0.06608478802992519,0.01736730735587389,
0.06613466334164589,0.011069699799449996,
0.06618453865336658,-0.007941426094292426,
0.06623441396508728,0.014271327830890867,
0.06628428927680798,0.008037248116395354,
0.06633416458852869,-0.006402506504114924,
0.06638403990024938,-0.012658558053646882,
0.06643391521197008,-0.024374409719180406,
0.06648379052369077,-0.0018084230410011972,
0.06653366583541147,-0.011185674580986727,
0.06658354114713216,-0.015076178909979188,
0.06663341645885287,0.027598708717038675,
0.06668329177057357,-0.007333079471655455,
0.06673316708229426,-0.025549635578568743,
0.06678304239401496,-0.005262267814343835,
0.06683291770573566,-0.01830780054960189,
0.06688279301745637,-0.027058627079055812,
0.06693266832917706,-0.023436224431472103,
0.06698254364089776,-0.040769319976622226,
0.06703241895261845,-0.015062553460385044,
0.06708229426433915,-0.027817527185800474,
0.06713216957605984,-0.016344173820864803,
0.06718204488778055,-0.0076701538636093055,
0.06723192019950125,-0.012942834339182632,
0.06728179551122195,-6.582697820412854e-05,
0.06733167082294264,-0.005137832639816656,
0.06738154613466334,0.016510273774948042,
0.06743142144638405,-0.02841599030460531,
0.06748129675810474,0.011337684281860279,
0.06753117206982544,-0.007317728343820197,
0.06758104738154613,-0.02375151760524438,
0.06763092269326683,-0.007981622221143483,
0.06768079800498752,0.008096041378719247,
0.06773067331670823,0.02764030718097462,
0.06778054862842893,-0.0009899147427158712,
0.06783042394014963,-0.03180322321537439,
0.06788029925187032,0.009923858317019396,
0.06793017456359102,-0.009247919508064566,
0.06798004987531173,0.0014981520061600542,
0.06802992518703242,-0.024961019886600523,
0.06807980049875312,-0.027637333899608346,
0.06812967581047381,-0.00467328354397536,
0.06817955112219451,-0.07085146976745604,
0.0682294264339152,-0.0145961809280716,
0.06827930174563591,-0.029531076789088798,
0.06832917705735661,-0.0067445386260011776,
0.0683790523690773,-0.02368288663005367,
0.068428927680798,-0.015122057135273068,
0.0684788029925187,-0.011001920421480606,
0.06852867830423941,0.004583504677081749,
0.0685785536159601,-0.01691329015557956,
0.0686284289276808,0.008612426767889135,
0.0686783042394015,-0.019874047588951706,
0.06872817955112219,-0.020004517719114025,
0.0687780548628429,-0.03929540783160988,
0.0688279301745636,-0.03250666954116832,
0.06887780548628429,-0.026952479915989418,
0.06892768079800499,0.018211536370004125,
0.06897755610972568,-0.046017650165228234,
0.06902743142144638,-0.01676706606420237,
0.06907730673316709,-0.016734584931326513,
0.06912718204488778,-0.004849442994124145,
0.06917705735660848,-0.010490779377084376,
0.06922693266832917,-0.016965818676095278,
0.06927680798004987,-0.0004363974273538934,
0.06932668329177058,-0.030821456374381006,
0.06937655860349128,-0.023132693558834176,
0.06942643391521197,-0.01931112003583399,
0.06947630922693267,-0.015861490775699663,
0.06952618453865336,0.01172132981158967,
0.06957605985037406,-0.0005039854181690066,
0.06962593516209477,-0.004629747951619443,
0.06967581047381546,-0.0070525504163660825,
0.06972568578553616,0.0008021313841957301,
0.06977556109725686,-0.014095213200308057,
0.06982543640897755,-0.01306786390228315,
0.06987531172069826,0.0037264454752907877,
0.06992518703241896,0.001028247089850061,
0.06997506234413965,-0.028616472153763586,
0.07002493765586035,-0.01484573401993068,
0.07007481296758104,-0.0262499379939821,
0.07012468827930174,-0.015851781180390448,
0.07017456359102245,-0.04356938768900877,
0.07022443890274314,0.007338547186944995,
0.07027431421446384,-0.022900338231013725,
0.07032418952618454,-0.01863149674514111,
0.07037406483790523,-0.014518644085828421,
0.07042394014962594,0.0072961234603712115,
0.07047381546134664,-0.025128931110777755,
0.07052369077306733,-0.025550160211172773,
0.07057356608478803,-0.025952852904550412,
0.07062344139650872,-0.005460944637571323,
0.07067331670822943,-0.007998154004969223,
0.07072319201995013,-0.035424799571519644,
0.07077306733167082,-0.02439268033068955,
0.07082294264339152,-0.027822002049280967,
0.07087281795511222,0.003941133446089692,
0.07092269326683291,-0.028700225888351274,
0.07097256857855362,-0.015569225991603111,
0.07102244389027432,-0.01474974780920698,
0.07107231920199501,-0.021145429298356513,
0.07112219451371571,4.0783560402973124e-05,
0.0711720698254364,-0.01954011335161069,
0.07122194513715711,0.003620298088000448,
0.07127182044887781,-0.01375111374682491,
0.0713216957605985,-0.003942056670856625,
0.0713715710723192,-0.014803373655664087,
0.0714214463840399,-0.02961421414207834,
0.07147132169576059,-0.002098941659432056,
0.0715211970074813,0.017224059545786097,
0.071571072319202,-0.028297130649604634,
0.0716209476309227,-0.0040164607464959765,
0.07167082294264339,0.0004540899686510426,
0.07172069825436408,-0.026131120727614462,
0.0717705735660848,-0.010307643333589632,
0.07182044887780549,-0.0035748062586905445,
0.07187032418952619,0.007831777866260742,
0.07192019950124688,0.002137019843405554,
0.07197007481296758,-0.01663206039607672,
0.07201995012468827,-0.0031052468993982485,
0.07206982543640898,-0.00249915894136973,
0.07211970074812968,-0.00012687770100809626,
0.07216957605985037,-0.025329071757949243,
0.07221945137157107,-0.027383150197626945,
0.07226932668329177,0.007111897501405787,
0.07231920199501247,-0.011519402666663518,
0.07236907730673317,-0.010401240449099892,
0.07241895261845387,0.001302469391169468,
0.07246882793017456,-0.01689094707544081,
0.07251870324189526,-0.012419093239515068,
0.07256857855361595,0.007352145609462126,
0.07261845386533666,-0.012868689109074464,
0.07266832917705736,-0.019262122706112127,
0.07271820448877805,-0.00928763222640247,
0.07276807980049875,6.776173993807907e-05,
0.07281795511221945,0.0038687188113410544,
0.07286783042394016,0.004682736068346639,
0.07291770573566085,-0.019624633869311913,
0.07296758104738155,0.0011055033711810797,
0.07301745635910224,0.008148705648449314,
0.07306733167082294,-0.007724573760316709,
0.07311720698254365,-0.0009296268322049081,
0.07316708229426434,-0.018458826544593146,
0.07321695760598504,-0.010106120131129576,
0.07326683291770573,-0.009631613439628062,
0.07331670822942643,0.0005208617534068405,
0.07336658354114713,-0.015400550457901297,
0.07341645885286784,-0.024873402216200206,
0.07346633416458853,0.014821648785679972,
0.07351620947630923,0.00222043734149589,
0.07356608478802992,-0.01005783685994578,
0.07361596009975062,-0.021983114326772402,
0.07366583541147133,0.034370539374291534,
0.07371571072319202,-0.017013398361628615,
0.07376558603491272,-0.0025339028208691706,
0.07381546134663342,-0.010692659961314598,
0.07386533665835411,0.0006815921615006376,
0.0739152119700748,-0.001344068084504266,
0.07396508728179552,0.010537323910198296,
0.07401496259351621,0.013628247144372323,
0.07406483790523691,6.861093047104698e-05,
0.0741147132169576,0.009976800794897305,
0.0741645885286783,-0.002644454089754179,
0.07421446384039901,-0.0004148417355156215,
0.0742643391521197,0.017715170364772603,
0.0743142144638404,-0.017180146729453005,
0.0743640897755611,-0.0010235874801115784,
0.07441396508728179,-0.0007033457052821298,
0.07446384039900249,0.019854201998837584,
0.0745137157107232,-0.009113627862592785,
0.07456359102244389,-0.011806666242242855,
0.07461346633416459,0.0020374533633040507,
0.07466334164588528,-0.00784497595713332,
0.07471321695760598,-0.005932776231350339,
0.07476309226932669,-0.0017639250393919371,
0.07481296758104738,0.007337739955780848,
0.07486284289276808,0.014682760682550174,
0.07491271820448878,-0.003918188227778375,
0.07496259351620947,0.014136881274703883,
0.07501246882793017,-0.01246409664353981,
0.07506234413965088,-0.007832560200825112,
0.07511221945137157,0.035046028257697134,
0.07516209476309227,0.005594014321439648,
0.07521197007481296,0.007200597396528412,
0.07526184538653366,0.020158270372060416,
0.07531172069825437,-0.031349851938020964,
0.07536159600997507,0.023494808007840817,
0.07541147132169576,0.024549742276124463,
0.07546134663341646,-0.013622054615699746,
0.07551122194513715,0.009745782272809658,
0.07556109725685786,0.0011300999604589301,
0.07561097256857856,0.0016561646725841827,
0.07566084788029925,0.017301248660795913,
0.07571072319201995,-0.012314000302745662,
0.07576059850374064,-0.001935822645301774,
0.07581047381546134,0.02726051568358555,
0.07586034912718205,-0.007243135757926185,
0.07591022443890275,0.027059319608982682,
0.07596009975062344,-0.010316950786038604,
0.07600997506234414,0.012644339823982092,
0.07605985037406483,0.0007281060621043816,
0.07610972568578554,-0.0004819393356249469,
0.07615960099750624,0.027443409059056977,
0.07620947630922693,0.018687358683064217,
0.07625935162094763,0.024693657584314712,
0.07630922693266833,0.012270721901227521,
0.07635910224438902,0.046522121327820895,
0.07640897755610973,0.03386569130461974,
0.07645885286783043,0.001282480192438134,
0.07650872817955112,-0.0037781921372238604,
0.07655860349127182,0.02636764105586796,
0.07660847880299251,-0.005060695139664947,
0.07665835411471322,0.01317212548059279,
0.07670822942643392,0.013190408218148,
0.07675810473815461,0.008367945382843925,
0.07680798004987531,0.015296854189285742,
0.076857855361596,0.008739760077412128,
0.0769077306733167,0.01715028061318808,
0.07695760598503741,0.042254625786653066,
0.0770074812967581,0.025365972725362253,
0.0770573566084788,0.01160584008916829,
0.0771072319201995,-0.007207761432221488,
0.0771571072319202,-0.0010904837001627157,
0.0772069825436409,0.019207689179036518,
0.0772568578553616,0.015301305118697279,
0.0773067331670823,0.024705923686474663,
0.07735660847880299,0.03459868036444548,
0.07740648379052369,0.026301290615345807,
0.0774563591022444,0.03216720710549474,
0.07750623441396509,0.019633419445542637,
0.07755610972568579,0.045084855271009014,
0.07760598503740648,0.06427719199517729,
0.07765586034912718,0.016350145460384026,
0.07770573566084787,0.013808460303469479,
0.07775561097256858,0.017134935751678626,
0.07780548628428928,0.026328809642851114,
0.07785536159600998,0.04403250807565783,
0.07790523690773067,0.01803325610128268,
0.07795511221945137,0.026458544437682037,
0.07800498753117208,0.02360016878227328,
0.07805486284289277,0.04235779290502642,
0.07810473815461347,0.015828937038721617,
0.07815461346633416,0.003623132244402222,
0.07820448877805486,-0.01672534501814452,
0.07825436408977555,0.02708497912085093,
0.07830423940149626,0.03632600823408986,
0.07835411471321696,0.03710968078167458,
0.07840399002493766,0.047049858569980244,
0.07845386533665835,0.0204256463119742,
0.07850374064837905,0.03927212776794078,
0.07855361596009976,0.02738926798310799,
0.07860349127182045,0.013052391477532335,
0.07865336658354115,0.04111662070099392,
0.07870324189526184,0.002242876632845024,
0.07875311720698254,0.014837271661756463,
0.07880299251870324,0.02892107085530716,
0.07885286783042394,0.015313954837462536,
0.07890274314214464,0.003151298760474111,
0.07895261845386534,0.03814870286982922,
0.07900249376558603,0.0048547606982913515,
0.07905236907730673,0.04414265968530789,
0.07910224438902744,0.018603912119676668,
0.07915211970074813,0.014522131719435746,
0.07920199501246883,0.026562768859500284,
0.07925187032418952,0.0257798000261301,
0.07930174563591022,0.04260477202922559,
0.07935162094763092,0.028986141272618327,
0.07940149625935163,0.043417051416764316,
0.07945137157107232,0.025759578828671807,
0.07950124688279302,0.04274715622581376,
0.07955112219451371,0.04204431478825725,
0.07960099750623441,0.012742528699232083,
0.07965087281795512,0.035820280770378354,
0.07970074812967581,0.042771310205316965,
0.07975062344139651,0.012358053295160173,
0.0798004987531172,0.03336341033770373,
0.0798503740648379,0.02235201217031568,
0.07990024937655861,0.041787117022823464,
0.0799501246882793,0.01253339908263992,
0.08,0.04495214218145305,
0.0800498753117207,0.024925296009738133,
0.0800997506234414,0.03499700089995664,
0.08014962593516209,0.03939528313171387,
0.0801995012468828,0.029862350333423358,
0.0802493765586035,0.030815251293557864,
0.08029925187032419,0.0366570434953628,
0.08034912718204489,0.04780081219108612,
0.08039900249376558,0.03556463903811796,
0.08044887780548629,0.04246977480077692,
0.08049875311720699,0.0047563132961779934,
0.08054862842892768,0.009012017940721161,
0.08059850374064838,0.024391676299525232,
0.08064837905236907,0.019899454369854606,
0.08069825436408977,0.029303840802894908,
0.08074812967581048,0.048151202954302745,
0.08079800498753117,0.018648679688389277,
0.08084788029925187,0.022565896622363302,
0.08089775561097257,0.06500907076776821,
0.08094763092269326,0.025157113445737574,
0.08099750623441397,0.0279429336093105,
0.08104738154613467,0.05665470301921686,
0.08109725685785536,0.033563016195818245,
0.08114713216957606,0.05319222372664856,
0.08119700748129675,0.03261280673245645,
0.08124688279301745,0.022797072097774,
0.08129675810473816,0.032775216883956515,
0.08134663341645886,0.04381697897290861,
0.08139650872817955,0.032247795492436004,
0.08144638403990025,0.034713404168599436,
0.08149625935162094,0.03311013913197501,
0.08154613466334165,-0.0017961503429468652,
0.08159600997506235,0.028649385831549558,
0.08164588528678304,0.0018452313877905038,
0.08169576059850374,0.039019522505361406,
0.08174563591022443,-0.002587442469870846,
0.08179551122194513,0.0042368737465354675,
0.08184538653366584,0.033878389152039085,
0.08189526184538654,0.03386993168014136,
0.08194513715710723,0.016825616305345768,
0.08199501246882793,0.031570190383681,
0.08204488778054862,0.04741243342956657,
0.08209476309226933,0.021923935870846508,
0.08214463840399003,0.018906473655329454,
0.08219451371571072,0.00901958248297477,
0.08224438902743142,0.015749337517449395,
0.08229426433915212,0.032219215655349805,
0.08234413965087282,0.006400847746278936,
0.08239401496259352,0.005093386630142435,
0.08244389027431422,0.006045592958312784,
0.08249376558603491,0.012156238809733193,
0.08254364089775561,0.01222441889492562,
0.0825935162094763,0.023735108431067485,
0.08264339152119701,0.01583088312466617,
0.08269326683291771,0.013246617313061962,
0.0827431421446384,0.03168987460382103,
0.0827930174563591,0.04953790462503499,
0.0828428927680798,0.009871554617810524,
0.0828927680798005,0.015178073538805709,
0.0829426433915212,0.01581061710978008,
0.0829925187032419,0.006808470024341666,
0.08304239401496259,0.035757331364510085,
0.08309226932668329,0.03851140216736974,
0.08314214463840398,0.02253863168311304,
0.0831920199501247,0.005378427349964998,
0.08324189526184539,0.04011625876868857,
0.08329177057356608,0.043080045465912806,
0.08334164588528678,0.0022924127838546797,
0.08339152119700748,0.00987822795478801,
0.08344139650872819,-0.02037572836243296,
0.08349127182044888,-0.014066775460280097,
0.08354114713216958,0.019234960640710785,
0.08359102244389027,-0.008794920960657919,
0.08364089775561097,0.0196636956608807,
0.08369077306733166,0.011442475970240739,
0.08374064837905237,-0.012640539272378216,
0.08379052369077307,0.01975357824559328,
0.08384039900249377,-0.010214461158038979,
0.08389027431421446,0.019290858729222794,
0.08394014962593516,0.03984272072074088,
0.08399002493765587,0.013765625130322454,
0.08403990024937656,0.01769706304487758,
0.08408977556109726,0.01943927828733471,
0.08413965087281795,0.002212671660589794,
0.08418952618453865,-0.0027803801797039694,
0.08423940149625936,0.014369019282683283,
0.08428927680798005,0.02112962134579897,
0.08433915211970075,0.013082623174014499,
0.08438902743142145,0.019018957485658135,
0.08443890274314214,0.010502071517532192,
0.08448877805486284,0.0010516718046043585,
0.08453865336658355,0.01653742383464512,
0.08458852867830424,-0.008020092868611235,
0.08463840399002494,0.021576980857893825,
0.08468827930174563,0.02925167398429457,
0.08473815461346633,-0.004290812381115199,
0.08478802992518704,-0.015991342987995632,
0.08483790523690773,0.002110127539626859,
0.08488778054862843,0.005190989388992647,
0.08493765586034913,0.002208271293656217,
0.08498753117206982,-0.00902995916824038,
0.08503740648379052,-0.012743010039090162,
0.08508728179551123,-0.01596587132642089,
0.08513715710723192,0.00132627990395203,
0.08518703241895262,0.0002981941439470577,
0.08523690773067331,-0.011206573428953205,
0.08528678304239401,0.004143309417201098,
0.08533665835411472,-0.01775101723665351,
0.08538653366583542,-0.014218435049373843,
0.08543640897755611,0.007519362028745777,
0.0854862842892768,-0.016022730068125216,
0.0855361596009975,0.014911191931650664,
0.0855860349127182,-0.005724353587610667,
0.08563591022443891,-0.010681205189610677,
0.0856857855361596,0.0014733559220806353,
0.0857356608478803,0.0009283117699951972,
0.085785536159601,-0.01104008383774882,
0.08583541147132169,-0.006629920696585069,
0.0858852867830424,0.008349064679248777,
0.0859351620947631,0.006923546316019461,
0.08598503740648379,0.0026689539382851093,
0.08603491271820449,-0.002952620055904271,
0.08608478802992518,-0.007546738279990396,
0.08613466334164588,0.002703399753669144,
0.08618453865336659,0.00045041791181321634,
0.08623441396508728,-0.0029611196865028527,
0.08628428927680798,-0.043260404727736596,
0.08633416458852868,0.0069219641933721925,
0.08638403990024937,-0.027237129966895278,
0.08643391521197008,-0.007451190286449236,
0.08648379052369078,0.0016078709102689869,
0.08653366583541147,-0.0063954464456163745,
0.08658354114713217,-0.030151284630674728,
0.08663341645885286,-0.00867142897778586,
0.08668329177057357,0.010015025103942268,
0.08673316708229427,-0.04309387805781111,
0.08678304239401496,0.021985041361024433,
0.08683291770573566,0.0082312744750821,
0.08688279301745636,-0.009007840562837552,
0.08693266832917705,0.008319268792781078,
0.08698254364089776,0.006622520461094331,
0.08703241895261846,0.012119651296368904,
0.08708229426433915,1.5920124715073335e-05,
0.08713216957605985,0.0030833790543922804,
0.08718204488778054,0.005856988152360145,
0.08723192019950125,-0.0041369578999406525,
0.08728179551122195,-0.0021409001608644696,
0.08733167082294264,-0.00650208961320043,
0.08738154613466334,-0.012689396690680116,
0.08743142144638404,-0.0063817826774931734,
0.08748129675810473,-0.009319779462831829,
0.08753117206982544,0.003699112110242953,
0.08758104738154614,-0.026129791413518497,
0.08763092269326683,0.009469798660764799,
0.08768079800498753,-0.02664809374020747,
0.08773067331670822,-0.02134084730531966,
0.08778054862842893,-0.021273999041513163,
0.08783042394014963,-0.024185556175736627,
0.08788029925187033,-0.029374225911204917,
0.08793017456359102,-0.01516207175175447,
0.08798004987531172,0.0026616317709498,
0.08802992518703241,-0.032882773230567236,
0.08807980049875312,-0.008081271469893521,
0.08812967581047382,0.0005308811109827286,
0.08817955112219451,0.025718718073491173,
0.08822942643391521,-0.0013406907013422068,
0.0882793017456359,-0.0347585995782305,
0.08832917705735661,-0.01748103502266367,
0.08837905236907731,-0.03403722220281948,
0.088428927680798,-0.02324289982046772,
0.0884788029925187,-0.030129595806651723,
0.0885286783042394,-0.018078743657598727,
0.0885785536159601,-0.012288112181969648,
0.0886284289276808,-0.03884684135355026,
0.0886783042394015,-0.03973674448284499,
0.0887281795511222,0.005706121196899172,
0.08877805486284289,-0.003960510322205306,
0.08882793017456359,-0.009352114062999907,
0.0888778054862843,0.020136889345975635,
0.08892768079800499,-0.025497268953068628,
0.08897755610972569,-0.009199656887776651,
0.08902743142144638,0.007113742313533849,
0.08907730673316708,-0.023704222621100404,
0.08912718204488779,-0.0014563218831233262,
0.08917705735660848,0.0007884201474714775,
0.08922693266832918,-0.014902144103767074,
0.08927680798004987,-0.01639451469810061,
0.08932668329177057,-0.04155189416132813,
0.08937655860349127,-0.0009843709862499585,
0.08942643391521198,-0.01908504733225006,
0.08947630922693267,-0.01289271210279877,
0.08952618453865337,-0.009704657628834273,
0.08957605985037406,-0.03507894151047139,
0.08962593516209476,-0.027212532974383905,
0.08967581047381547,-0.015042749357204786,
0.08972568578553616,-0.021972073424087735,
0.08977556109725686,0.019750543866352277,
0.08982543640897755,-0.005105552374919999,
0.08987531172069825,-0.00898391204478273,
0.08992518703241895,-0.015216767281039783,
0.08997506234413966,0.01622775840974805,
0.09002493765586035,-0.0495331803693551,
0.09007481296758105,-0.021315421314115318,
0.09012468827930174,-0.0076011069895165805,
0.09017456359102244,-0.031170505691521105,
0.09022443890274315,-0.006466099505205866,
0.09027431421446384,-0.016360917415222064,
0.09032418952618454,-0.0071485671982918055,
0.09037406483790524,-0.01960262501061743,
0.09042394014962593,-0.02164504533794986,
0.09047381546134663,-0.03851151912534845,
0.09052369077306734,0.023834998332807687,
0.09057356608478803,0.004301690215063273,
0.09062344139650873,-0.026048322910823644,
0.09067331670822942,0.011758101471919347,
0.09072319201995012,-0.043988023905580126,
0.09077306733167083,-0.005562200208523628,
0.09082294264339152,0.03381085573397939,
0.09087281795511222,-0.014969587311857185,
0.09092269326683292,-0.011263592993051698,
0.09097256857855361,-0.012545514177292872,
0.09102244389027432,-0.011867491915849957,
0.09107231920199502,-0.019240029226176666,
0.09112219451371571,-0.015558185115701373,
0.09117206982543641,-0.02427036780272362,
0.0912219451371571,-0.003493669882146903,
0.0912718204488778,-0.018180297772235232,
0.09132169576059851,-0.011887095813110427,
0.0913715710723192,-0.017330707662135285,
0.0914214463840399,-0.03112938742178461,
0.0914713216957606,-0.011051423864448415,
0.09152119700748129,-0.007294585427388724,
0.091571072319202,-0.030240300162727267,
0.0916209476309227,-0.011131715540983848,
0.09167082294264339,-0.011791941795426104,
0.09172069825436409,-0.021618839748800276,
0.09177057356608478,-0.03375122676946453,
0.09182044887780548,-0.004752243885855845,
0.09187032418952619,-0.005334965595703315,
0.09192019950124689,-0.016780336461949173,
0.09197007481296758,-0.01918625853771265,
0.09201995012468828,0.0027046913738930246,
0.09206982543640897,0.015613671306868736,
0.09211970074812968,-0.0012098130636975573,
0.09216957605985038,-0.015437111088148724,
0.09221945137157107,-0.0026299236058007474,
0.09226932668329177,-0.013137208649157454,
0.09231920199501246,-0.04411542604624889,
0.09236907730673316,-0.003915361383949775,
0.09241895261845387,-0.037619132501200074,
0.09246882793017457,0.015654997941174937,
0.09251870324189526,-0.009725628563510419,
0.09256857855361596,-0.0029674591864027964,
0.09261845386533665,0.0056840765592168834,
0.09266832917705736,0.016555923150096057,
0.09271820448877806,-0.001566526260891583,
0.09276807980049875,0.008669267125415513,
0.09281795511221945,-0.028642186483759678,
0.09286783042394015,0.02800060203652812,
0.09291770573566084,0.01450570260947874,
0.09296758104738155,-0.0005036883496853301,
0.09301745635910225,-0.011686762105679715,
0.09306733167082294,0.018022457850261978,
0.09311720698254364,-0.03706756793567349,
0.09316708229426433,0.03334895408142257,
0.09321695760598504,-0.012159061486281202,
0.09326683291770574,0.013454849357551035,
0.09331670822942643,-0.0002461116982571878,
0.09336658354114713,0.01530953180210198,
0.09341645885286783,0.011490027714335167,
0.09346633416458854,-0.017615437356434893,
0.09351620947630923,-0.014057021695392954,
0.09356608478802993,-0.00021383445376177754,
0.09361596009975062,0.019256553605486414,
0.09366583541147132,-0.016239223530423702,
0.09371571072319201,0.0035457998202917166,
0.09376558603491272,0.020351766126570293,
0.09381546134663342,0.014480443197380292,
0.09386533665835411,-0.02905526561835787,
0.09391521197007481,-0.002990255266317963,
0.0939650872817955,-0.004079760023203254,
0.09401496259351622,0.006979836605409922,
0.09406483790523691,0.012558788508079078,
0.09411471321695761,-0.004888576435304805,
0.0941645885286783,0.019648663517744448,
0.094214463840399,0.016486010005430318,
0.0942643391521197,-0.0035204888390272474,
0.0943142144638404,0.02952519719549293,
0.0943640897755611,0.019891907349987976,
0.0944139650872818,-0.007881022043124434,
0.09446384039900249,0.004624901281770171,
0.09451371571072319,0.030338998307000112,
0.0945635910224439,-0.0022027845149163337,
0.09461346633416459,0.016893017604743772,
0.09466334164588529,-0.006310507155683374,
0.09471321695760598,0.019169016457414666,
0.09476309226932668,0.002437833616429892,
0.09481296758104737,0.015079140727950305,
0.09486284289276808,0.023449447131037117,
0.09491271820448878,0.01139085196810449,
0.09496259351620948,0.014343004316950125,
0.09501246882793017,0.022253946307645073,
0.09506234413965087,0.023017108749540813,
0.09511221945137158,0.0025645915945462106,
0.09516209476309227,0.00855408548081951,
0.09521197007481297,0.014765648900033485,
0.09526184538653366,0.03637751341021495,
0.09531172069825436,-0.0011329985005183053,
0.09536159600997507,-0.000353619677799729,
0.09541147132169576,0.02952915462993654,
0.09546134663341646,0.04194345728004143,
0.09551122194513716,0.03666199472898176,
0.09556109725685785,0.0370120170420009,
0.09561097256857855,-0.0033701897651387137,
0.09566084788029926,0.01628728213126545,
0.09571072319201995,0.012268648339530413,
0.09576059850374065,0.01222873233023614,
0.09581047381546134,0.03564477456086572,
0.09586034912718204,0.008396434767246025,
0.09591022443890275,0.024054266933734837,
0.09596009975062345,0.005411773660445009,
0.09600997506234414,0.01481137032316071,
0.09605985037406484,0.021606556508792507,
0.09610972568578553,0.022999449947388166,
0.09615960099750623,0.0062622256400572205,
0.09620947630922694,0.010588224934979322,
0.09625935162094763,0.021368606387401106,
0.09630922693266833,0.02341149206079724,
0.09635910224438902,0.0455027448710609,
0.09640897755610972,0.018177958976029213,
0.09645885286783043,0.01956345576241484,
0.09650872817955113,0.04745881554541305,
0.09655860349127182,0.03422810839732428,
0.09660847880299252,0.013190574756375823,
0.09665835411471321,0.022513504299619454,
0.09670822942643391,0.02892114763636543,
0.09675810473815462,0.020417632590230366,
0.09680798004987531,0.005974296750491773,
0.09685785536159601,0.027035508341005505,
0.0969077306733167,0.009191935214811053,
0.0969576059850374,0.018976285886567794,
0.09700748129675811,-0.0039055791471230283,
0.0970573566084788,0.010625909704436881,
0.0971072319201995,0.03434596553562337,
0.0971571072319202,0.0036761778954475105,
0.0972069825436409,0.010269708227973802,
0.09725685785536159,0.023042347524650557,
0.0973067331670823,0.024984923964515057,
0.097356608478803,0.034780494032218764,
0.09740648379052369,0.02880269032289299,
0.09745635910224439,0.024600871781715994,
0.09750623441396508,0.03322443114776999,
0.09755610972568579,0.021959106203916702,
0.09760598503740649,0.022621589324244542,
0.09765586034912718,0.011588614840188418,
0.09770573566084788,0.04093993199274942,
0.09775561097256857,0.020050411863755883,
0.09780548628428928,0.011223779499565887,
0.09785536159600998,0.01864777857933638,
0.09790523690773068,0.002205492386861123,
0.09795511221945137,0.007079666352008612,
0.09800498753117207,0.056740177078989096,
0.09805486284289276,0.021593671647473448,
0.09810473815461347,0.03035012526554179,
0.09815461346633417,0.03228925875317906,
0.09820448877805486,0.02179913992478704,
0.09825436408977556,0.014690078349667821,
0.09830423940149625,0.016455020624703998,
0.09835411471321696,0.022553896247226958,
0.09840399002493766,0.08024031607846405,
0.09845386533665836,0.027554923167373842,
0.09850374064837905,0.03597475037141038,
0.09855361596009975,0.022764698215944366,
0.09860349127182044,0.02643630569297803,
0.09865336658354115,0.027943921463180345,
0.09870324189526185,0.005984594764823742,
0.09875311720698254,0.02314577122763091,
0.09880299251870324,0.041726819929263435,
0.09885286783042393,0.048827430827513243,
0.09890274314214464,0.03092850363561092,
0.09895261845386534,0.011970303044046542,
0.09900249376558604,-0.001410887667592977,
0.09905236907730673,0.02160571788788114,
0.09910224438902743,0.04365468945862788,
0.09915211970074812,0.03743233799770447,
0.09920199501246883,0.04235675153922891,
0.09925187032418953,0.06069646456564644,
0.09930174563591022,0.03633054312390106,
0.09935162094763092,0.008115068839746591,
0.09940149625935162,0.044847425610726147,
0.09945137157107233,0.03644104221760401,
0.09950124688279302,0.01981655364466496,
0.09955112219451372,0.048939906716098186,
0.09960099750623441,0.034307404003435085,
0.09965087281795511,0.00849696959730321,
0.0997007481296758,0.023909057316913156,
0.09975062344139651,0.018992862530640028,
0.09980049875311721,0.030647600883118273,
0.0998503740648379,0.006339390906825702,
0.0999002493765586,0.01966964485004035,
0.0999501246882793,0.051097202339559944,
0.1,0.026123475711112197,
0.1000498753117207,0.04818054702670414,
0.1000997506234414,0.024804355234046633,
0.10014962593516209,-0.007932385958640775,
0.10019950124688279,0.038610799487885726,
0.1002493765586035,0.025448521705844347,
0.1002992518703242,0.017869932786427466,
0.10034912718204489,0.029032270771174203,
0.10039900249376559,0.05418689889894779,
0.10044887780548628,0.006967717536585552,
0.10049875311720698,0.012052585707411542,
0.10054862842892769,0.02064104474927854,
0.10059850374064838,0.019213541641299778,
0.10064837905236908,0.009120696450803063,
0.10069825436408977,0.03417828730844886,
0.10074812967581047,0.02335884509187309,
0.10079800498753118,0.03344358472434916,
0.10084788029925187,0.007922798351792975,
0.10089775561097257,0.020610651267370796,
0.10094763092269327,0.01031937133567478,
0.10099750623441396,0.044900632012531874,
0.10104738154613466,0.01341623944342242,
0.10109725685785537,0.0285780000092868,
0.10114713216957606,0.036795865556887485,
0.10119700748129676,0.02947163601436483,
0.10124688279301745,0.031732583053920696,
0.10129675810473815,0.022959574858227062,
0.10134663341645886,0.027114127752995716,
0.10139650872817955,0.018556215018642602,
0.10144638403990025,0.005207698884624263,
0.10149625935162095,0.021425641171374174,
0.10154613466334164,0.029351680276195235,
0.10159600997506234,0.02356930464623561,
0.10164588528678305,0.04443788186834442,
0.10169576059850374,0.010318243095575698,
0.10174563591022444,0.03378218185268686,
0.10179551122194513,-0.01273393325131019,
0.10184538653366583,0.032516533024158786,
0.10189526184538654,0.041827654747062015,
0.10194513715710724,0.036627948333737684,
0.10199501246882793,0.021523680366397548,
0.10204488778054863,0.04237231310969889,
0.10209476309226932,0.012428560451725423,
0.10214463840399003,0.0574328362189004,
0.10219451371571073,-0.005148356712559244,
0.10224438902743142,0.00661278293297393,
0.10229426433915212,0.033691119031616645,
0.10234413965087281,0.021638150979839527,
0.10239401496259351,0.023721330531809217,
0.10244389027431422,0.047220797449834956,
0.10249376558603492,0.01676832888973277,
0.10254364089775561,0.01341265833624488,
0.10259351620947631,0.00016116558812061255,
0.102643391521197,-0.005782577420125907,
0.10269326683291771,0.03970350452346785,
0.10274314214463841,0.006056243566605838,
0.1027930174563591,0.026624350079185365,
0.1028428927680798,0.014560875189680682,
0.1028927680798005,0.0065584594079702956,
0.10294264339152119,0.008630469244035967,
0.1029925187032419,0.00885364228659508,
0.1030423940149626,-0.005323686071792132,
0.10309226932668329,0.009971876908630687,
0.10314214463840399,0.04076161841140382,
0.10319201995012468,0.013238727630188164,
0.10324189526184539,6.8164753334779e-05,
0.10329177057356609,0.01464917770808315,
0.10334164588528678,0.0062741212188089646,
0.10339152119700748,-0.0009118904096807497,
0.10344139650872818,0.026114703544698366,
0.10349127182044887,0.009040158432787396,
0.10354114713216958,-0.0033038525825808338,
0.10359102244389028,-0.013723784696309946,
0.10364089775561097,0.025536668559223916,
0.10369077306733167,0.05331151012581654,
0.10374064837905236,0.0014794483653180514,
0.10379052369077307,0.005210015071640473,
0.10384039900249377,0.010064528817158637,
0.10389027431421446,0.03242765908171644,
0.10394014962593516,0.012002702719187679,
0.10399002493765586,0.004868537843666728,
0.10403990024937655,0.006030289444985156,
0.10408977556109726,0.0058972631203721305,
0.10413965087281796,0.02510001554679253,
0.10418952618453865,0.01677465171227753,
0.10423940149625935,-0.01181267459259422,
0.10428927680798004,0.012926175447960585,
0.10433915211970075,0.014997376085064051,
0.10438902743142145,-0.002297065552482219,
0.10443890274314215,0.017059430324321556,
0.10448877805486284,0.03125093389968697,
0.10453865336658354,-0.0018075388745399101,
0.10458852867830425,0.01664730592859592,
0.10463840399002494,-0.02019834319373668,
0.10468827930174564,-0.010590246049312902,
0.10473815461346633,0.00461158589346615,
0.10478802992518703,-0.004773138605609669,
0.10483790523690772,0.043413221952281394,
0.10488778054862843,0.011325036483520843,
0.10493765586034913,0.025082061557118344,
0.10498753117206983,0.005107281563977658,
0.10503740648379052,-0.012730943308033262,
0.10508728179551122,0.008847601903730611,
0.10513715710723193,0.015752542770497032,
0.10518703241895262,-0.0010376026440808367,
0.10523690773067332,0.0025336416183546874,
0.10528678304239401,-0.008821296125705345,
0.10533665835411471,0.01821411568767884,
0.1053865336658354,-0.004372370717326882,
0.10543640897755611,0.023140807620794426,
0.10548628428927681,-0.006459370697783416,
0.1055361596009975,-0.007902872509368383,
0.1055860349127182,0.0334817828266207,
0.1056359102244389,-0.0010955781287257053,
0.10568578553615961,0.006010366349307954,
0.1057356608478803,-0.00545927541796019,
0.105785536159601,-0.01177724258969887,
0.1058354114713217,-0.027377134709604442,
0.10588528678304239,0.03396858599798638,
0.10593516209476309,0.007118418736402566,
0.1059850374064838,-0.012756008685856926,
0.10603491271820449,0.010859835825545934,
0.10608478802992519,-0.0356580052368962,
0.10613466334164588,0.0055677596198891975,
0.10618453865336658,-0.0023695477602810947,
0.10623441396508729,0.015385731564718693,
0.10628428927680798,0.023082265986504195,
0.10633416458852868,0.015465378074481749,
0.10638403990024937,-0.0011331428421760435,
0.10643391521197007,-0.016148776814365974,
0.10648379052369077,-0.01014032146702227,
0.10653366583541148,0.010782456039902017,
0.10658354114713217,0.0005113597315502885,
0.10663341645885287,0.004547714173612704,
0.10668329177057356,0.020533534637980296,
0.10673316708229426,-0.01099449046457483,
0.10678304239401497,-0.020385243275562737,
0.10683291770573566,0.00242873603503487,
0.10688279301745636,-0.01843360494577121,
0.10693266832917706,0.01301403670342891,
0.10698254364089775,-0.023715706322225368,
0.10703241895261846,-0.022056876278971974,
0.10708229426433916,0.0004213236329683829,
0.10713216957605985,0.012627566981405545,
0.10718204488778055,0.005202922405618796,
0.10723192019950124,-0.0133428938311974,
0.10728179551122194,-0.009454628898636394,
0.10733167082294265,-0.0021393925892721375,
0.10738154613466334,0.0036319689150483194,
0.10743142144638404,0.0019159190964664306,
0.10748129675810474,-0.005476379435851297,
0.10753117206982543,0.006136611287216572,
0.10758104738154614,0.008174662846973723,
0.10763092269326684,-0.02706467633739656,
0.10768079800498753,-0.02981839057982364,
0.10773067331670823,-0.018808383210385325,
0.10778054862842892,0.024032895440002384,
0.10783042394014962,-0.011080353653829934,
0.10788029925187033,-0.011497383100378362,
0.10793017456359102,0.0036299900718201484,
0.10798004987531172,-0.014800993574347691,
0.10802992518703242,-0.021568655281226368,
0.10807980049875311,-0.0194431502164098,
0.10812967581047382,-0.024974836859817887,
0.10817955112219452,-0.00015870250397841124,
0.10822942643391521,0.015927091233960432,
0.10827930174563591,-0.003388261067901596,
0.1083291770573566,-0.025846501666236782,
0.1083790523690773,-0.026941307380783798,
0.10842892768079801,-0.03518264106887352,
0.1084788029925187,-0.005793504840297796,
0.1085286783042394,-0.014198572658282923,
0.1085785536159601,-0.0131454509537925,
0.10862842892768079,0.022604236873966913,
0.1086783042394015,-0.007108544526726371,
0.1087281795511222,-0.005518080120133569,
0.1087780548628429,-0.0015926852921104365,
0.10882793017456359,-0.0068395494381281495,
0.10887780548628428,-4.023825783285202e-05,
0.108927680798005,-0.003654143768464439,
0.10897755610972569,0.0005920859725300227,
0.10902743142144639,-0.008094318963547694,
0.10907730673316708,-0.004389032288445606,
0.10912718204488778,-0.015567810291247607,
0.10917705735660847,-0.01869295944428937,
0.10922693266832918,0.01625311326995901,
0.10927680798004988,-0.024790133548716294,
0.10932668329177057,-0.0018672370715091847,
0.10937655860349127,-0.003746379296189062,
0.10942643391521197,-0.004364416825604278,
0.10947630922693267,-0.014194433562169734,
0.10952618453865337,0.0003265713581507741,
0.10957605985037407,-0.0027909640748021453,
0.10962593516209476,0.006699403661435921,
0.10967581047381546,-0.012166479137493798,
0.10972568578553615,-0.005686949564703227,
0.10977556109725686,-0.009381848538355983,
0.10982543640897756,-0.02770716559654477,
0.10987531172069825,0.007824908862413944,
0.10992518703241895,-0.0030235018370032406,
0.10997506234413965,0.0044964507520177475,
0.11002493765586036,-0.012177108323405844,
0.11007481296758105,-0.003553922210801695,
0.11012468827930175,-0.04274074968995723,
0.11017456359102244,-0.011673129020572812,
0.11022443890274314,-0.00938759016937439,
0.11027431421446383,-0.014818421620958012,
0.11032418952618454,-0.009648851069392561,
0.11037406483790524,0.006164167951760974,
0.11042394014962593,-0.026621555888371645,
0.11047381546134663,-0.0041266029486994515,
0.11052369077306733,-0.02893665447271388,
0.11057356608478804,-0.0432794374808881,
0.11062344139650873,-0.015018138045815737,
0.11067331670822943,-0.025089041087402106,
0.11072319201995012,0.008529921045398972,
0.11077306733167082,-0.006910099244824645,
0.11082294264339151,-0.0006513562509159795,
0.11087281795511222,-0.0011540490943552067,
0.11092269326683292,0.0003243954645063586,
0.11097256857855362,-0.014972288890952281,
0.11102244389027431,0.00449345387229993,
0.111072319201995,0.01870183973861678,
0.11112219451371572,-0.05454070029094733,
0.11117206982543641,0.01936759376596485,
0.11122194513715711,-0.010944306657945097,
0.1112718204488778,-0.02614907478898306,
0.1113216957605985,-0.016944729399047294,
0.11137157107231921,0.0004168247957297318,
0.1114214463840399,-0.027172097203515835,
0.1114713216957606,-0.012296403275717896,
0.1115211970074813,-0.0195926177934862,
0.11157107231920199,-0.0073715765761826904,
0.11162094763092269,-0.001422697345941663,
0.1116708229426434,-0.01201011889988696,
0.11172069825436409,0.004960580803929457,
0.11177057356608479,-0.017920458732278773,
0.11182044887780548,0.011247221107522179,
0.11187032418952618,0.0005346127339201185,
0.11192019950124689,-0.029528122690664835,
0.11197007481296758,0.01220031065074239,
0.11201995012468828,-0.013438056246955214,
0.11206982543640898,0.012861457345698369,
0.11211970074812967,0.0011511833849153462,
0.11216957605985037,-0.002521839834315504,
0.11221945137157108,0.015399960979997475,
0.11226932668329177,0.0019401163109595944,
0.11231920199501247,-0.010288500163990345,
0.11236907730673316,0.004486777704317798,
0.11241895261845386,0.02208379678133828,
0.11246882793017457,-0.009008604532601595,
0.11251870324189527,0.021456952242938913,
0.11256857855361596,-0.000998650424130455,
0.11261845386533666,-0.02989510078986874,
0.11266832917705735,-0.0035843887392092368,
0.11271820448877805,-0.013113481186269463,
0.11276807980049876,-0.017318831402092325,
0.11281795511221945,-0.004910142471112693,
0.11286783042394015,0.01215504051028512,
0.11291770573566084,-0.033653296665733176,
0.11296758104738154,0.0012882273554402864,
0.11301745635910225,0.013593162665849555,
0.11306733167082295,-0.00699662081781006,
0.11311720698254364,-0.0021634682514698796,
0.11316708229426434,0.01423821493381175,
0.11321695760598503,-0.008135009768989138,
0.11326683291770574,-0.008315864805064032,
0.11331670822942644,0.005714172143248283,
0.11336658354114713,0.013888222359926499,
0.11341645885286783,0.00570256177760746,
0.11346633416458853,0.0030940978996931304,
0.11351620947630922,0.0036502418180422813,
0.11356608478802993,0.01692558624988634,
0.11361596009975063,-0.004156162934196924,
0.11366583541147132,0.023436888781367734,
0.11371571072319202,-0.015240544628938903,
0.11376558603491271,0.0021214396882128905,
0.11381546134663342,-0.02114003573697438,
0.11386533665835412,-0.007697222583249768,
0.11391521197007481,0.007838573118251679,
0.11396508728179551,-6.954729281894497e-05,
0.1140149625935162,0.01755534818682715,
0.1140648379052369,-0.004992246059455663,
0.11411471321695761,0.010382168487944491,
0.1141645885286783,-0.014212426002711036,
0.114214463840399,-0.022222833727347503,
0.1142643391521197,-0.012336161709466515,
0.1143142144638404,-0.006255292416099583,
0.1143640897755611,0.024453938384654664,
0.1144139650872818,0.033252182918439406,
0.1144638403990025,-0.00657504091505026,
0.11451371571072319,0.012253951664690267,
0.11456359102244389,0.004865976155202221,
0.11461346633416458,0.004490896422106049,
0.11466334164588529,0.016551839982941477,
0.11471321695760599,0.00597193884826638,
0.11476309226932668,0.02413172544970618,
0.11481296758104738,0.03688843053341295,
0.11486284289276807,0.021645334148053835,
0.11491271820448878,-0.0034025904116561662,
0.11496259351620948,0.01820909654888231,
0.11501246882793018,0.017520812262245156,
0.11506234413965087,0.0027800078326879283,
0.11511221945137157,0.026618556802347364,
0.11516209476309226,0.00798996742434628,
0.11521197007481297,0.00970261017881708,
0.11526184538653367,-0.015122328610836002,
0.11531172069825436,0.013314607670742013,
0.11536159600997506,-0.009439478519572168,
0.11541147132169575,0.024636946219447835,
0.11546134663341646,0.03916700703370751,
0.11551122194513716,-0.008212807758911856,
0.11556109725685786,0.00902865411248559,
0.11561097256857855,0.00751561051323087,
0.11566084788029925,-0.0012996626639053474,
0.11571072319201996,-0.0150438778102308,
0.11576059850374065,0.004872665107611527,
0.11581047381546135,0.03234246505795042,
0.11586034912718204,0.00454891718528381,
0.11591022443890274,0.02294857601927297,
0.11596009975062344,0.0018326715318958634,
0.11600997506234415,0.029981103162877457,
0.11605985037406484,0.009065436747967146,
0.11610972568578554,0.031980050874882746,
0.11615960099750623,0.01873783480649012,
0.11620947630922693,0.0296050667834104,
0.11625935162094764,0.012626979185175979,
0.11630922693266833,0.06359712491152913,
0.11635910224438903,0.017405569117255704,
0.11640897755610972,0.013264064361974484,
0.11645885286783042,0.0318596856227542,
0.11650872817955112,0.012558264057645485,
0.11655860349127183,0.0017831537479138931,
0.11660847880299252,0.013294045811294949,
0.11665835411471322,0.020243239361143427,
0.11670822942643391,0.02369991874717822,
0.11675810473815461,0.032238310801360116,
0.11680798004987532,0.02273449210829235,
0.11685785536159601,0.011213513695407514,
0.11690773067331671,0.03743465705976307,
0.1169576059850374,0.018600649536572134,
0.1170074812967581,0.014714093510667384,
0.1170573566084788,0.0037720316263073345,
0.1171072319201995,0.04801090549878919,
0.1171571072319202,0.01657285729173877,
0.1172069825436409,0.025010164620921347,
0.1172568578553616,0.03270298214659113,
0.11730673316708229,0.023603345366994037,
0.117356608478803,0.03203638793964278,
0.1174064837905237,0.030333315743599105,
0.11745635910224439,0.015959742577863055,
0.11750623441396509,0.022400852099817,
0.11755610972568578,0.006406723724172166,
0.11760598503740648,0.00862858578910242,
0.11765586034912719,-0.00855973832175793,
0.11770573566084788,0.0313327451243691,
0.11775561097256858,0.007915064397353028,
0.11780548628428927,0.05113398062667528,
0.11785536159600997,0.029433194964281897,
0.11790523690773068,0.03359132870993911,
0.11795511221945137,0.04475500487253968,
0.11800498753117207,0.028873630257245583,
0.11805486284289277,0.018654826188288974,
0.11810473815461346,0.014915714072763911,
0.11815461346633417,0.04775886719408286,
0.11820448877805487,0.04224464847214804,
0.11825436408977556,0.0326615360763651,
0.11830423940149626,0.0011051876643401702,
0.11835411471321695,0.03192246484302233,
0.11840399002493765,0.053180598813904564,
0.11845386533665836,0.04737085219312552,
0.11850374064837906,0.0028432876100881847,
0.11855361596009975,0.03528696776926529,
0.11860349127182045,0.009941685228419261,
0.11865336658354114,0.052124861618299684,
0.11870324189526185,0.04977841222477506,
0.11875311720698255,0.016498863646160863,
0.11880299251870324,0.03845557144922254,
0.11885286783042394,0.028349301874748076,
0.11890274314214463,0.0024954890645616026,
0.11895261845386533,0.030843119064208998,
0.11900249376558604,-0.008187528925304506,
0.11905236907730674,0.025921684721841236,
0.11910224438902743,0.016273711010252823,
0.11915211970074813,0.04202108675602078,
0.11920199501246882,0.04486435278967829,
0.11925187032418953,0.03343974319554554,
0.11930174563591023,0.011208721492490671,
0.11935162094763092,0.03777319856222481,
0.11940149625935162,0.015706298658636597,
0.11945137157107232,0.045330099842862855,
0.11950124688279301,0.05044728191853079,
0.11955112219451372,0.04882220583312458,
0.11960099750623442,0.030465710572264645,
0.11965087281795511,0.056096776360652495,
0.11970074812967581,0.037257161252282234,
0.1197506234413965,0.04212656507913329,
0.11980049875311721,0.04077884672267837,
0.11985037406483791,0.02030719440964555,
0.1199002493765586,0.03800996955956403,
0.1199501246882793,0.059250367751983196,
0.12,0.024652262521118615,
0.1200498753117207,0.01861767394216365,
0.1200997506234414,0.030038193484602006,
0.1201496259351621,0.045127195728340605,
0.12019950124688279,0.028459117172835505,
0.12024937655860349,0.004663693482541049,
0.12029925187032418,0.021645230350465065,
0.1203491271820449,0.054361477580395036,
0.12039900249376559,0.021295306140852826,
0.12044887780548628,0.041778394571161476,
0.12049875311720698,0.03295070573059639,
0.12054862842892768,-0.0008614295432514893,
0.12059850374064839,0.008714042496134486,
0.12064837905236908,0.024466695260271506,
0.12069825436408978,0.02190767343050541,
0.12074812967581047,0.024870640389882216,
0.12079800498753117,0.02270611484184493,
0.12084788029925186,0.047209020827237665,
0.12089775561097257,0.03639045261336979,
0.12094763092269327,0.006065485838423999,
0.12099750623441397,0.032372000213809225,
0.12104738154613466,0.018668326701063078,
0.12109725685785536,0.04393200676582621,
0.12114713216957607,0.04889073301121533,
0.12119700748129676,0.02452694148732772,
0.12124688279301746,0.0516183272149999,
0.12129675810473815,0.04378131871446634,
0.12134663341645885,0.018814064349540055,
0.12139650872817954,0.026671439819221467,
0.12144638403990025,0.028316680034724324,
0.12149625935162095,0.0427185897053179,
0.12154613466334165,0.039167290813401895,
0.12159600997506234,0.023043000792051623,
0.12164588528678304,0.02704315043339375,
0.12169576059850375,0.026558771582061255,
0.12174563591022444,0.0201548672594603,
0.12179551122194514,0.025792198716429696,
0.12184538653366583,0.03151475733521117,
0.12189526184538653,0.023343047943025233,
0.12194513715710723,0.015606461600359903,
0.12199501246882793,0.022010205626376914,
0.12204488778054863,0.025915697096776984,
0.12209476309226933,0.0017144187210852181,
0.12214463840399002,0.01838768168441471,
0.12219451371571072,0.016498567864181902,
0.12224438902743143,0.04287573533484157,
0.12229426433915212,0.033579812475174636,
0.12234413965087282,0.03559901294092905,
0.12239401496259351,0.05092071214043935,
0.12244389027431421,0.033417865176745644,
0.12249376558603492,0.0407286591221909,
0.12254364089775562,0.005250979878266032,
0.12259351620947631,0.052941484737288186,
0.122643391521197,0.015612142325205986,
0.1226932668329177,0.007591594216252292,
0.1227431421446384,0.013172326684361864,
0.12279301745635911,0.01486725972028789,
0.1228428927680798,0.0062278948038250355,
0.1228927680798005,0.03273079492610202,
0.1229426433915212,0.0034368774732539825,
0.12299251870324189,0.0034758844927471853,
0.1230423940149626,0.014180556785866596,
0.1230922693266833,-0.008400069814242413,
0.12314214463840399,0.020000800695751213,
0.12319201995012469,0.03410733723213609,
0.12324189526184538,0.016128926176141825,
0.12329177057356608,0.02097020403132377,
0.12334164588528679,0.013684543661867598,
0.12339152119700748,0.01725144618158701,
0.12344139650872818,0.01771162577817819,
0.12349127182044888,-0.008568548820358797,
0.12354114713216957,-0.012222403830506927,
0.12359102244389028,0.0024574248955769457,
0.12364089775561098,-0.00826893789296428,
0.12369077306733167,0.022334743662985185,
0.12374064837905237,0.013839040900109612,
0.12379052369077306,0.002803236866424764,
0.12384039900249376,0.023860804381667162,
0.12389027431421447,0.054698806013596085,
0.12394014962593516,0.02123770123474522,
0.12399002493765586,0.012196603086438093,
0.12403990024937656,-0.0032741606455804866,
0.12408977556109725,0.01590851389668046,
0.12413965087281796,0.0014294190123144857,
0.12418952618453866,0.05667320440225739,
0.12423940149625935,0.012823789209020808,
0.12428927680798005,0.007280552683765418,
0.12433915211970074,0.002741085755078178,
0.12438902743142144,0.02842898952984437,
0.12443890274314215,0.026989662102657498,
0.12448877805486284,-0.026020506804874083,
0.12453865336658354,0.0005523961706327997,
0.12458852867830424,-3.5060455371662205e-05,
0.12463840399002493,-0.021592797984222957,
0.12468827930174564,0.009430134146394091,
0.12473815461346634,0.00669199912527294,
0.12478802992518703,-0.007249635630805098,
0.12483790523690773,-0.0014206355927453337,
0.12488778054862842,0.002826790370357747,
0.12493765586034913,-0.006933146647298373,
0.12498753117206983,0.011542438782927161,
0.12503740648379053,0.003879926832562211,
0.12508728179551123,0.034117172075341755,
0.12513715710723192,-0.025286122897508118,
0.12518703241895263,0.0013598875937119838,
0.1252369077306733,-0.003767910413061737,
0.12528678304239402,0.0031577062831798096,
0.1253366583541147,-0.024834252797882705,
0.1253865336658354,0.008447821006797904,
0.12543640897755612,-0.0075295938868828955,
0.1254862842892768,0.014473309363568183,
0.1255361596009975,0.03258767332480032,
0.1255860349127182,-0.017021699014779113,
0.1256359102244389,-0.014521397977492218,
0.1256857855361596,0.007502611132486699,
0.1257356608478803,-0.028045969693875145,
0.125785536159601,0.008657483634804142,
0.12583541147132168,-0.00635003674558374,
0.1258852867830424,-0.020842185457518918,
0.1259351620947631,0.008813487789069756,
0.12598503740648379,0.018061033500463643,
0.1260349127182045,-0.023419850877147354,
0.12608478802992518,-0.013082082138052384,
0.1261346633416459,-0.0073638013109617925,
0.1261845386533666,0.0035912174687271663,
0.12623441396508728,0.0067032802876117485,
0.126284289276808,-0.019074493273946228,
0.12633416458852867,0.01199404948381572,
0.12638403990024938,-0.029487401019561113,
0.1264339152119701,-0.021127506865628292,
0.12648379052369077,-0.004766187174227295,
0.12653366583541148,-0.010907415000533924,
0.12658354114713216,-0.019242163542037963,
0.12663341645885287,-0.007771343300728722,
0.12668329177057355,-0.008189868175933973,
0.12673316708229426,0.00906623680352019,
0.12678304239401497,0.010721921466066268,
0.12683291770573565,-0.042877502046317774,
0.12688279301745636,0.04280662350369196,
0.12693266832917705,0.02072585704284787,
0.12698254364089775,0.008240226554337161,
0.12703241895261846,-0.030428895767586957,
0.12708229426433915,-0.008701288660154119,
0.12713216957605986,-0.00520149620538439,
0.12718204488778054,0.001585448909660627,
0.12723192019950125,0.008922163724503863,
0.12728179551122196,-0.03658496794814177,
0.12733167082294264,0.012352918515657377,
0.12738154613466335,-0.019218920191102898,
0.12743142144638403,-0.019746225949662993,
0.12748129675810474,0.007469277055987905,
0.12753117206982545,-0.035672263380449584,
0.12758104738154613,0.010169660929645781,
0.12763092269326684,0.008993271235365407,
0.12768079800498752,-0.009530615766648818,
0.12773067331670823,-0.032862317898621755,
0.1277805486284289,-0.0028174074230401065,
0.12783042394014962,-0.0069026510655239934,
0.12788029925187033,-0.0019244876932347187,
0.12793017456359101,-0.0013110694587273233,
0.12798004987531172,-0.02241726136155654,
0.1280299251870324,-0.01296161636606919,
0.12807980049875312,-0.01098102537077421,
0.12812967581047383,0.01934445859025724,
0.1281795511221945,-0.0017707064645006623,
0.12822942643391522,-0.011591331476365704,
0.1282793017456359,0.0017961118901117182,
0.1283291770573566,-0.01407458668812151,
0.12837905236907732,0.008006309634841668,
0.128428927680798,-0.02531191635036309,
0.1284788029925187,-0.004906119077554412,
0.1285286783042394,-0.019905246348354978,
0.1285785536159601,-0.003795855749406613,
0.1286284289276808,0.004283315298803643,
0.1286783042394015,-0.010380515616458112,
0.1287281795511222,-0.02935122157564725,
0.12877805486284288,-0.017876531545196424,
0.1288279301745636,-0.024256599353114028,
0.1288778054862843,-0.022522921077836128,
0.12892768079800498,-0.028366175041723146,
0.1289775561097257,-0.009423021946916821,
0.12902743142144638,-0.01748988176598827,
0.12907730673316709,0.010676924424187904,
0.12912718204488777,0.0011526108615786696,
0.12917705735660848,-0.008930955632936225,
0.1292269326683292,0.0054279332176796515,
0.12927680798004987,-0.008627959831907584,
0.12932668329177058,-0.02528282831290833,
0.12937655860349126,-0.027892458121270104,
0.12942643391521197,-0.011643954930919782,
0.12947630922693268,-0.009943733921807432,
0.12952618453865336,-0.0013018879277427071,
0.12957605985037407,0.0018794977743780503,
0.12962593516209475,-0.02978157410507147,
0.12967581047381546,0.009648721447733806,
0.12972568578553617,-0.013462314929695185,
0.12977556109725685,-0.006060132464996675,
0.12982543640897756,0.0016379568310314098,
0.12987531172069824,-0.009330106923881445,
0.12992518703241895,0.010771914531274409,
0.12997506234413966,-0.010427081763883354,
0.13002493765586035,-0.02662559725827738,
0.13007481296758105,-0.0014208220306855725,
0.13012468827930174,0.0007110611505528486,
0.13017456359102245,-0.01700422961799485,
0.13022443890274316,-0.02060315062801224,
0.13027431421446384,0.0041431793791528344,
0.13032418952618455,-0.009343489523541533,
0.13037406483790523,-0.022451645046186294,
0.13042394014962594,-0.01978841192045215,
0.13047381546134662,-0.006743961435919806,
0.13052369077306733,-0.01689029239727742,
0.13057356608478804,-0.008125546746931823,
0.13062344139650872,-0.004389965720953501,
0.13067331670822943,-0.01332033599930059,
0.1307231920199501,-0.01561837828064835,
0.13077306733167082,-0.04150185389531352,
0.13082294264339153,-0.037515073059687556,
0.13087281795511221,-0.026086729597718086,
0.13092269326683292,-0.008571890048536243,
0.1309725685785536,-0.0027974286460662008,
0.13102244389027431,-0.000412835038179302,
0.13107231920199502,0.009098973484036049,
0.1311221945137157,-0.01161849868430416,
0.13117206982543642,0.022286458845023227,
0.1312219451371571,-0.006600032532490892,
0.1312718204488778,-0.008859759890455884,
0.13132169576059852,-0.007037500119688019,
0.1313715710723192,-0.012133171874965676,
0.1314214463840399,-0.020996594649415723,
0.1314713216957606,-0.0166768448383429,
0.1315211970074813,0.0031849716200315157,
0.13157107231920198,0.0041587979900942935,
0.1316209476309227,-0.03202880294660895,
0.1316708229426434,-0.005578416098845796,
0.13172069825436408,-0.0046211860800211765,
0.1317705735660848,0.003912168756621244,
0.13182044887780547,0.015942217825381265,
0.13187032418952618,0.016139254043739074,
0.1319201995012469,0.0032843873727836943,
0.13197007481296757,-0.014654596025719063,
0.13201995012468828,-0.025430948486405352,
0.13206982543640897,-0.0041393780552357535,
0.13211970074812968,-0.019276447165778747,
0.13216957605985039,-0.023645910236394112,
0.13221945137157107,0.02403992537514164,
0.13226932668329178,-0.0022562557651999594,
0.13231920199501246,-0.011562819026213148,
0.13236907730673317,0.008014240029503919,
0.13241895261845388,-0.022444368543298544,
0.13246882793017456,-0.0069030070424828515,
0.13251870324189527,0.0017924121761223877,
0.13256857855361595,0.03601921040372487,
0.13261845386533666,-0.011533909641579172,
0.13266832917705737,0.016154798178357598,
0.13271820448877805,-0.022917649067597308,
0.13276807980049876,0.02234822733949766,
0.13281795511221944,0.04228150953640087,
0.13286783042394015,-0.008628053348937206,
0.13291770573566083,-0.01755026511062481,
0.13296758104738154,-0.002160057963257022,
0.13301745635910225,-0.006230658308161786,
0.13306733167082294,-0.018486108280655354,
0.13311720698254365,-0.025966443847547545,
0.13316708229426433,-0.019792227041077706,
0.13321695760598504,-0.014516557701162638,
0.13326683291770575,-0.0043001014637107475,
0.13331670822942643,0.029480990385223966,
0.13336658354114714,-0.02552259854531213,
0.13341645885286782,0.01135253272771922,
0.13346633416458853,0.013110398181907353,
0.13351620947630924,-0.030469122400754643,
0.13356608478802992,0.027476468582081883,
0.13361596009975063,0.017772279652280856,
0.1336658354114713,0.0047145951027452605,
0.13371571072319202,0.004563960231337107,
0.13376558603491273,0.007971859830548508,
0.1338154613466334,0.007482799691146413,
0.13386533665835412,-0.0034819936607428685,
0.1339152119700748,0.0063772362612976264,
0.13396508728179551,0.0002896423318266535,
0.1340149625935162,-0.0045832941138429254,
0.1340648379052369,-0.01164076312604594,
0.13411471321695762,0.016623357750013192,
0.1341645885286783,0.01964043168293101,
0.134214463840399,-0.003795301946428289,
0.1342643391521197,0.02879750726389365,
0.1343142144638404,0.008992113822681424,
0.1343640897755611,0.013902315816727382,
0.1344139650872818,0.019718436739305574,
0.1344638403990025,-0.006687419621012285,
0.13451371571072318,0.023738197040509324,
0.1345635910224439,0.026837938175804436,
0.1346134663341646,0.010399107839545202,
0.13466334164588528,-0.019223004888907498,
0.134713216957606,0.00233443841601407,
0.13476309226932667,0.02100799456123111,
0.13481296758104738,0.016650512793943126,
0.1348628428927681,0.0025493221570328708,
0.13491271820448877,0.0034516831311947656,
0.13496259351620948,-0.003261941546411856,
0.13501246882793017,0.007225074650732039,
0.13506234413965088,0.015744553966510137,
0.13511221945137158,0.022063330045729718,
0.13516209476309227,0.01555003486927705,
0.13521197007481298,0.02483984623399231,
0.13526184538653366,0.012561851315485756,
0.13531172069825437,-0.004941153440454494,
0.13536159600997505,0.013634058957239027,
0.13541147132169576,-0.0015325441449290638,
0.13546134663341647,0.00473680202510844,
0.13551122194513715,0.03060623126742833,
0.13556109725685786,0.021555664491996637,
0.13561097256857854,-0.012072309513745858,
0.13566084788029925,0.035667978533914645,
0.13571072319201996,-0.002604729503061988,
0.13576059850374064,0.00868980420101451,
0.13581047381546135,0.035422666405488946,
0.13586034912718203,0.007977220245927202,
0.13591022443890274,0.015135562177642576,
0.13596009975062345,0.06865347251608685,
0.13600997506234414,0.02580650758694072,
0.13605985037406484,0.009354553065454352,
0.13610972568578553,0.010140127258934803,
0.13615960099750624,-0.02339738791695571,
0.13620947630922695,0.020398795446944912,
0.13625935162094763,0.02005033348990669,
0.13630922693266834,0.03889704448392403,
0.13635910224438902,0.026633877794973424,
0.13640897755610973,0.011423784563140742,
0.1364588528678304,0.010085379582935797,
0.13650872817955112,-0.0016352647895984153,
0.13655860349127183,0.03419842424249957,
0.1366084788029925,-0.008535247550002182,
0.13665835411471322,0.004767322337934924,
0.1367082294264339,0.039088556855022334,
0.1367581047381546,0.025563524304673187,
0.13680798004987532,0.008610064682789817,
0.136857855361596,0.04644416487430448,
0.1369077306733167,0.027352208008506063,
0.1369576059850374,0.017659121374360105,
0.1370074812967581,0.03254664861109973,
0.13705735660847881,0.026777458089994762,
0.1371072319201995,0.01660083044149101,
0.1371571072319202,-0.010432480701103107,
0.1372069825436409,0.030135651691452332,
0.1372568578553616,0.04574764434944251,
0.1373067331670823,0.04680717786171025,
0.137356608478803,0.012865873538437886,
0.1374064837905237,0.03462205484461979,
0.13745635910224438,0.003649746791656132,
0.1375062344139651,0.03152878926322375,
0.1375561097256858,0.019508447880857163,
0.13760598503740648,0.0246639833957428,
0.1376558603491272,0.030320793916115994,
0.13770573566084787,0.0187009162493937,
0.13775561097256858,0.02744498816947537,
0.13780548628428926,0.016986834375435314,
0.13785536159600997,0.0234722811797105,
0.13790523690773068,0.024532943507436997,
0.13795511221945136,0.0052056385133485115,
0.13800498753117207,0.022286131983694498,
0.13805486284289276,0.016687991906822217,
0.13810473815461347,0.026637471153251765,
0.13815461346633418,0.032888698360592494,
0.13820448877805486,0.03950822477877344,
0.13825436408977557,0.05577033189786865,
0.13830423940149625,0.030549488922442188,
0.13835411471321696,0.0041772009420733384,
0.13840399002493767,0.02211184990293128,
0.13845386533665835,-0.0003279183142049641,
0.13850374064837906,0.03496817100705596,
0.13855361596009974,0.020285874466739105,
0.13860349127182045,0.030369342912453752,
0.13865336658354116,0.02487843201427845,
0.13870324189526184,0.00995866319157682,
0.13875311720698255,0.02227940385068057,
0.13880299251870323,0.026838739743866476,
0.13885286783042394,0.02269889897588915,
0.13890274314214462,0.020880618193261993,
0.13895261845386533,0.060458413305618096,
0.13900249376558604,0.03507581209887324,
0.13905236907730673,0.031816673258023107,
0.13910224438902744,0.03350910325606048,
0.13915211970074812,0.059997624882974596,
0.13920199501246883,0.059922452673987395,
0.13925187032418954,0.025850767567854434,
0.13930174563591022,0.013888120788819458,
0.13935162094763093,0.05733265892989587,
0.1394014962593516,0.041495111173155894,
0.13945137157107232,0.040666715432837036,
0.13950124688279303,0.056113896462136395,
0.1395511221945137,0.05691520424667911,
0.13960099750623442,0.03179803972306117,
0.1396508728179551,0.04057746015643041,
0.1397007481296758,0.022114461060259404,
0.13975062344139652,0.03607224752800511,
0.1398004987531172,0.027449404816510776,
0.1398503740648379,0.02671751726918726,
0.1399002493765586,0.028389765066752372,
0.1399501246882793,0.059727956422156586,
0.14,0.035596401879664445,
0.1400498753117207,0.027064861639128395,
0.1400997506234414,0.0049398454390131505,
0.1401496259351621,0.04063979834169895,
0.1401995012468828,0.0284703935990773,
0.14024937655860348,0.030613679699782362,
0.1402992518703242,0.04040614317828016,
0.1403491271820449,0.03339191316174876,
0.14039900249376558,0.008028860564109987,
0.1404488778054863,0.04313710537826426,
0.14049875311720697,0.023815806955867408,
0.14054862842892768,0.010579217309478806,
0.1405985037406484,0.029859309813482438,
0.14064837905236907,0.04199608398339859,
0.14069825436408978,0.030469868203422377,
0.14074812967581046,0.03324133957780646,
0.14079800498753117,0.015475203375297661,
0.14084788029925188,-0.003171909860604165,
0.14089775561097256,0.04039257274273377,
0.14094763092269327,0.01302465748492285,
0.14099750623441396,0.006367685167679368,
0.14104738154613466,0.009969505783263253,
0.14109725685785537,0.030333755907086892,
0.14114713216957606,-0.003097433673290906,
0.14119700748129677,0.034869121208224406,
0.14124688279301745,0.04017413181551286,
0.14129675810473816,0.027369570894657032,
