time,amplitude,label
0.0,0.010991533451837041,
4.987531172069826e-05,0.01316449406891067,
9.975062344139652e-05,0.034463480900419764,
0.00014962593516209475,0.008403765408909306,
0.00019950124688279303,0.031017951526335984,
0.00024937655860349125,0.02539175314592029,
0.0002992518703241895,0.045441272128120186,
0.00034912718204488776,0.0065767903241196034,
0.00039900249376558606,0.01009570963283929,
0.0004488778054862843,0.018586586595235065,
0.0004987531172069825,0.00978320241648678,
0.0005486284289276808,0.020627333058629464,
0.000598503740648379,0.01620856450343672,
0.0006483790523690773,-0.00443972100335349,
0.0006982543640897755,0.0016928362530684669,
0.0007481296758104738,0.03882286457817376,
0.0007980049875311721,0.006492147563865003,
0.0008478802992518703,0.018875302836659124,
0.0008977556109725686,0.0029061391862973216,
0.0009476309226932668,0.0006916552764084285,
0.000997506234413965,0.027897184618453242,
0.0010473815461346633,0.015391659337682911,
0.0010972568578553616,-0.002700643522998739,
0.00114713216957606,0.014005679720359647,
0.001197007481296758,0.016657665533662172,
0.0012468827930174563,0.03595943666416298,
0.0012967581047381546,-0.020377421190347505,
0.001346633416458853,0.026220016492966555,
0.001396508728179551,0.00384265102070857,
0.0014463840399002493,0.03862579745394683,
0.0014962593516209476,0.03364637951479969,
0.001546134663341646,0.036080774001532215,
0.0015960099750623442,0.0022997949877320125,
0.0016458852867830423,-0.010834805677475613,
0.0016957605985037406,0.008051867108167217,
0.001745635910224439,-0.005562994956589001,
0.0017955112219451373,0.006397199601892222,
0.0018453865336658353,-0.012658859996914523,
0.0018952618453865336,0.0006307673858207095,
0.001945137157107232,0.027704166886198207,
0.00199501246882793,0.009740812282976168,
0.0020448877805486283,-0.01015433495178875,
0.0020947630922693266,0.014219681018500383,
0.002144638403990025,-0.004454053791272299,
0.0021945137157107233,0.022505420394430722,
0.0022443890274314216,0.019024562846127746,
0.00229426433915212,0.014042862858405721,
0.0023441396508728177,0.030004416391465484,
0.002394014962593516,0.0005949049626667959,
0.0024438902743142144,0.03287141412435835,
0.0024937655860349127,0.010332914442584998,
0.002543640897755611,0.01456697050927572,
0.0025935162094763093,-0.030126625453796758,
0.0026433915211970076,-0.00018874068883613197,
0.002693266832917706,-0.0021721946313327553,
0.002743142144638404,-0.01566807279072997,
0.002793017456359102,-0.013057717128742987,
0.0028428927680798004,0.018875512744395855,
0.0028927680798004987,0.010159429838310502,
0.002942643391521197,0.010554752855219845,
0.0029925187032418953,0.031276416552392244,
0.0030423940149625936,0.007219084532888864,
0.003092269326683292,0.020163112490995692,
0.00314214463840399,0.0034963273622690364,
0.0031920199501246885,-0.010535565794025148,
0.0032418952618453864,-0.001492339757570805,
0.0032917705735660847,0.008234254649019048,
0.003341645885286783,-0.025895875589206342,
0.0033915211970074813,0.0011981952471590727,
0.0034413965087281796,0.004427464929808922,
0.003491271820448878,-0.014046819029454333,
0.003541147132169576,-0.023670699288291228,
0.0035910224438902745,0.004214666208841164,
0.0036408977556109724,-0.002524650904236904,
0.0036907730673316707,0.013377282854600029,
0.003740648379052369,-0.0023502979833727056,
0.0037905236907730673,-0.03778350672491954,
0.0038403990024937656,-0.005105596514383307,
0.003890274314214464,0.005794545169986531,
0.003940149625935162,-0.025918748121440884,
0.00399002493765586,-0.030458857533320914,
0.004039900249376558,0.003461972895953727,
0.004089775561097257,0.009702596065358058,
0.004139650872817955,-0.010935238304082618,
0.004189526184538653,-0.0018837718632395686,
0.004239401496259352,-0.021956563268999037,
0.00428927680798005,-0.016509665607305483,
0.004339152119700748,-0.001489627295324725,
0.0043890274314214465,-0.005821367309396246,
0.004438902743142145,-0.0031531622927798786,
0.004488778054862843,-0.0020244194062783143,
0.004538653366583541,0.02563376988719762,
0.00458852867830424,-0.05297005464122683,
0.004638403990024938,-0.00037847490709506243,
0.0046882793017456355,-0.01858024046869368,
0.004738154613466334,-0.022929400536592925,
0.004788029925187032,-0.00449600560813946,
0.00483790523690773,-0.0072440988085767325,
0.004887780548628429,0.0005862085328940357,
0.004937655860349127,-0.009817991019185034,
0.004987531172069825,-0.02453951120239311,
0.005037406483790524,-0.0306513121009733,
0.005087281795511222,-0.02106323884985269,
0.00513715710723192,-0.0019912861552521966,
0.0051870324189526185,0.001973542980221666,
0.005236907730673317,-0.03928665670812946,
0.005286783042394015,-0.017046415657424648,
0.0053366583541147134,-0.018265948126908172,
0.005386533665835412,-0.009214144213791246,
0.00543640897755611,-0.024158310550850257,
0.005486284289276808,-0.036701419781278354,
0.005536159600997507,-0.020063475465534164,
0.005586034912718204,0.0037880644002069204,
0.005635910224438902,-0.04672986129688563,
0.005685785536159601,-0.032666535915492186,
0.005735660847880299,-0.017024968436716793,
0.005785536159600997,-0.024412156497245666,
0.005835411471321696,-0.03286948636669067,
0.005885286783042394,-0.026392585283914714,
0.005935162094763092,-0.011155756872773941,
0.0059850374064837905,-0.012476978621824905,
0.006034912718204489,-0.0033384619162632953,
0.006084788029925187,-0.006948750230717922,
0.0061346633416458855,-0.037301352298704724,
0.006184538653366584,-0.00868190395841116,
0.006234413965087282,-0.006789492237698796,
0.00628428927680798,-0.024587978129064995,
0.006334164588528679,0.001333713668614709,
0.006384039900249377,-0.026818903531162473,
0.006433915211970074,-0.0015457831740435767,
0.006483790523690773,-0.008678699034783011,
0.006533665835411471,-0.020364158090872313,
0.006583541147132169,-0.03275693822010323,
0.006633416458852868,-0.026560612406548757,
0.006683291770573566,-0.02812918505284689,
0.006733167082294264,0.008961849439841976,
0.0067830423940149626,-0.0020937531434920935,
0.006832917705735661,-0.003374469948094554,
0.006882793017456359,-0.013610429709110795,
0.0069326683291770575,-0.025979374249343913,
0.006982543640897756,-0.007654922037707198,
0.007032418952618454,-0.03264010630616222,
0.007082294264339152,0.003993085833545001,
0.007132169576059851,-0.04176128409327806,
0.007182044887780549,-0.034999899850726754,
0.007231920199501247,-0.009572418233271526,
0.007281795511221945,-0.02362756609699224,
0.007331670822942643,-0.0008307721730429901,
0.007381546134663341,-0.0006343246722308529,
0.00743142144638404,-0.0559699446990632,
0.007481296758104738,-0.03191589599865687,
0.007531172069825436,-0.03227615362100371,
0.007581047381546135,-0.006089428454136042,
0.007630922693266833,-0.04031698433962676,
0.007680798004987531,-0.05569752106014782,
0.0077306733167082295,-0.034899063936297756,
0.007780548628428928,-0.011294059965234521,
0.007830423940149626,0.009661827012280216,
0.007880299251870324,-0.04451091017125245,
0.007930174563591023,-0.032649821032350736,
0.00798004987531172,-0.017448704261798523,
0.00802992518703242,-0.0033976418381662273,
0.008079800498753117,0.011559414639639266,
0.008129675810473816,-0.014340445652131967,
0.008179551122194513,-0.008093022685502002,
0.008229426433915213,-0.01819016078426032,
0.00827930174563591,0.00254288768727573,
0.00832917705735661,-0.0275958506359849,
0.008379052369077307,-0.01902142824152848,
0.008428927680798006,-0.052082254572194,
0.008478802992518703,-0.00793628323069412,
0.0085286783042394,0.0049895394755691755,
0.0085785536159601,-0.008908905736499757,
0.008628428927680797,-0.03018218908332584,
0.008678304239401496,-0.039926248839708564,
0.008728179551122194,0.006747869956346332,
0.008778054862842893,-0.03337210121299723,
0.00882793017456359,-0.023508459393920083,
0.00887780548628429,-0.04021913593992235,
0.008927680798004987,-0.011366907555669326,
0.008977556109725686,0.008846160603748664,
0.009027431421446384,-0.01622643163900286,
0.009077306733167083,0.002151492626008989,
0.00912718204488778,-0.03151861617543439,
0.00917705735660848,-0.01908406223038373,
0.009226932668329177,-0.014749882421919826,
0.009276807980049876,-0.029465967263705026,
0.009326683291770574,-0.03163986798351258,
0.009376558603491271,-0.02684982538186359,
0.00942643391521197,-0.020831765709610536,
0.009476309226932668,-0.02469136220481979,
0.009526184538653367,0.0026941352225695672,
0.009576059850374064,-0.048854440374483714,
0.009625935162094763,-0.014875587090851055,
0.00967581047381546,-0.03976764540790988,
0.00972568578553616,-0.0007865552458419661,
0.009775561097256857,-0.02750726323061459,
0.009825436408977557,-0.016471447466561595,
0.009875311720698254,0.00441134374972506,
0.009925187032418953,-0.0402550880679311,
0.00997506234413965,0.005167376454226897,
0.01002493765586035,-0.0074657262302344355,
0.010074812967581047,-0.02151183269205679,
0.010124688279301746,-0.05002653759615176,
0.010174563591022444,0.013824640685787593,
0.010224438902743141,-0.019265177755562423,
0.01027431421446384,-0.004414196370995438,
0.010324189526184538,-0.011316887050953548,
0.010374064837905237,0.017650217684062976,
0.010423940149625935,-0.029464670632808953,
0.010473815461346634,0.0027508455774458533,
0.010523690773067331,0.01495162312295363,
0.01057356608478803,-0.030370028948636992,
0.010623441396508728,-0.015311065582635622,
0.010673316708229427,-0.006876809654590271,
0.010723192019950124,-0.0008161922582615617,
0.010773067331670824,-0.002947890776745836,
0.010822942643391521,0.004668582197413793,
0.01087281795511222,-0.010815321702595035,
0.010922693266832918,-0.004747762270144926,
0.010972568578553617,-0.028754298714819288,
0.011022443890274314,-0.025540635942300622,
0.011072319201995013,-0.011369633198262435,
0.01112219451371571,-0.0149604939827538,
0.011172069825436408,0.0007212785353317014,
0.011221945137157107,-0.03705478936928013,
0.011271820448877805,-0.0018547314099389804,
0.011321695760598504,0.002812728670000701,
0.011371571072319201,-0.04155116616801806,
0.0114214463840399,0.017045600844615476,
0.011471321695760598,0.02170634022919929,
0.011521197007481297,0.009079188789454446,
0.011571072319201995,-0.010500976048652497,
0.011620947630922694,-0.0110898321889667,
0.011670822942643391,-0.015325845066150458,
0.01172069825436409,-0.0064007812032347644,
0.011770573566084788,-0.012805422719411983,
0.011820448877805487,-0.00056707180959969,
0.011870324189526184,-0.004872236164109822,
0.011920199501246884,0.0039000870353657754,
0.011970074812967581,-0.010507951004022749,
0.012019950124688279,-0.019779363848693374,
0.012069825436408978,0.013569909062437463,
0.012119700748129675,-0.018892662281288556,
0.012169576059850374,-0.006201370674809961,
0.012219451371571072,-0.005670621551123421,
0.012269326683291771,-0.001445760849067665,
0.012319201995012468,-0.004470899953913347,
0.012369077306733168,-0.0076284315030189275,
0.012418952618453865,0.000960014587017026,
0.012468827930174564,-0.01574816370617982,
0.012518703241895262,-0.004620428241955269,
0.01256857855361596,0.0001905943365388674,
0.012618453865336658,-0.027477277133632884,
0.012668329177057357,0.018837756099548474,
0.012718204488778055,0.031088210080641793,
0.012768079800498754,0.00944494035715466,
0.012817955112219451,-0.005230676503060361,
0.012867830423940149,-0.004203450539771386,
0.012917705735660848,-0.014437952519412583,
0.012967581047381545,0.024870070596353246,
0.013017456359102245,-0.018298544730361542,
0.013067331670822942,0.01615192680717581,
0.013117206982543641,-0.00460121449534607,
0.013167082294264339,0.02287800589582272,
0.013216957605985038,0.012994545334628722,
0.013266832917705735,0.01666019446585744,
0.013316708229426434,0.006284666095063225,
0.013366583541147132,0.02891879165081152,
0.013416458852867831,-0.020015057638018505,
0.013466334164588529,-0.02137849525912015,
0.013516209476309228,-0.018139890600817582,
0.013566084788029925,-0.0017569781338461375,
0.013615960099750624,-0.005278261366133253,
0.013665835411471322,-0.002217234071249222,
0.01371571072319202,0.031029933237594398,
0.013765586034912718,-0.002713212839899261,
0.013815461346633416,0.020561110990770036,
0.013865336658354115,0.008316591330179047,
0.013915211970074812,0.023828185443875854,
0.013965087281795512,0.013287556666227099,
0.014014962593516209,0.013403482151468388,
0.014064837905236908,0.004078347721407922,
0.014114713216957606,-0.005248516465675004,
0.014164588528678305,-0.014819520519181143,
0.014214463840399002,0.01845872063284335,
0.014264339152119701,0.03765644817899956,
0.014314214463840399,0.0015547271640420149,
0.014364089775561098,0.009747646805851433,
0.014413965087281795,-0.005123358740133241,
0.014463840399002495,0.008621269270295289,
0.014513715710723192,0.005766555164739475,
0.01456359102244389,0.0009886909655265515,
0.014613466334164589,-0.0037969032356209072,
0.014663341645885286,0.026942194031560167,
0.014713216957605985,0.02726155625919683,
0.014763092269326683,0.03336161501554031,
0.014812967581047382,0.02505766127982455,
0.01486284289276808,-0.0006677306981884776,
0.014912718204488778,0.003662890315450626,
0.014962593516209476,0.01836006712610486,
0.015012468827930175,0.0015702039037321178,
0.015062344139650873,0.03614620144730717,
0.015112219451371572,0.01373694985255684,
0.01516209476309227,0.0006387448060457754,
0.015211970074812968,0.02422045096928709,
0.015261845386533666,0.02658425201621157,
0.015311720698254365,0.021638948408252246,
0.015361596009975062,0.027848400348197577,
0.01541147132169576,0.02117127648910772,
0.015461346633416459,0.03964149725559181,
0.015511221945137156,0.03175394004111437,
0.015561097256857856,0.006307492014944903,
0.015610972568578553,0.0058987028845223725,
0.015660847880299252,0.014683149357920453,
0.01571072319201995,0.016474512720530833,
0.015760598503740647,0.006677317482613951,
0.015810473815461346,0.002239781253919059,
0.015860349127182045,0.013916115052169184,
0.015910224438902745,0.00749428586619043,
0.01596009975062344,0.01848664092544581,
0.01600997506234414,-0.01662211331465155,
0.01605985037406484,0.034259624243622,
0.016109725685785538,0.013169322129189849,
0.016159600997506234,0.023055121122433433,
0.016209476309226933,-0.017382196066696404,
0.016259351620947632,0.01986276580700951,
0.016309226932668328,0.016620410342337397,
0.016359102244389027,0.018093187422754644,
0.016408977556109726,0.021970589155860247,
0.016458852867830425,0.010796791747916342,
0.01650872817955112,0.02499645208472708,
0.01655860349127182,-0.020725029406173167,
0.01660847880299252,0.023728432625371942,
0.01665835411471322,0.02250819135032405,
0.016708229426433914,0.04302523801491252,
0.016758104738154613,0.024190348083368562,
0.016807980049875312,-0.014619789623537258,
0.01685785536159601,0.013177442296733344,
0.016907730673316707,0.013428535487012389,
0.016957605985037406,0.018932109659595228,
0.017007481296758106,0.015379677835425723,
0.0170573566084788,0.02165463174931701,
0.0171072319201995,0.006372821052082627,
0.0171571072319202,0.04468096257794307,
0.0172069825436409,0.019047151140076643,
0.017256857855361595,0.05353761849287511,
0.017306733167082294,0.000736271120942246,
0.017356608478802993,0.014690982693123992,
0.017406483790523692,0.032163102838672845,
0.017456359102244388,-0.0011603377589642846,
0.017506234413965087,0.03934672126047792,
0.017556109725685786,0.02341889456851672,
0.017605985037406485,0.023230012404805985,
0.01765586034912718,0.04096159753257726,
0.01770573566084788,0.014411808251712423,
0.01775561097256858,0.012841887343530365,
0.01780548628428928,0.015199537519156332,
0.017855361596009974,0.016673038378843996,
0.017905236907730673,0.002578370000465763,
0.017955112219451373,0.027105686274575165,
0.018004987531172068,0.016036274740907824,
0.018054862842892767,0.018437066411493303,
0.018104738154613467,0.018748308995236874,
0.018154613466334166,0.033371805486221415,
0.01820448877805486,0.025935719496957062,
0.01825436408977556,0.02829264420527112,
0.01830423940149626,0.01869259820802418,
0.01835411471321696,0.028522275826287725,
0.018403990024937655,0.05065706101855409,
0.018453865336658354,0.03873970911135054,
0.018503740648379053,0.00691634958895343,
0.018553615960099752,0.038096040638663106,
0.018603491271820448,0.02781665755007795,
0.018653366583541147,0.021186703018380645,
0.018703241895261846,0.032963521498494484,
0.018753117206982542,0.030688435157920482,
0.01880299251870324,0.023687254305464086,
0.01885286783042394,0.015158181126506026,
0.01890274314214464,0.009251432159296663,
0.018952618453865335,0.03281384482280359,
0.019002493765586034,0.025463490803666538,
0.019052369077306733,0.016177973419771962,
0.019102244389027433,0.019717954788304508,
0.01915211970074813,0.014370348901824505,
0.019201995012468828,0.004515021165751096,
0.019251870324189527,0.03814259757761463,
0.019301745635910226,0.021563660803628863,
0.01935162094763092,-0.008937662519427202,
0.01940149625935162,0.030612065131704606,
0.01945137157107232,0.023724779012697324,
0.01950124688279302,0.027340245378072947,
0.019551122194513715,0.03492198377875014,
0.019600997506234414,0.0163955290945887,
0.019650872817955113,0.020752057788310768,
0.01970074812967581,-0.00144685912146238,
0.019750623441396508,0.010310270156108817,
0.019800498753117207,0.03209825987657409,
0.019850374064837906,0.017282148923545165,
0.019900249376558602,0.012023130593022544,
0.0199501246882793,0.02151973741324459,
0.02,0.0037784795812720266,
0.0200498753117207,0.008760601850768162,
0.020099750623441395,0.028775838679867046,
0.020149625935162094,-0.008953891849668414,
0.020199501246882794,0.008778468016024329,
0.020249376558603493,0.01791057861854195,
0.02029925187032419,0.022035057255129258,
0.020349127182044888,0.003198435010434349,
0.020399002493765587,0.023104812206407414,
0.020448877805486283,0.01605684838126518,
0.02049875311720698,0.033900794476281235,
0.02054862842892768,0.024701043309383816,
0.02059850374064838,0.011138908368957577,
0.020648379052369076,0.031013977409002205,
0.020698254364089775,0.014886460482018651,
0.020748129675810474,0.02033646733618336,
0.020798004987531173,0.005358525010759037,
0.02084788029925187,-0.0003418144427439415,
0.020897755610972568,-0.009317569379408025,
0.020947630922693267,0.004841053997658095,
0.020997506234413967,0.012811388790052137,
0.021047381546134662,0.003561957709612462,
0.02109725685785536,0.016084428607976167,
0.02114713216957606,0.009304103356946921,
0.02119700748129676,0.011786462585645592,
0.021246882793017455,0.02943762085466403,
0.021296758104738155,0.0331174341417082,
0.021346633416458854,-0.011108502170959435,
0.02139650872817955,-0.006165491667169027,
0.02144638403990025,0.012893317225300252,
0.021496259351620948,0.004299978730298786,
0.021546134663341647,-0.012376441678961498,
0.021596009975062343,0.01533540997388277,
0.021645885286783042,-0.007280373057432538,
0.02169576059850374,0.01889093053151454,
0.02174563591022444,0.023159822702054973,
0.021795511221945136,0.025402419025407817,
0.021845386533665835,-0.002644653597418013,
0.021895261845386534,0.008190891634950829,
0.021945137157107233,0.02411243784575821,
0.02199501246882793,-0.024236186956993724,
0.02204488778054863,-0.009950240010548837,
0.022094763092269327,0.014612376143966436,
0.022144638403990027,0.029115639965546204,
0.022194513715710722,-0.030764520486015856,
0.02224438902743142,-0.011645832630713258,
0.02229426433915212,0.0002227937119107324,
0.022344139650872816,0.006789470487903789,
0.022394014962593516,0.03319670459750984,
0.022443890274314215,0.019275393722019755,
0.022493765586034914,0.011013399987432847,
0.02254364089775561,-0.017360193599624554,
0.02259351620947631,0.003640861552434368,
0.022643391521197008,0.015604971754146185,
0.022693266832917707,-0.013828409029687877,
0.022743142144638403,-0.0034956331886549603,
0.022793017456359102,0.0001585857157923383,
0.0228428927680798,-0.008136762055974682,
0.0228927680798005,0.012407245789803905,
0.022942643391521196,0.014456659342169317,
0.022992518703241895,-0.011409316751325099,
0.023042394014962594,-0.015074693514532724,
0.02309226932668329,-0.0006134777530715004,
0.02314214463840399,0.0053667717388362155,
0.02319201995012469,0.028226746842381325,
0.023241895261845388,-0.00016318211230416152,
0.023291770573566083,-0.006294941361155824,
0.023341645885286783,-0.012809567998015385,
0.02339152119700748,0.001225612527671858,
0.02344139650872818,-0.005680710880746866,
0.023491271820448877,0.0097029322468088,
0.023541147132169576,0.0008811526449063662,
0.023591022443890275,-0.004029444759137081,
0.023640897755610974,-0.016922042928936457,
0.02369077306733167,0.0033342565802356055,
0.02374064837905237,-0.0058013764179161535,
0.023790523690773068,0.006510972101432064,
0.023840399002493767,-0.025631261527500428,
0.023890274314214463,0.00016369710127829042,
0.023940149625935162,0.006757714285001139,
0.02399002493765586,-0.0042628636965770135,
0.024039900249376557,0.007286819026679232,
0.024089775561097256,0.0006680722864987132,
0.024139650872817955,-0.015076687233094115,
0.024189526184538655,-0.023428259415187013,
0.02423940149625935,0.008346121000137551,
0.02428927680798005,-0.015223247127206324,
0.02433915211970075,-0.008838526296073412,
0.024389027431421448,-0.015208411841171735,
0.024438902743142144,0.008371655404499677,
0.024488778054862843,-0.04181314557105159,
0.024538653366583542,0.005294315029125852,
0.02458852867830424,-0.016379620678024304,
0.024638403990024937,0.023027028774718607,
0.024688279301745636,0.004885522185987151,
0.024738154613466335,-0.021200323267807082,
0.02478802992518703,0.014055613492433271,
0.02483790523690773,-0.01919745070375628,
0.02488778054862843,-0.0010511772219060442,
0.02493765586034913,-0.0033602395245202407,
0.024987531172069824,0.022440073820513246,
0.025037406483790523,-0.024811746021037216,
0.025087281795511222,-0.04672574653320753,
0.02513715710723192,-0.02866182299476233,
0.025187032418952617,-0.011135255947807137,
0.025236907730673316,-0.027422669785991692,
0.025286783042394016,-0.032757311552417956,
0.025336658354114715,-0.016994699306803723,
0.02538653366583541,0.0018057193039722665,
0.02543640897755611,-0.055933517557290105,
0.02548628428927681,-0.010060299194843126,
0.025536159600997508,-0.01033958490334797,
0.025586034912718204,-0.0011387545996758269,
0.025635910224438903,-0.02901960929783405,
0.025685785536159602,0.012395462280910681,
0.025735660847880298,-0.01090090055562651,
0.025785536159600997,-0.007595412872630077,
0.025835411471321696,-0.021919375420033662,
0.025885286783042395,0.0026940575962865042,
0.02593516209476309,0.02253268757179743,
0.02598503740648379,-0.01938771982969926,
0.02603491271820449,-0.010804830977817525,
0.02608478802992519,-0.0057527203956676265,
0.026134663341645884,0.0062164857078353,
0.026184538653366583,1.0959931830796174e-05,
0.026234413965087282,-0.007607356051741558,
0.02628428927680798,-0.006665056337875274,
0.026334164588528677,-0.0023185399199459143,
0.026384039900249377,-0.00043530410983333434,
0.026433915211970076,-7.046089840604189e-05,
0.02648379052369077,-0.02434221623009954,
0.02653366583541147,0.02579063573953927,
0.02658354114713217,-0.011469807552488342,
0.02663341645885287,-0.008039956013127292,
0.026683291770573565,-0.0017788741685061515,
0.026733167082294264,-0.007783898689281359,
0.026783042394014963,-0.0025071750371950356,
0.026832917705735662,-0.025825496358387736,
0.026882793017456358,-0.01581809420330616,
0.026932668329177057,-0.016617913198477486,
0.026982543640897756,-0.0025745543995005764,
0.027032418952618455,-0.015497494593105794,
0.02708229426433915,-0.013758137561288457,
0.02713216957605985,-0.01316625089651177,
0.02718204488778055,0.0034862876107683953,
0.02723192019950125,-0.05728781337179366,
0.027281795511221944,-0.010935387442571182,
0.027331670822942643,-0.023017297410494443,
0.027381546134663343,-0.044269789747113764,
0.02743142144638404,-0.0336084141962135,
0.027481296758104738,-0.03385288824130511,
0.027531172069825437,-0.023974887407217142,
0.027581047381546136,-0.030233394266491583,
0.02763092269326683,-0.01695314393317397,
0.02768079800498753,-0.006052015286847902,
0.02773067331670823,-0.015373203310984714,
0.02778054862842893,-0.028208933079277614,
0.027830423940149625,-0.014884396651293555,
0.027880299251870324,-0.00854049714528868,
0.027930174563591023,-0.00012863383229995418,
0.027980049875311722,-0.03019379504994147,
0.028029925187032418,0.007759343801355581,
0.028079800498753117,-0.01530712705203566,
0.028129675810473816,-0.015669430819257354,
0.028179551122194512,-0.028331291143424794,
0.02822942643391521,-0.03759157026280656,
0.02827930174563591,-0.03883141770291486,
0.02832917705735661,0.009179122498264441,
0.028379052369077305,0.003887517426457765,
0.028428927680798004,-0.008186508469750001,
0.028478802992518704,-0.03405360955248156,
0.028528678304239403,-0.018996011951578393,
0.0285785536159601,-0.0395516025393269,
0.028628428927680798,-0.026395347338375348,
0.028678304239401497,-0.040925867753922957,
0.028728179551122196,-0.023203145709565665,
0.02877805486284289,-0.022356302126766106,
0.02882793017456359,-0.026668871488102958,
0.02887780548628429,-0.030752681759456918,
0.02892768079800499,-0.01915434166203728,
0.028977556109725685,-0.00871531115596588,
0.029027431421446384,0.002651523877736279,
0.029077306733167083,-0.026914589843532444,
0.02912718204488778,-0.007437812990803547,
0.029177057356608478,-0.007588283632585445,
0.029226932668329177,-0.010756055697372707,
0.029276807980049877,-0.0027777706911447826,
0.029326683291770572,-0.013565369961212843,
0.02937655860349127,-0.0160729176447533,
0.02942643391521197,-0.006682871093409646,
0.02947630922693267,0.012997405390516423,
0.029526184538653365,-0.038251066090966235,
0.029576059850374065,-0.012521430152067449,
0.029625935162094764,-0.02147227724269535,
0.029675810473815463,-0.030949164109752295,
0.02972568578553616,-0.0066640501863136185,
0.029775561097256858,-0.01928307806908427,
0.029825436408977557,-0.021471019183519898,
0.029875311720698253,-0.009129496518858565,
0.029925187032418952,-0.0020072541232487306,
0.02997506234413965,-0.03002096577933086,
0.03002493765586035,-0.010298533132219772,
0.030074812967581046,0.00787828641263779,
0.030124688279301745,-0.010577028136336406,
0.030174563591022444,-0.014449960676186223,
0.030224438902743143,-0.015380272338708211,
0.03027431421446384,-0.04257624961671656,
0.03032418952618454,-0.03996367324759463,
0.030374064837905237,0.0024895208567797984,
0.030423940149625937,0.0180562659560271,
0.030473815461346632,0.012515730921145177,
0.03052369077306733,0.01746830270245101,
0.03057356608478803,-0.01566214676742257,
0.03062344139650873,-0.012788606671033004,
0.030673316708229426,-0.028404666772509007,
0.030723192019950125,-0.026017624843296103,
0.030773067331670824,0.0014800797327388891,
0.03082294264339152,-0.020148691262738966,
0.03087281795511222,-0.01759603306759134,
0.030922693266832918,-0.013838916371086418,
0.030972568578553617,0.00473414698172878,
0.031022443890274313,-0.008504785855665269,
0.031072319201995012,-0.01728131044126471,
0.03112219451371571,-0.007917612290308036,
0.03117206982543641,0.005554094356779718,
0.031221945137157106,-0.016720409692474646,
0.03127182044887781,-0.022056063621487827,
0.031321695760598504,-0.020902531594371138,
0.0313715710723192,0.022774883183103646,
0.0314214463840399,-0.017787018140318647,
0.0314713216957606,-0.005969904553377836,
0.031521197007481294,-0.034285464287381266,
0.031571072319202,0.029056586012151286,
0.03162094763092269,-0.01419046571687969,
0.03167082294264339,0.002219315573261469,
0.03172069825436409,-0.006184450804007901,
0.03177057356608479,-0.015541650842633597,
0.03182044887780549,0.0060861451640664916,
0.031870324189526185,-0.012839324334910678,
0.03192019950124688,0.010872267560912446,
0.03197007481296758,0.03590816607118374,
0.03201995012468828,0.010085316860748997,
0.032069825436408975,-0.01526220993653627,
0.03211970074812968,-0.0057171564740147625,
0.03216957605985037,-0.027207346121621446,
0.032219451371571076,-0.03610494933017581,
0.03226932668329177,-0.021145631113559032,
0.03231920199501247,-0.00025688693092529844,
0.03236907730673317,0.004234006180393401,
0.032418952618453865,0.004266143517046815,
0.03246882793017456,0.007090881403687822,
0.032518703241895264,0.002466176661844309,
0.03256857855361596,0.01249291061895412,
0.032618453865336655,0.003497483558728926,
0.03266832917705736,-0.010273462523798188,
0.032718204488778053,0.01419275682344747,
0.032768079800498756,-0.015039356175807185,
0.03281795511221945,-0.01196228238348368,
0.03286783042394015,0.03320822858370516,
0.03291770573566085,-0.012782401533555419,
0.032967581047381546,0.015894060318976593,
0.03301745635910224,0.011869289909560144,
0.033067331670822944,-0.013405767046042984,
0.03311720698254364,0.0445504084723843,
0.03316708229426434,0.00022896944592064837,
0.03321695760598504,-0.0013276178941626577,
0.033266832917705734,-0.00036410608659047296,
0.03331670822942644,0.01214631237527412,
0.03336658354114713,-0.004921655669637464,
0.03341645885286783,-0.01537445432644978,
0.03346633416458853,0.01617249766680906,
0.033516209476309226,-0.012366889158950704,
0.03356608478802992,-0.015095226242627874,
0.033615960099750625,-0.0025175969394719607,
0.03366583541147132,0.04277093521016978,
0.03371571072319202,0.0015441246105529034,
0.03376558603491272,0.03298428453107184,
0.033815461346633414,0.00646682586953992,
0.03386533665835412,0.009831902455427664,
0.03391521197007481,0.012257698924624017,
0.03396508728179551,-0.00028821445564001895,
0.03401496259351621,0.009850258159110331,
0.03406483790523691,0.01798758440685852,
0.0341147132169576,0.013162797246501871,
0.034164588528678305,0.0008025945330653022,
0.034214463840399,0.02486962837603654,
0.034264339152119704,-0.01807194470012866,
0.0343142144638404,0.02085476183411638,
0.034364089775561095,0.017740955169977455,
0.0344139650872818,0.01304128735463812,
0.03446384039900249,0.02949566470883679,
0.03451371571072319,0.018214461485440744,
0.03456359102244389,-0.029907113647551407,
0.03461346633416459,0.0251050205863759,
0.03466334164588529,0.013354916406407402,
0.034713216957605986,0.015363912855328959,
0.03476309226932668,0.017437678497721612,
0.034812967581047384,0.01551291072737554,
0.03486284289276808,-0.0027014724055708685,
0.034912718204488775,0.005541221514144793,
0.03496259351620948,0.027774915007915842,
0.035012468827930174,0.014585013249864335,
0.03506234413965087,0.01784486256533259,
0.03511221945137157,0.02560634895108471,
0.03516209476309227,0.01230108195421265,
0.03521197007481297,0.03242878624669134,
0.035261845386533666,0.01958611369930347,
0.03531172069825436,-0.0002213477126633695,
0.035361596009975065,0.011741041966853018,
0.03541147132169576,0.010967415728803057,
0.035461346633416456,0.018137868353588656,
0.03551122194513716,0.0011375965515583383,
0.035561097256857854,0.044448231036782374,
0.03561097256857856,0.030201992325352714,
0.03566084788029925,0.02160024078323773,
0.03571072319201995,0.01967797828371994,
0.03576059850374065,0.032874627244156206,
0.03581047381546135,-0.004323224490458952,
0.03586034912718204,0.023390017634742577,
0.035910224438902745,0.0006458626108403337,
0.03596009975062344,0.03264509255672793,
0.036009975062344136,0.006405608234297101,
0.03605985037406484,0.02413171024226272,
0.036109725685785535,0.04881842143870517,
0.03615960099750624,0.03661639416496226,
0.03620947630922693,0.0047277328830537275,
0.03625935162094763,0.023528369935567058,
0.03630922693266833,0.02138259859623362,
0.03635910224438903,0.019673069063670022,
0.03640897755610972,0.0457242497971852,
0.036458852867830426,0.019883509904026545,
0.03650872817955112,0.055308781375277505,
0.036558603491271824,0.011450933233198264,
0.03660847880299252,0.022371979680030216,
0.036658354114713215,0.021546388112802985,
0.03670822942643392,0.025731044308343127,
0.036758104738154614,0.033657581105249745,
0.03680798004987531,0.041311886626697235,
0.03685785536159601,0.020348920120336702,
0.03690773067331671,0.019012614973282785,
0.0369576059850374,0.021005116240558584,
0.037007481296758106,0.03608012637716529,
0.0370573566084788,0.003841944022395141,
0.037107231920199504,0.015496458642747853,
0.0371571072319202,0.0494354770459537,
0.037206982543640896,-0.00922335735419878,
0.0372568578553616,0.035995003074624145,
0.037306733167082294,0.040413684020944404,
0.03735660847880299,0.036897502025518114,
0.03740648379052369,0.014963882850310754,
0.03745635910224439,0.03813472900851696,
0.037506234413965084,0.031913047138022975,
0.037556109725685786,0.03140436942408243,
0.03760598503740648,0.006343803341153288,
0.037655860349127185,0.018812802429368995,
0.03770573566084788,0.024239665493301765,
0.037755610972568576,0.06116823269425467,
0.03780548628428928,0.004574022676208562,
0.037855361596009975,0.02161490782757534,
0.03790523690773067,0.028808007058299914,
0.03795511221945137,0.02337825213483733,
0.03800498753117207,0.025322714150237537,
0.03805486284289277,-0.0015210715293408894,
0.03810473815461347,0.027046185896842805,
0.03815461346633416,0.006803752341087561,
0.038204488778054865,0.02200295150940942,
0.03825436408977556,0.02164678796710883,
0.03830423940149626,0.04295814793100531,
0.03835411471321696,-0.01296332577225191,
0.038403990024937655,-0.008955203735678697,
0.03845386533665835,0.013033431076361748,
0.03850374064837905,0.035979475830420334,
0.03855361596009975,0.027156682153384883,
0.03860349127182045,0.022225305264394094,
0.03865336658354115,0.042828069545714366,
0.03870324189526184,0.010066312783076249,
0.038753117206982546,0.013722907985604512,
0.03880299251870324,0.030302366269152267,
0.03885286783042394,0.02729186678792415,
0.03890274314214464,0.01138038915481119,
0.038952618453865336,0.013674976822543893,
0.03900249376558604,0.010209402846831368,
0.039052369077306734,0.002273519033085345,
0.03910224438902743,0.013098952041905552,
0.03915211970074813,-0.00882604146330387,
0.03920199501246883,0.01910095056959435,
0.039251870324189524,0.0183474589396653,
0.039301745635910226,0.02261132131430283,
0.03935162094763092,0.03964806988296918,
0.03940149625935162,0.018862986512255535,
0.03945137157107232,0.007683893581708345,
0.039501246882793016,0.01660311223986613,
0.03955112219451372,0.0050868683531641,
0.039600997506234414,0.027252660541499205,
0.03965087281795511,0.031915308894096606,
0.03970074812967581,0.032262936165150566,
0.03975062344139651,0.039422541181321866,
0.039800498753117204,-0.0043459478473165565,
0.03985037406483791,0.012016142458189074,
0.0399002493765586,0.05889223808587647,
0.039950124688279305,0.034274451344866896,
0.04,0.026448470475754146,
0.0400498753117207,0.016695812193955058,
0.0400997506234414,0.03703332556416702,
0.040149625935162095,0.013408482916700954,
0.04019950124688279,0.009719546928096538,
0.04024937655860349,0.021588081146030013,
0.04029925187032419,0.01598543199937884,
0.040349127182044885,0.0070694526020768905,
0.04039900249376559,0.008169586428230475,
0.04044887780548628,0.03233694747603098,
0.040498753117206986,0.03992053444557136,
0.04054862842892768,0.024041636272441262,
0.04059850374064838,0.007698994868715777,
0.04064837905236908,0.013975830160670433,
0.040698254364089775,0.0010477542916292222,
0.04074812967581047,-0.002360814844177647,
0.040798004987531174,0.018707190466092406,
0.04084788029925187,0.013341652686186093,
0.040897755610972565,0.03276238771664895,
0.04094763092269327,0.026706179225248046,
0.04099750623441396,-0.013035346538343514,
0.041047381546134666,0.03641058226326918,
0.04109725685785536,0.007291862550713645,
0.04114713216957606,0.005663024587023653,
0.04119700748129676,0.010038280413326097,
0.041246882793017456,0.011533328660875282,
0.04129675810473815,-0.008595635055123754,
0.041346633416458854,0.02068235265881136,
0.04139650872817955,0.004442590320924062,
0.04144638403990025,-0.005075521189309007,
0.04149625935162095,0.026933266094706636,
0.041546134663341644,-0.006154128883402034,
0.04159600997506235,0.016451992507468857,
0.04164588528678304,0.0038717312966013518,
0.04169576059850374,0.02934358413767952,
0.04174563591022444,0.019898937265885392,
0.041795511221945136,0.025111131025855212,
0.04184538653366583,-0.020349925880484395,
0.041895261845386535,0.0006355165279543704,
0.04194513715710723,0.005885035485650657,
0.04199501246882793,0.013584342822869702,
0.04204488778054863,0.02701865619106652,
0.042094763092269324,-0.01732129221897313,
0.04214463840399003,0.011716569919962392,
0.04219451371571072,-0.00568000249604007,
0.04224438902743142,0.0034403267357113227,
0.04229426433915212,-0.009302695038757799,
0.04234413965087282,0.04679736939827632,
0.04239401496259352,0.017156025533510835,
0.042443890274314215,0.0026885628238641976,
0.04249376558603491,-0.0042905216782311425,
0.042543640897755614,0.015829140545287338,
0.04259351620947631,0.0017965893146778059,
0.042643391521197005,0.010366890746228362,
0.04269326683291771,0.009158311597778766,
0.0427431421446384,-0.003042398074807406,
0.0427930174563591,0.012976743127247078,
0.0428428927680798,-0.006261080059618635,
0.0428927680798005,-0.013700745262515357,
0.0429426433915212,0.0066445840276742225,
0.042992518703241896,0.017807820326721756,
0.04304239401496259,-0.017049008786071226,
0.043092269326683294,0.0360449333056061,
0.04314214463840399,-0.01437483249279489,
0.043192019950124685,0.0058605295633006324,
0.04324189526184539,0.03670215873536678,
0.043291770573566084,-0.01921355776143947,
0.043341645885286786,-0.016534851465797425,
0.04339152119700748,0.020665872354271878,
0.04344139650872818,0.023568305346010652,
0.04349127182044888,-0.02608146352693763,
0.043541147132169576,-0.011947549349880153,
0.04359102244389027,-0.008090643791415626,
0.043640897755610975,-0.010026155345196786,
0.04369077306733167,0.004181485867892257,
0.043740648379052366,-0.00011812377251003113,
0.04379052369077307,-0.025155107263359924,
0.043840399002493764,0.018700308457972735,
0.04389027431421447,-0.023055968308079402,
0.04394014962593516,0.005802336977902292,
0.04399002493765586,-0.03851693630334334,
0.04403990024937656,-0.019180931534051465,
0.04408977556109726,-0.020134198068435888,
0.04413965087281795,0.02752691374631993,
0.044189526184538655,-0.014062639313462836,
0.04423940149625935,0.0012895440103267578,
0.04428927680798005,0.006512529446862503,
0.04433915211970075,0.004197558173978999,
0.044389027431421445,-0.013242158142213356,
0.04443890274314215,-0.010985085622931236,
0.04448877805486284,0.00378406975371914,
0.04453865336658354,-0.0037623273788915165,
0.04458852867830424,0.018075014516690507,
0.04463840399002494,-0.04179006961985779,
0.04468827930174563,0.009268400287212462,
0.044738154613466335,-0.003799416463474185,
0.04478802992518703,0.01938326219914957,
0.044837905236907734,0.027377772670215544,
0.04488778054862843,-0.009369141241932832,
0.044937655860349125,-0.0017634227601400175,
0.04498753117206983,-0.014457244105315183,
0.045037406483790524,0.006809783442694431,
0.04508728179551122,0.006921647861305984,
0.04513715710723192,-0.014363616310955623,
0.04518703241895262,0.0019034297975199198,
0.04523690773067331,-0.010882051917529074,
0.045286783042394016,-0.02274971262902127,
0.04533665835411471,-0.005793752564179828,
0.045386533665835414,-0.0020505739992607037,
0.04543640897755611,-0.0012987973207649658,
0.045486284289276806,-0.024293188270854076,
0.04553615960099751,-0.01429264901818812,
0.045586034912718204,-0.03564871051984865,
0.0456359102244389,-0.009374002197745777,
0.0456857855361596,-0.010352064490822573,
0.0457356608478803,-0.033156987718886304,
0.045785536159601,-0.033783853210460145,
0.045835411471321696,-0.0036482880030736554,
0.04588528678304239,0.0067661673444900546,
0.045935162094763095,-0.025241868917589803,
0.04598503740648379,-0.014918389412876973,
0.046034912718204486,-0.035493987581685565,
0.04608478802992519,0.00017410968695179448,
0.046134663341645885,0.008897273653293729,
0.04618453865336658,-0.03070300833670623,
0.04623441396508728,-0.03500703359383921,
0.04628428927680798,-0.016994278760556654,
0.04633416458852868,-0.011066365786872414,
0.04638403990024938,-0.033511527592271814,
0.04643391521197007,-0.032786520779478454,
0.046483790523690775,0.0010696889845195727,
0.04653366583541147,-0.039880780160308604,
0.04658354114713217,-0.03760918105591763,
0.04663341645885287,-0.017348456462305772,
0.046683291770573565,0.012844504262852245,
0.04673316708229427,-0.022844260458514506,
0.04678304239401496,-0.033098845371928066,
0.04683291770573566,-0.007400814521601599,
0.04688279301745636,0.001422199369854476,
0.04693266832917706,0.004909629462002503,
0.04698254364089775,-0.0099337151257557,
0.047032418952618456,-0.006796375865337432,
0.04708229426433915,-0.006582438881202968,
0.04713216957605985,-0.012765414890124886,
0.04718204488778055,0.011518371589826385,
0.047231920199501246,-0.01496112448491427,
0.04728179551122195,-0.017179579171190652,
0.047331670822942644,-0.0029741562925590225,
0.04738154613466334,-0.012971162452127517,
0.04743142144638404,0.012862889436409158,
0.04748129675810474,0.013610549643071328,
0.047531172069825434,-0.03051411771230216,
0.047581047381546136,-0.004078258746368135,
0.04763092269326683,-0.015663877593568475,
0.047680798004987535,-0.011264255617262083,
0.04773067331670823,0.0012327943943016909,
0.047780548628428926,-0.02048767181845074,
0.04783042394014963,-0.028590392438636848,
0.047880299251870324,-0.025054754145470585,
0.04793017456359102,-0.018569135432703582,
0.04798004987531172,-0.04642222090879229,
0.04802992518703242,-0.02176009572718342,
0.048079800498753114,-0.01662576128566354,
0.04812967581047382,-0.002908697838166356,
0.04817955112219451,-0.025426252870233985,
0.048229426433915215,-0.01014119736404484,
0.04827930174563591,-0.015182457580428054,
0.048329177057356607,-0.0034884398761977804,
0.04837905236907731,0.0013185199022435166,
0.048428927680798005,-0.022394823784966142,
0.0484788029925187,0.0014921245986167855,
0.0485286783042394,-0.0012672614706679703,
0.0485785536159601,-0.02095044066807459,
0.048628428927680795,0.0001127014514328839,
0.0486783042394015,-0.011872654215545349,
0.04872817955112219,-0.004954891673644395,
0.048778054862842896,-0.006944375965623627,
0.04882793017456359,-0.02331532805999473,
0.04887780548628429,-0.02453981103235786,
0.04892768079800499,0.004484806924796315,
0.048977556109725685,-0.022021413724574758,
0.04902743142144638,-0.04519401483653952,
0.049077306733167084,-0.0255971381144958,
0.04912718204488778,0.0036204051177866035,
0.04917705735660848,0.007280572041246984,
0.04922693266832918,0.0025447778123798195,
0.04927680798004987,-0.02027401662043521,
0.049326683291770576,-0.019307726685103485,
0.04937655860349127,-0.008291515184070248,
0.04942643391521197,-0.005104490971214886,
0.04947630922693267,-0.04415235645410595,
0.049526184538653366,-0.027131804607639934,
0.04957605985037406,-0.011896046812519549,
0.049625935162094764,-0.01759470372846839,
0.04967581047381546,-0.02500371229100238,
0.04972568578553616,-0.0063477015037417825,
0.04977556109725686,-0.021188075897114925,
0.049825436408977554,-0.04074555294029261,
0.04987531172069826,0.0024296387748940704,
0.04992518703241895,-0.013802041254468494,
0.04997506234413965,-0.0070678670316487655,
0.05002493765586035,-0.028301102771141826,
0.050074812967581046,-0.026371591448770697,
0.05012468827930175,-0.03761107314581752,
0.050174563591022445,-0.005503245777156254,
0.05022443890274314,-0.014229984213364591,
0.05027431421446384,0.006970011839228532,
0.05032418952618454,-0.020103713677145064,
0.050374064837905234,-0.025226936814822555,
0.05042394014962594,-0.02548621621219617,
0.05047381546134663,0.0013009982753591793,
0.05052369077306733,0.025009916869418433,
0.05057356608478803,-0.0149440053587385,
0.05062344139650873,-0.00020377388948587642,
0.05067331670822943,-0.016932196428404614,
0.050723192019950125,-0.01481077786500229,
0.05077306733167082,-0.026074810124258753,
0.050822942643391524,-0.0066124659805823875,
0.05087281795511222,-0.017575615897677803,
0.050922693266832915,-0.021690308856509855,
0.05097256857855362,0.009982916720338275,
0.05102244389027431,0.005822223028948711,
0.051072319201995016,0.010951151241413682,
0.05112219451371571,-0.002960826924392198,
0.05117206982543641,-0.018282535315970166,
0.05122194513715711,-0.0009206994390394494,
0.051271820448877806,-0.0018111538357475834,
0.0513216957605985,-0.018430938099198498,
0.051371571072319204,0.022847365399801516,
0.0514214463840399,-0.005051830252216026,
0.051471321695760595,-0.0021351910681969874,
0.0515211970074813,-0.001823310470035134,
0.051571072319201994,0.0031517089330918725,
0.051620947630922696,-0.007761911917007048,
0.05167082294264339,0.015396403047245773,
0.05172069825436409,0.018484190408464503,
0.05177057356608479,-0.03180095447400647,
0.051820448877805486,-0.0060512215143749305,
0.05187032418952618,0.014349194356794482,
0.051920199501246884,0.004778542725617233,
0.05197007481296758,-0.018002659916557473,
0.052019950124688276,-0.007335765295351596,
0.05206982543640898,0.021523081464737026,
0.052119700748129674,-0.024684960718863693,
0.05216957605985038,0.0013407225102169296,
0.05221945137157107,-0.0016731297451366043,
0.05226932668329177,-0.0057775458197615575,
0.05231920199501247,-0.004364481481386602,
0.05236907730673317,0.010138076298992865,
0.05241895261845386,0.011425235425457859,
0.052468827930174565,0.006133047700653066,
0.05251870324189526,0.010978484640630438,
0.05256857855361596,-0.00011837608292005267,
0.05261845386533666,0.023037825028489355,
0.052668329177057355,0.013403261392948422,
0.05271820448877806,-0.005648841315011193,
0.05276807980049875,0.010757696111143529,
0.05281795511221945,0.019260377290089826,
0.05286783042394015,0.0070174232320926126,
0.05291770573566085,-0.010225446432686948,
0.05296758104738154,-0.022812078977921882,
0.053017456359102245,0.01459759267268184,
0.05306733167082294,-0.011139091454444765,
0.053117206982543644,-0.007020199291370186,
0.05316708229426434,-0.006219280521906432,
0.053216957605985035,-0.008579521644223383,
0.05326683291770574,0.0013108554375940301,
0.053316708229426434,0.00790990593873659,
0.05336658354114713,-0.003979079064080359,
0.05341645885286783,-0.005579835881611013,
0.05346633416458853,0.0021942455559314043,
0.05351620947630923,0.004520732844151237,
0.053566084788029926,0.012302518796212253,
0.05361596009975062,0.011855151838574546,
0.053665835411471324,-0.009588751522425325,
0.05371571072319202,0.022031692046279895,
0.053765586034912716,-0.011106652502138301,
0.05381546134663342,0.013489052500909825,
0.053865336658354114,0.008048468125506714,
0.05391521197007481,0.03561447708568208,
0.05396508728179551,0.003820512519066784,
0.05401496259351621,0.011679305285042614,
0.05406483790523691,0.01236105879773459,
0.054114713216957606,0.020570488402542067,
0.0541645885286783,0.02958912184187591,
0.054214463840399005,0.01617124436210788,
0.0542643391521197,0.047120709610687164,
0.054314214463840396,0.008892949397065471,
0.0543640897755611,0.031047325069861745,
0.054413965087281795,0.01689091968478243,
0.0544638403990025,0.015707225239360068,
0.05451371571072319,-0.004284847778194278,
0.05456359102244389,0.022963099680469126,
0.05461346633416459,0.011079985176323253,
0.05466334164588529,0.014297498371840151,
0.05471321695760598,0.01476379468746879,
0.054763092269326685,0.023396474554177035,
0.05481296758104738,0.03307472486075489,
0.05486284289276808,0.012935180074881012,
0.05491271820448878,0.011092976431443781,
0.054962593516209475,0.019970228629292427,
0.05501246882793018,0.0007561174111978507,
0.05506234413965087,0.0038710430097877915,
0.05511221945137157,0.024859584551086777,
0.05516209476309227,0.008739753632027981,
0.05521197007481297,0.029416352909436044,
0.05526184538653366,0.01618868219847857,
0.055311720698254366,0.012728487026010671,
0.05536159600997506,0.03529012741847204,
0.05541147132169576,0.008522547808876365,
0.05546134663341646,0.0186528017827857,
0.055511221945137156,0.009358623153987947,
0.05556109725685786,0.018857586141480955,
0.055610972568578554,0.02888415013078751,
0.05566084788029925,0.02177750359018078,
0.05571072319201995,0.01909810892419306,
0.05576059850374065,0.017916480159068316,
0.055810473815461344,0.024091517695374945,
0.055860349127182046,0.026991979612503447,
0.05591022443890274,0.026953535692664933,
0.055960099750623445,0.023253303620694027,
0.05600997506234414,0.012070137188593635,
0.056059850374064836,0.018964323470116243,
0.05610972568578554,0.01455167061113665,
0.056159600997506234,0.027056350849136702,
0.05620947630922693,0.01757882342337374,
0.05625935162094763,0.018148707578711426,
0.05630922693266833,0.04343716863341937,
0.056359102244389024,0.020606880952913815,
0.05640897755610973,-0.004989353996791589,
0.05645885286783042,0.04717384935859629,
0.056508728179551125,0.022383651541957435,
0.05655860349127182,0.017835858450486644,
0.056608478802992516,0.017908890046653664,
0.05665835411471322,0.017770455187465194,
0.056708229426433915,0.04135289448898957,
0.05675810473815461,0.014517691733422194,
0.05680798004987531,0.01460656594049651,
0.05685785536159601,0.020677701447066238,
0.05690773067331671,7.482405680886775e-05,
0.05695760598503741,0.01720719957639788,
0.0570074812967581,0.038143416431505366,
0.057057356608478806,0.028190031038080918,
0.0571072319201995,0.03179032770216791,
0.0571571072319202,0.014897557325260621,
0.0572069825436409,-3.361443684550547e-05,
0.057256857855361595,0.03355266365764759,
0.05730673316708229,0.009513933158962387,
0.057356608478802994,0.0012175251726166889,
0.05740648379052369,0.012806855378896448,
0.05745635910224439,0.014434225890844733,
0.05750623441396509,0.007682308486102733,
0.05755610972568578,0.024635100401894466,
0.057605985037406486,0.05622375889237404,
0.05765586034912718,0.023608207370176253,
0.05770573566084788,0.014920405368477337,
0.05775561097256858,0.02523358410326178,
0.057805486284289276,0.03824111467397639,
0.05785536159600998,-0.007787885398561296,
0.057905236907730674,0.018145161103621844,
0.05795511221945137,0.028151431175935444,
0.05800498753117207,0.02957779484530139,
0.05805486284289277,0.017292842853206203,
0.058104738154613464,0.004567717701548367,
0.05815461346633417,0.027207292401466365,
0.05820448877805486,0.012881351828603211,
0.05825436408977556,-0.015534621962044345,
0.05830423940149626,0.025878955464688082,
0.058354114713216956,0.02774655403029474,
0.05840399002493766,0.0209172000618413,
0.058453865336658355,0.04924206653369151,
0.05850374064837905,0.030912491837507838,
0.05855361596009975,0.02593596372564602,
0.05860349127182045,0.04595039014328299,
0.058653366583541144,0.051397133426402244,
0.05870324189526185,0.03692842169321417,
0.05875311720698254,0.01695686266338839,
0.05880299251870324,0.02997406041857669,
0.05885286783042394,0.03556630141864763,
0.05890274314214464,-0.012361806128219289,
0.05895261845386534,0.005643858499141074,
0.059002493765586035,0.03158602302065358,
0.05905236907730673,0.02151954336272093,
0.059102244389027433,0.030784366195146805,
0.05915211970074813,0.03297419103584988,
0.059201995012468825,0.009363554430987936,
0.05925187032418953,0.01960415779599208,
0.05930174563591022,0.024541770650305703,
0.059351620947630926,0.03503855918165512,
0.05940149625935162,0.03492088770421182,
0.05945137157107232,-0.0021825839630790315,
0.05950124688279302,-0.009962671513255503,
0.059551122194513716,0.013296584212475758,
0.05960099750623441,0.03871641348597471,
0.059650872817955114,0.013109870766514247,
0.05970074812967581,0.053738488847456196,
0.059750623441396505,0.0016465183259668052,
0.05980049875311721,0.005764195082734024,
0.059850374064837904,0.010658018665882249,
0.059900249376558606,0.006151970432275637,
0.0599501246882793,0.00752433875529848,
0.06,0.02377565891785428,
0.0600498753117207,0.020485714551593294,
0.060099750623441396,0.004750788919318622,
0.06014962593516209,0.02075220939550525,
0.060199501246882794,0.009561629444268981,
0.06024937655860349,0.030122833542907956,
0.06029925187032419,0.023369631224488326,
0.06034912718204489,0.026685428390927062,
0.060399002493765584,0.01951268644490678,
0.06044887780548629,0.016434184183387417,
0.06049875311720698,0.020974555817970662,
0.06054862842892768,0.057614797093702166,
0.06059850374064838,0.010034803938012739,
0.06064837905236908,0.02718072646155418,
0.06069825436408977,0.026838257487238212,
0.060748129675810475,0.052431866801718616,
0.06079800498753117,0.03466144104360608,
0.06084788029925187,-0.010002572418820261,
0.06089775561097257,0.011142990466046918,
0.060947630922693265,-0.01639035390926622,
0.06099750623441397,0.021156520823099333,
0.06104738154613466,0.019364097466509664,
0.06109725685785536,0.010518690421200242,
0.06114713216957606,0.019332909823938826,
0.06119700748129676,0.02558462849455813,
0.06124688279301746,0.006270717200414673,
0.061296758104738155,-0.0013275469899192722,
0.06134663341645885,0.005352458103630279,
0.061396508728179554,0.020887036538514606,
0.06144638403990025,0.013309267668104066,
0.061496259351620945,0.02596240677323263,
0.06154613466334165,-0.006957246088272549,
0.061596009975062344,0.025722926311245203,
0.06164588528678304,0.03132676946552779,
0.06169576059850374,0.04088859157921427,
0.06174563591022444,0.01610623244580721,
0.06179551122194514,0.013660686553561686,
0.061845386533665836,0.022696060887507315,
0.06189526184538653,0.010227497630104943,
0.061945137157107234,-0.001958401331714406,
0.06199501246882793,-0.01153079371828604,
0.062044887780548626,-0.0012122578829074117,
0.06209476309226933,0.03131194042134408,
0.062144638403990024,0.013970904971257598,
0.06219451371571072,-0.012091891655018552,
0.06224438902743142,0.009551192320073995,
0.06229426433915212,0.01599049819685574,
0.06234413965087282,0.022271035831007226,
0.062394014962593516,-0.003922762463577698,
0.06244389027431421,0.005855155641990073,
0.062493765586034915,-0.01740859073937983,
0.06254364089775562,0.014578881416151553,
0.06259351620947631,-0.0271486133028403,
0.06264339152119701,0.0019595596760103254,
0.0626932668329177,-0.0028425490864937685,
0.0627431421446384,0.03123166171940576,
0.0627930174563591,0.025237452547706967,
0.0628428927680798,-0.00925374674840024,
0.0628927680798005,0.000311911649673164,
0.0629426433915212,-0.025256730098772953,
0.06299251870324189,-0.010548452834308237,
0.06304239401496259,-0.012182973215329292,
0.0630922693266833,0.00837942990343205,
0.063142144638404,0.012209733922328192,
0.06319201995012469,-0.013298143791341725,
0.06324189526184539,0.022109857889951023,
0.06329177057356608,0.03111707827089115,
0.06334164588528678,-0.008065481478057544,
0.06339152119700749,-0.009611194518303052,
0.06344139650872818,0.01517892897294345,
0.06349127182044888,-0.0015741284077651551,
0.06354114713216957,0.0004352466242937303,
0.06359102244389027,0.002676078450390098,
0.06364089775561098,0.00693223361539844,
0.06369077306733167,0.03715341443249494,
0.06374064837905237,-0.006066813281959652,
0.06379052369077307,0.006225684927399471,
0.06384039900249376,-0.0206816564026705,
0.06389027431421446,-0.03067766124388987,
0.06394014962593517,0.014774879040244975,
0.06399002493765586,-0.009728561109655209,
0.06403990024937656,0.007360807248138234,
0.06408977556109725,0.005055982833718543,
0.06413965087281795,0.008400647463766068,
0.06418952618453866,-0.010624544320102984,
0.06423940149625935,0.005537973367753898,
0.06428927680798005,0.021557023770679782,
0.06433915211970075,-0.0015729467829173971,
0.06438902743142144,0.011829625544491296,
0.06443890274314215,-0.010186143511122387,
0.06448877805486285,-0.008161755792616639,
0.06453865336658354,0.014612447297286887,
0.06458852867830424,-0.01295626193277406,
0.06463840399002493,-0.01203842413352824,
0.06468827930174563,-0.01346485244340177,
0.06473815461346634,-0.019489364934970967,
0.06478802992518704,0.002182910421934939,
0.06483790523690773,-0.008295028116538324,
0.06488778054862843,-0.0015896203615686274,
0.06493765586034912,-0.02069809568939339,
0.06498753117206983,-0.015928479385991873,
0.06503740648379053,0.002247453353703051,
0.06508728179551122,-0.01586612033178201,
0.06513715710723192,0.0021363154163517428,
0.06518703241895261,-0.009891615781800086,
0.06523690773067331,-0.003783129661593834,
0.06528678304239402,0.024811016090597104,
0.06533665835411472,0.0035927508391688685,
0.06538653366583541,0.01153573717862845,
0.06543640897755611,-0.024255982631964833,
0.0654862842892768,-0.0030996264838769353,
0.06553615960099751,0.012863108656151005,
0.06558603491271821,-0.0013854241081333873,
0.0656359102244389,-0.012381426687149373,
0.0656857855361596,-0.013151850479851925,
0.0657356608478803,-0.023248351742967376,
0.06578553615960099,-0.015748230130544393,
0.0658354114713217,-0.020542711877671795,
0.0658852867830424,-0.021627038821872106,
0.06593516209476309,-0.0026784201833691297,
0.06598503740648379,-0.01768961165239508,
0.06603491271820448,-0.003046694953350821,
0.06608478802992519,-0.01067045347260096,
0.06613466334164589,0.019587287172185067,
0.06618453865336658,-0.015180297245773399,
0.06623441396508728,-0.0030980725956438124,
0.06628428927680798,-0.022363267062301476,
0.06633416458852869,-0.017806821834823437,
0.06638403990024938,-0.013823517118369506,
0.06643391521197008,-0.0094513230095139,
0.06648379052369077,-0.01442663993873413,
0.06653366583541147,-0.02477104465677272,
0.06658354114713216,-0.0008191789835231451,
0.06663341645885287,-0.006049452059628537,
0.06668329177057357,0.0017697397406627353,
0.06673316708229426,-0.013310305162857134,
0.06678304239401496,0.006701741793501196,
0.06683291770573566,-0.01609517129239512,
0.06688279301745637,-0.035979797905195954,
0.06693266832917706,-0.0121153180177338,
0.06698254364089776,-0.04749781537270013,
0.06703241895261845,-0.010758703145959498,
0.06708229426433915,-0.010210438223317214,
0.06713216957605984,-0.0453446594407158,
0.06718204488778055,-0.043642502758846936,
0.06723192019950125,-0.02985666778779146,
0.06728179551122195,-0.015641831006980716,
0.06733167082294264,-0.034152763066172015,
0.06738154613466334,0.004340174888775958,
0.06743142144638405,-0.03169229941196009,
0.06748129675810474,-0.0019430663177847848,
0.06753117206982544,-0.04557584713585821,
0.06758104738154613,0.0056879116879555314,
0.06763092269326683,-0.0030306857240381575,
0.06768079800498752,-0.03991172329594355,
0.06773067331670823,-0.013489150747063607,
0.06778054862842893,-0.006679951027187554,
0.06783042394014963,0.007207553728081843,
0.06788029925187032,-0.037532068078791586,
0.06793017456359102,0.010501390517648854,
0.06798004987531173,-0.018548851686814524,
0.06802992518703242,0.01901243681980728,
0.06807980049875312,0.009714046362994843,
0.06812967581047381,-0.06547863805582768,
0.06817955112219451,-0.004805681459825666,
0.0682294264339152,-0.017565434086197915,
0.06827930174563591,-0.0010957757140926498,
0.06832917705735661,-0.006072592422867834,
0.0683790523690773,-0.009969797258013838,
0.068428927680798,-0.0037977551759903246,
0.0684788029925187,-0.02953074408140001,
0.06852867830423941,-0.04211823764856847,
0.0685785536159601,-0.004882738768354246,
0.0686284289276808,-0.009831635348668554,
0.0686783042394015,0.0037502409408673373,
0.06872817955112219,-0.0053890927550060246,
0.0687780548628429,-0.020936380803199733,
0.0688279301745636,-0.009172518828345584,
0.06887780548628429,0.006654078097140156,
0.06892768079800499,-0.010832081416266272,
0.06897755610972568,-0.04492937791474477,
0.06902743142144638,0.008033401206648059,
0.06907730673316709,-0.029232559201131464,
0.06912718204488778,-0.02223656063880436,
0.06917705735660848,-0.02885067789443111,
0.06922693266832917,-0.010143947058753027,
0.06927680798004987,-0.018755257648481453,
0.06932668329177058,-0.0029616657824104893,
0.06937655860349128,0.0006913491342639671,
0.06942643391521197,-0.03643087205305091,
0.06947630922693267,-0.04534403457349731,
0.06952618453865336,-0.021347963475448466,
0.06957605985037406,0.001783602713092169,
0.06962593516209477,-0.006463171519325359,
0.06967581047381546,-0.0005318582358434468,
0.06972568578553616,-0.030120335388046475,
0.06977556109725686,-0.029865290612609882,
0.06982543640897755,-0.0001891844833263913,
0.06987531172069826,-0.028245207873327405,
0.06992518703241896,-0.006050704228615556,
0.06997506234413965,-0.034588692707706745,
0.07002493765586035,-0.01379748480324492,
0.07007481296758104,-0.021317216100171794,
0.07012468827930174,-0.0011307216892712628,
0.07017456359102245,-0.03473136352959115,
0.07022443890274314,0.003996553882951398,
0.07027431421446384,-0.007798711816709217,
0.07032418952618454,0.0037216827396199543,
0.07037406483790523,-0.020633377784351013,
0.07042394014962594,0.003392234569202405,
0.07047381546134664,-0.017142420075180735,
0.07052369077306733,0.013119666068130746,
0.07057356608478803,-0.03253472730701305,
0.07062344139650872,-0.03201999803084023,
0.07067331670822943,-0.008706882432750493,
0.07072319201995013,-0.005028840357898497,
0.07077306733167082,-0.004269314830644558,
0.07082294264339152,0.0020897368794806984,
0.07087281795511222,-0.02762782255752798,
0.07092269326683291,0.01965491871380738,
0.07097256857855362,-0.007512537612859864,
0.07102244389027432,0.0055674811259213,
0.07107231920199501,-0.00442661041960938,
0.07112219451371571,0.00928907609223583,
0.0711720698254364,0.04967246907110198,
0.07122194513715711,-0.019866669200400866,
0.07127182044887781,-0.003052956623890647,
0.0713216957605985,-0.006922539088201642,
0.0713715710723192,0.015598876802455676,
0.0714214463840399,0.006774284147512285,
0.07147132169576059,0.012083029357081217,
0.0715211970074813,-0.009354462492297287,
0.071571072319202,0.008731236618439477,
0.0716209476309227,-0.01573116728944167,
0.07167082294264339,-0.010394676363271444,
0.07172069825436408,0.01495117038344254,
0.0717705735660848,0.012472205174953507,
0.07182044887780549,0.0143572169079682,
0.07187032418952619,-0.013854880034106877,
0.07192019950124688,0.010449185288261739,
0.07197007481296758,-0.015132698709607132,
0.07201995012468827,0.0008820803124713391,
0.07206982543640898,0.012548645691627495,
0.07211970074812968,0.00595810016217158,
0.07216957605985037,0.019059429782412225,
0.07221945137157107,-0.022009186770846685,
0.07226932668329177,-0.00495294649919912,
0.07231920199501247,-0.017780258961732274,
0.07236907730673317,-0.003734284419485845,
0.07241895261845387,0.0022397686405315944,
0.07246882793017456,0.003301458251802062,
0.07251870324189526,0.016212631780163588,
0.07256857855361595,0.01750242209983871,
0.07261845386533666,-0.0037670708881886524,
0.07266832917705736,0.0108898830141448,
0.07271820448877805,0.029400685160651904,
0.07276807980049875,0.028887089075286525,
0.07281795511221945,0.005515266588378572,
0.07286783042394016,0.013822467343601022,
0.07291770573566085,0.00522282592614463,
0.07296758104738155,-0.028679433699037034,
0.07301745635910224,-0.012638167769459984,
0.07306733167082294,-0.0009502234873511326,
0.07311720698254365,0.00037557280041511983,
0.07316708229426434,0.0014234518985155858,
0.07321695760598504,-0.0035263742755666516,
0.07326683291770573,0.007238307028052173,
0.07331670822942643,0.004641692499786448,
0.07336658354114713,-0.0022946929817585504,
0.07341645885286784,-0.0007145887621085208,
0.07346633416458853,-0.0010766245079766295,
0.07351620947630923,0.026333677456601944,
0.07356608478802992,0.017710454855494946,
0.07361596009975062,0.003668323512711267,
0.07366583541147133,0.021510033656422553,
0.07371571072319202,0.003704031515001565,
0.07376558603491272,0.007493661891255679,
0.07381546134663342,0.007127009861837048,
0.07386533665835411,0.028767205394273028,
0.0739152119700748,0.01594150123959403,
0.07396508728179552,0.0060574234350228105,
0.07401496259351621,0.03266474063526614,
0.07406483790523691,0.010053994682807632,
0.0741147132169576,-0.0028075204268733153,
0.0741645885286783,0.003202736378031718,
0.07421446384039901,-0.010048332206817143,
0.0742643391521197,0.003322540280515063,
0.0743142144638404,0.007606849378393137,
0.0743640897755611,-0.002327003248950455,
0.07441396508728179,0.003828597431920525,
0.07446384039900249,-0.0006444580259636398,
0.0745137157107232,0.029385092865301457,
0.07456359102244389,-0.008757115943769385,
0.07461346633416459,-0.003010530294430047,
0.07466334164588528,0.016957980983893513,
0.07471321695760598,-0.007829870579262429,
0.07476309226932669,0.018726415927050072,
0.07481296758104738,-0.0005234257756518146,
0.07486284289276808,0.0237669062797524,
0.07491271820448878,0.008161620478025324,
0.07496259351620947,0.010682500150096311,
0.07501246882793017,0.028255629091893903,
0.07506234413965088,0.018763495012207684,
0.07511221945137157,-0.006747453210583922,
0.07516209476309227,0.019761419028653558,
0.07521197007481296,0.015097693021251603,
0.07526184538653366,0.014005700968738106,
0.07531172069825437,0.012236753310378712,
0.07536159600997507,0.006140040880764697,
0.07541147132169576,0.023144754886139214,
0.07546134663341646,0.0102471300778118,
0.07551122194513715,0.04711344622654191,
0.07556109725685786,0.04619007889369528,
0.07561097256857856,0.019783012505537004,
0.07566084788029925,0.03336291521277995,
0.07571072319201995,0.017295555856152625,
0.07576059850374064,0.014659379590113215,
0.07581047381546134,0.02171438491943748,
0.07586034912718205,0.0077130585431945155,
0.07591022443890275,0.008839612298979532,
0.07596009975062344,0.05209513354418725,
0.07600997506234414,0.021326773958887348,
0.07605985037406483,0.030214789704371796,
0.07610972568578554,0.033423438293890065,
0.07615960099750624,0.009583226271848067,
0.07620947630922693,0.0020072118674666455,
0.07625935162094763,0.04691743539784042,
0.07630922693266833,0.026442013153464575,
0.07635910224438902,0.023617485690328673,
0.07640897755610973,0.029677295998520578,
0.07645885286783043,0.02987569716586689,
0.07650872817955112,0.03896715184899582,
0.07655860349127182,0.03696512360922356,
0.07660847880299251,0.024030774113270818,
0.07665835411471322,0.024383169819511635,
0.07670822942643392,0.044722383960255276,
0.07675810473815461,0.0013439837161771905,
0.07680798004987531,0.026114223172577094,
0.076857855361596,0.007225549319358659,
0.0769077306733167,-9.312289494078224e-05,
0.07695760598503741,0.013804263322403492,
0.0770074812967581,0.008093580916416158,
0.0770573566084788,0.03362821880867227,
0.0771072319201995,-0.0036338356432104313,
0.0771571072319202,0.0431220986439714,
0.0772069825436409,0.019607588855439867,
0.0772568578553616,0.037467404723807676,
0.0773067331670823,0.015643422112281785,
0.07735660847880299,0.014306183384004318,
0.07740648379052369,0.01986885825642984,
0.0774563591022444,0.019287977678582025,
0.07750623441396509,0.02030863675261362,
0.07755610972568579,0.013442120843151256,
0.07760598503740648,0.024176918011751557,
0.07765586034912718,0.029268645284102647,
0.07770573566084787,0.0324406278046866,
0.07775561097256858,0.04393450303892878,
0.07780548628428928,0.02744668061365064,
0.07785536159600998,0.035178693319465215,
0.07790523690773067,0.04710553224548912,
0.07795511221945137,0.014298220641396303,
0.07800498753117208,0.035187143882068624,
0.07805486284289277,0.015212168348702832,
0.07810473815461347,0.015541515166003592,
0.07815461346633416,0.02682586102761395,
0.07820448877805486,-0.01739185623900599,
0.07825436408977555,0.021540384028289315,
0.07830423940149626,0.014144726509344506,
0.07835411471321696,0.003542818171637995,
0.07840399002493766,0.03563919329925857,
0.07845386533665835,0.01454739950744652,
0.07850374064837905,0.03305839002107074,
0.07855361596009976,0.03675558040188628,
0.07860349127182045,0.038029079822318436,
0.07865336658354115,0.060473520517580565,
0.07870324189526184,0.015811939127419114,
0.07875311720698254,0.007352957704652913,
0.07880299251870324,0.057101635660685095,
0.07885286783042394,0.02062044798709437,
0.07890274314214464,0.021839723137562977,
0.07895261845386534,0.03784012763833512,
0.07900249376558603,0.024088800314043687,
0.07905236907730673,0.02134352395769512,
0.07910224438902744,0.037948135458587905,
0.07915211970074813,0.005279145674892263,
0.07920199501246883,0.006702187409624031,
0.07925187032418952,0.023875142525597273,
0.07930174563591022,-0.0046230028014243585,
0.07935162094763092,-0.0016717333921637371,
0.07940149625935163,0.04862854211079967,
0.07945137157107232,-0.00029132769107510087,
0.07950124688279302,0.015480290809617853,
0.07955112219451371,0.035052095885536205,
0.07960099750623441,0.037546760168758866,
0.07965087281795512,0.028998174088234484,
0.07970074812967581,0.014941356452904826,
0.07975062344139651,0.009569113490104525,
0.0798004987531172,0.017939686108573456,
0.0798503740648379,0.026385820373532473,
0.07990024937655861,0.0014646808308080572,
0.0799501246882793,0.030552453072908214,
0.08,0.021830503235787967,
0.0800498753117207,0.0115565177254843,
0.0800997506234414,0.030199339395396048,
0.08014962593516209,0.04111393572458884,
0.0801995012468828,0.023176645720280692,
0.0802493765586035,0.02217184885126866,
0.08029925187032419,0.014504701398266996,
0.08034912718204489,-0.004790073856162643,
0.08039900249376558,0.006646217949853582,
0.08044887780548629,0.01918752761041667,
0.08049875311720699,-0.001499476860280867,
0.08054862842892768,0.009460274354110731,
0.08059850374064838,0.001999120327094022,
0.08064837905236907,0.020035186852466358,
0.08069825436408977,0.02818952470270855,
0.08074812967581048,0.028456968215075193,
0.08079800498753117,0.03973977637911369,
0.08084788029925187,-0.0006804877091956887,
0.08089775561097257,0.031144225713859518,
0.08094763092269326,0.021260559797362202,
0.08099750623441397,0.022906242202015474,
0.08104738154613467,0.0394088908803077,
0.08109725685785536,-0.00961127300061023,
0.08114713216957606,0.014068843774693349,
0.08119700748129675,0.009052862733010498,
0.08124688279301745,0.0014595892890909012,
0.08129675810473816,0.012635544485413923,
0.08134663341645886,0.021259707244170277,
0.08139650872817955,0.014727666091642163,
0.08144638403990025,-0.010945788715699413,
0.08149625935162094,0.0108368490479499,
0.08154613466334165,-0.003252622746896562,
0.08159600997506235,0.0005960442011212486,
0.08164588528678304,-0.0002788656415412972,
0.08169576059850374,0.039440637840704035,
0.08174563591022443,0.0060723883616499025,
0.08179551122194513,0.005446605637593687,
0.08184538653366584,0.012212963934828335,
0.08189526184538654,0.0027116250628643843,
0.08194513715710723,0.02672195125288976,
0.08199501246882793,0.02079539383072225,
0.08204488778054862,0.01701787117902987,
0.08209476309226933,0.009853700487484792,
0.08214463840399003,0.020062378555573107,
0.08219451371571072,0.008097835312323344,
0.08224438902743142,0.02244116817761078,
0.08229426433915212,0.013562812047634612,
0.08234413965087282,0.00035939857123837814,
0.08239401496259352,0.00823991656444469,
0.08244389027431422,0.020414893368984034,
0.08249376558603491,0.010458531327493852,
0.08254364089775561,-0.004367205360117995,
0.0825935162094763,0.03803266632598176,
0.08264339152119701,0.0011113396635809934,
0.08269326683291771,0.008108809178876672,
0.0827431421446384,0.006399044449681353,
0.0827930174563591,0.03775332188416417,
0.0828428927680798,0.004638203744720197,
0.0828927680798005,0.018945486922481637,
0.0829426433915212,0.018950638663002308,
0.0829925187032419,-0.01197585391831286,
0.08304239401496259,0.029446947565587765,
0.08309226932668329,0.007535786500609356,
0.08314214463840398,0.004949019818394379,
0.0831920199501247,0.009415142676582966,
0.08324189526184539,0.03645835555578002,
0.08329177057356608,0.003906421527027454,
0.08334164588528678,0.006699017915655119,
0.08339152119700748,0.015401481712827915,
0.08344139650872819,0.0069707167283242135,
0.08349127182044888,0.01985972361720241,
0.08354114713216958,0.008779995901263042,
0.08359102244389027,0.01924875421380405,
0.08364089775561097,0.01143993685871961,
0.08369077306733166,0.003928789569184389,
0.08374064837905237,0.017273385089894636,
0.08379052369077307,0.012866265804596239,
0.08384039900249377,-0.001643034239331498,
0.08389027431421446,-0.010154081501851667,
0.08394014962593516,0.003056435959205771,
0.08399002493765587,0.017979987838582602,
0.08403990024937656,-0.01593490407139549,
0.08408977556109726,-0.0031804063235194146,
0.08413965087281795,-0.002101258103639605,
0.08418952618453865,0.013964405212376855,
0.08423940149625936,-0.018286895352109964,
0.08428927680798005,0.01338047269942583,
0.08433915211970075,-0.012264134146606324,
0.08438902743142145,-0.0019771450765012,
0.08443890274314214,0.009926482862343624,
0.08448877805486284,0.019754718314153482,
0.08453865336658355,0.014121569294007066,
0.08458852867830424,-0.01190357642351714,
0.08463840399002494,-0.01778976565327586,
0.08468827930174563,0.024211410135479738,
0.08473815461346633,-0.023387056467566548,
0.08478802992518704,0.02113216192797894,
0.08483790523690773,0.009665490577525615,
0.08488778054862843,0.008119826613475658,
0.08493765586034913,0.00585941910159043,
0.08498753117206982,-0.01912019155326757,
0.08503740648379052,-0.01069965869233777,
0.08508728179551123,0.02212247071822404,
0.08513715710723192,-0.025081495790464908,
0.08518703241895262,0.01660538552855282,
0.08523690773067331,0.02016371057916298,
0.08528678304239401,-0.020258672642655767,
0.08533665835411472,0.007036148921801911,
0.08538653366583542,0.020719578647932373,
0.08543640897755611,0.021682226953070222,
0.0854862842892768,-0.038732297471048116,
0.0855361596009975,0.008002759215324009,
0.0855860349127182,-0.0035671032409371793,
0.08563591022443891,0.012000907089923935,
0.0856857855361596,-0.0009412994333603958,
0.0857356608478803,-0.007043301986904004,
0.085785536159601,0.02332905794132449,
0.08583541147132169,-0.00532732660986491,
0.0858852867830424,0.020672581299636637,
0.0859351620947631,0.0019075696757368723,
0.08598503740648379,-0.024847404234721815,
0.08603491271820449,-0.002220058566077673,
0.08608478802992518,0.014725328141097963,
0.08613466334164588,-0.023668779504844976,
0.08618453865336659,-0.005993002516220108,
0.08623441396508728,-0.048677179395967676,
0.08628428927680798,-0.023954394284704972,
0.08633416458852868,-0.03018024829949563,
0.08638403990024937,-0.028631286587270675,
0.08643391521197008,0.008021618031743501,
0.08648379052369078,-0.01776864654668494,
0.08653366583541147,-0.018454955353318356,
0.08658354114713217,-0.022833338402972858,
0.08663341645885286,-0.00155806811534818,
0.08668329177057357,0.013654401741572796,
0.08673316708229427,-0.00246771268716333,
0.08678304239401496,8.661282940784255e-05,
0.08683291770573566,0.004322144977296929,
0.08688279301745636,-0.009200777874770333,
0.08693266832917705,-0.03779320081013901,
0.08698254364089776,0.005224943136200165,
0.08703241895261846,-0.016469685541670838,
0.08708229426433915,-0.0398150780513185,
0.08713216957605985,-0.004512821273698356,
0.08718204488778054,0.018193414727885243,
0.08723192019950125,0.006497393375022784,
0.08728179551122195,-0.03551514093299447,
0.08733167082294264,-0.01438780057980155,
0.08738154613466334,-0.02279914586059892,
0.08743142144638404,-0.03227100729188255,
0.08748129675810473,-0.015125492955306345,
0.08753117206982544,-0.01570120371384293,
0.08758104738154614,-0.030573328805437533,
0.08763092269326683,-0.019443964262882477,
0.08768079800498753,-0.017319040544290343,
0.08773067331670822,-0.027930512531510878,
0.08778054862842893,-0.04051350320394498,
0.08783042394014963,-0.0255749350636947,
0.08788029925187033,-0.03796546973241917,
0.08793017456359102,-0.008578230768211209,
0.08798004987531172,-0.013557023628384842,
0.08802992518703241,0.005505726435702388,
0.08807980049875312,-0.04799024715325773,
0.08812967581047382,0.006472276933815108,
0.08817955112219451,-0.03202926685418947,
0.08822942643391521,-0.014481402779649445,
0.0882793017456359,-0.018304445546493235,
0.08832917705735661,-0.033493671352168734,
0.08837905236907731,-0.009207948311189006,
0.088428927680798,-0.012252427997778571,
0.0884788029925187,0.016361146071745967,
0.0885286783042394,-0.011011121216176778,
0.0885785536159601,-0.0177692259107581,
0.0886284289276808,-0.024265506863680418,
0.0886783042394015,-0.022946799348756448,
0.0887281795511222,-0.04569740959889387,
0.08877805486284289,-0.02201844118740577,
0.08882793017456359,-0.0052886958721634425,
0.0888778054862843,-0.024688429939178615,
0.08892768079800499,0.002505190864555801,
0.08897755610972569,-0.012561514067389173,
0.08902743142144638,-0.0011032858970898701,
0.08907730673316708,-0.01654944804195073,
0.08912718204488779,-0.02344361965385597,
0.08917705735660848,0.0074753697975272135,
0.08922693266832918,-0.012240433997013637,
0.08927680798004987,0.005593341540859531,
0.08932668329177057,-0.017717402703042704,
0.08937655860349127,-0.06622399678514972,
0.08942643391521198,0.014904899459850872,
0.08947630922693267,-0.024459582127696087,
0.08952618453865337,-0.03131881013294904,
0.08957605985037406,0.001116230563967733,
0.08962593516209476,-0.037995050919244044,
0.08967581047381547,0.004370795339197191,
0.08972568578553616,-0.009077820065260471,
0.08977556109725686,-0.005936941090288052,
0.08982543640897755,-0.003021964768385353,
0.08987531172069825,-0.026115745884249825,
0.08992518703241895,-0.025761944102413725,
0.08997506234413966,0.004471853488420831,
0.09002493765586035,-0.018422133853656254,
0.09007481296758105,-0.012950633125344552,
0.09012468827930174,-0.006402764628263682,
0.09017456359102244,0.002128131584158253,
0.09022443890274315,-0.0332662106060868,
0.09027431421446384,-0.0007736773989392449,
0.09032418952618454,0.008152738471883216,
0.09037406483790524,-0.0005992114460108468,
0.09042394014962593,0.013355620808221377,
0.09047381546134663,-0.01147544019402625,
0.09052369077306734,-0.029774519346737034,
0.09057356608478803,0.001619373013310694,
0.09062344139650873,-0.005990839466254572,
0.09067331670822942,0.021910880843715785,
0.09072319201995012,-0.0017092573311176754,
0.09077306733167083,0.0076278712468007175,
0.09082294264339152,-0.010109010068873958,
0.09087281795511222,-0.0043402351172274175,
0.09092269326683292,0.01374535753716997,
0.09097256857855361,0.005307826561794926,
0.09102244389027432,0.03828606791402245,
0.09107231920199502,0.010340208194194782,
0.09112219451371571,-0.0024639606687921565,
0.09117206982543641,0.0007986606544207889,
0.0912219451371571,0.007297165867471969,
0.0912718204488778,0.01806042781622126,
0.09132169576059851,-0.004841880945592677,
0.0913715710723192,-0.02779989472538862,
0.0914214463840399,0.010611599672987942,
0.0914713216957606,0.014828921799844885,
0.09152119700748129,-0.007349100319199587,
0.091571072319202,0.020646676584028585,
0.0916209476309227,0.0125199070346745,
0.09167082294264339,0.004345542612066378,
0.09172069825436409,-0.006961605250933754,
0.09177057356608478,-0.012965356158603282,
0.09182044887780548,0.009816554541637473,
0.09187032418952619,0.006340982288154669,
0.09192019950124689,-0.0031380419997486617,
0.09197007481296758,-0.023402607949321724,
0.09201995012468828,0.011188287818674578,
0.09206982543640897,0.012181207508432232,
0.09211970074812968,0.005960231666957498,
0.09216957605985038,0.0012782207650311544,
0.09221945137157107,-0.012409556446266132,
0.09226932668329177,0.013884834687074667,
0.09231920199501246,0.03138353010042006,
0.09236907730673316,-0.009076190595238436,
0.09241895261845387,-0.007562212470927459,
0.09246882793017457,-0.0011245212583254963,
0.09251870324189526,0.024083820003449406,
0.09256857855361596,0.027274559655470716,
0.09261845386533665,0.004532996142350995,
0.09266832917705736,0.0056462692465338955,
0.09271820448877806,0.006762211096638919,
0.09276807980049875,-0.015088949735899065,
0.09281795511221945,-0.01709198100374719,
0.09286783042394015,0.0130121982440389,
0.09291770573566084,0.037906566643249734,
0.09296758104738155,0.04614010254833949,
0.09301745635910225,0.004379482637012369,
0.09306733167082294,-0.003841791738038499,
0.09311720698254364,-0.0066707467340068605,
0.09316708229426433,0.04194109863941572,
0.09321695760598504,-0.007888822778680844,
0.09326683291770574,0.00956656759473574,
0.09331670822942643,0.025509008212976168,
0.09336658354114713,0.010075920644641856,
0.09341645885286783,0.03302900317936987,
0.09346633416458854,-0.009957885787248807,
0.09351620947630923,4.0112664893003636e-05,
0.09356608478802993,0.003803199929134679,
0.09361596009975062,0.009575596153497712,
0.09366583541147132,0.0276080074071264,
0.09371571072319201,-0.019928078091271825,
0.09376558603491272,0.00981224940295745,
0.09381546134663342,0.01886241846731596,
0.09386533665835411,0.02651336935191527,
0.09391521197007481,0.0047333063635465675,
0.0939650872817955,0.012276578234257316,
0.09401496259351622,0.016794539222101577,
0.09406483790523691,0.023667138467195238,
0.09411471321695761,0.03968340744471303,
0.0941645885286783,0.014304021283702712,
0.094214463840399,0.02437701245743668,
0.0942643391521197,-0.014244121091661167,
0.0943142144638404,0.012292233079874239,
0.0943640897755611,0.02673640253905234,
0.0944139650872818,0.03336736921407818,
0.09446384039900249,-0.008930265451553135,
0.09451371571072319,0.015890625828484713,
0.0945635910224439,0.009813968529899419,
0.09461346633416459,0.035659284570821834,
0.09466334164588529,-0.005516642117815319,
0.09471321695760598,0.027171323166124695,
0.09476309226932668,0.024140426770784804,
0.09481296758104737,0.03006040049464663,
0.09486284289276808,0.020942878080104137,
0.09491271820448878,0.027479801054844384,
0.09496259351620948,0.03112532845989324,
0.09501246882793017,0.010226786646526514,
0.09506234413965087,0.01760219460466169,
0.09511221945137158,0.03319250513984649,
0.09516209476309227,0.023908090735515607,
0.09521197007481297,-0.009710870904579408,
0.09526184538653366,-0.002070209697147149,
0.09531172069825436,0.042826688541978894,
0.09536159600997507,0.014536357808114755,
0.09541147132169576,-0.011456190484569334,
0.09546134663341646,0.013699799244019518,
0.09551122194513716,0.034129603150485494,
0.09556109725685785,0.013875017249408277,
0.09561097256857855,0.04332555361960311,
0.09566084788029926,0.006736233191487775,
0.09571072319201995,0.030086406926618313,
0.09576059850374065,0.035689664511630984,
0.09581047381546134,0.02757841693484159,
0.09586034912718204,0.033418226813865484,
0.09591022443890275,0.0501859516055502,
0.09596009975062345,0.032478445838132336,
0.09600997506234414,-0.003625328260685356,
0.09605985037406484,0.023406428852318382,
0.09610972568578553,0.0318975312099821,
0.09615960099750623,0.042940353068411624,
0.09620947630922694,0.030438920961461443,
0.09625935162094763,0.029054918395194952,
0.09630922693266833,0.035652250007071715,
0.09635910224438902,0.03019004873034632,
0.09640897755610972,0.011641905420435559,
0.09645885286783043,0.0428722784734671,
0.09650872817955113,0.014462489630567116,
0.09655860349127182,0.0014243704298369415,
0.09660847880299252,0.03044165744204467,
0.09665835411471321,0.015048501375608129,
0.09670822942643391,0.02826696367929302,
0.09675810473815462,0.004735867079643952,
0.09680798004987531,0.028097738363341722,
0.09685785536159601,0.02077956143302572,
0.0969077306733167,0.02416588729396143,
0.0969576059850374,0.028485428680307106,
0.09700748129675811,0.023203373112530516,
0.0970573566084788,0.015839567472527526,
0.0971072319201995,0.008040583729402789,
0.0971571072319202,0.03359996142530748,
0.0972069825436409,0.016290376160270133,
0.09725685785536159,0.003815946497538511,
0.0973067331670823,0.019679294082968847,
0.097356608478803,0.016716798099735298,
0.09740648379052369,0.018679066891758165,
0.09745635910224439,0.041307901419205595,
0.09750623441396508,0.013076680346670944,
0.09755610972568579,0.05325285190001799,
0.09760598503740649,0.027048185533021997,
0.09765586034912718,0.020926467896812836,
0.09770573566084788,0.046029403385392756,
0.09775561097256857,0.02494167605423197,
0.09780548628428928,0.020094701131280084,
0.09785536159600998,0.02434016529480126,
0.09790523690773068,0.08300675378245116,
0.09795511221945137,-0.013377724783045154,
0.09800498753117207,0.02750354354349793,
0.09805486284289276,0.04402530777231296,
0.09810473815461347,0.03376659884041265,
0.09815461346633417,0.03366606191156342,
0.09820448877805486,0.039811512030634516,
0.09825436408977556,0.038761127235486637,
0.09830423940149625,0.02370955973818766,
0.09835411471321696,0.03936218183651201,
0.09840399002493766,0.02869291572710909,
0.09845386533665836,0.03165286374281718,
0.09850374064837905,0.012837590376520443,
0.09855361596009975,0.016762584020531462,
0.09860349127182044,0.018698276351474544,
0.09865336658354115,0.01431212833322827,
0.09870324189526185,0.010067253615838302,
0.09875311720698254,0.040010949919022695,
0.09880299251870324,0.01584597121719579,
0.09885286783042393,0.009770556989357089,
0.09890274314214464,0.029246856489811297,
0.09895261845386534,0.012666772902123707,
0.09900249376558604,0.03516471935884846,
0.09905236907730673,0.030822671209578774,
0.09910224438902743,0.032547059921838976,
0.09915211970074812,0.012356241333855726,
0.09920199501246883,0.017929497668664463,
0.09925187032418953,0.03329845306987361,
0.09930174563591022,0.0015019560152371401,
0.09935162094763092,0.03039630799582243,
0.09940149625935162,0.025550148928195904,
0.09945137157107233,0.044271923831687064,
0.09950124688279302,0.0009662393001650879,
0.09955112219451372,0.017280440101895722,
0.09960099750623441,0.026555209929814687,
0.09965087281795511,0.04368895236522041,
0.0997007481296758,0.035800371484932814,
0.09975062344139651,0.014550084480156614,
0.09980049875311721,0.026746567537949635,
0.0998503740648379,0.037109847141472245,
0.0999002493765586,0.036017525031274956,
0.0999501246882793,0.041583593667006154,
0.1,0.006739703388128647,
0.1000498753117207,0.0514136700451071,
0.1000997506234414,0.009249602422586668,
0.10014962593516209,0.026127229388741458,
0.10019950124688279,0.014065440376245202,
0.1002493765586035,0.02125646588127626,
0.1002992518703242,0.017172591872193273,
0.10034912718204489,0.04760382757190245,
0.10039900249376559,0.0029555202783611498,
0.10044887780548628,-0.005697561108609587,
0.10049875311720698,0.005740225328148045,
0.10054862842892769,0.0054384876609107555,
0.10059850374064838,0.028530821683644972,
0.10064837905236908,0.017604199989971765,
0.10069825436408977,0.02545724238244371,
0.10074812967581047,0.02419671648298989,
0.10079800498753118,0.007299104210057045,
0.10084788029925187,0.009277328642666104,
0.10089775561097257,0.002394058858350999,
0.10094763092269327,0.02960015466630586,
0.10099750623441396,-0.000994592692043328,
0.10104738154613466,-0.012837172023934255,
0.10109725685785537,0.006633513291062121,
0.10114713216957606,0.039509788364311973,
0.10119700748129676,0.0042682938780477225,
0.10124688279301745,0.014071368026647449,
0.10129675810473815,-0.00011589568074231796,
0.10134663341645886,-0.0053126666890789265,
0.10139650872817955,0.003016390509040177,
0.10144638403990025,0.023271739229258504,
0.10149625935162095,-0.01109621268957026,
0.10154613466334164,0.03906865093671902,
0.10159600997506234,-0.010336688852654126,
0.10164588528678305,0.0024845005224769165,
0.10169576059850374,-0.0026283303078526894,
0.10174563591022444,0.005549488068710504,
0.10179551122194513,0.03798690895806674,
0.10184538653366583,0.00825824206603204,
0.10189526184538654,0.006126394459795684,
0.10194513715710724,0.022277913872170655,
0.10199501246882793,-0.001495872108953692,
0.10204488778054863,0.013389456910562472,
0.10209476309226932,0.0336973723267249,
0.10214463840399003,0.022237159099815225,
0.10219451371571073,0.016445532004976122,
0.10224438902743142,0.015536356447913232,
0.10229426433915212,0.0023949660748455136,
0.10234413965087281,-0.009185918063015278,
0.10239401496259351,0.020451410969307218,
0.10244389027431422,0.009012249296262846,
0.10249376558603492,0.020050613193304853,
0.10254364089775561,0.033720991783579936,
0.10259351620947631,0.030562728099767275,
0.102643391521197,0.009016124129157706,
0.10269326683291771,0.011865065540989005,
0.10274314214463841,-0.0070253999724078885,
0.1027930174563591,-0.0021981982079217616,
0.1028428927680798,0.001162736116868449,
0.1028927680798005,0.013187379754050899,
0.10294264339152119,0.002577188665941096,
0.1029925187032419,0.009673768591997443,
0.1030423940149626,0.001827243932952984,
0.10309226932668329,-0.0051327448957126645,
0.10314214463840399,0.015060009168886113,
0.10319201995012468,0.009834286707999806,
0.10324189526184539,-0.00511412828412806,
0.10329177057356609,0.010486301699844764,
0.10334164588528678,-0.002574106972377758,
0.10339152119700748,0.01765001941457112,
0.10344139650872818,0.02754925014808437,
0.10349127182044887,-0.0037353727416974273,
0.10354114713216958,0.007618750617615773,
0.10359102244389028,0.010940515170592323,
0.10364089775561097,0.0008980089309198838,
0.10369077306733167,-0.009987702812139336,
0.10374064837905236,0.003797671249118403,
0.10379052369077307,0.011778524677513138,
0.10384039900249377,-0.02079506145262574,
0.10389027431421446,-0.0026849979194539996,
0.10394014962593516,0.016425073804450435,
0.10399002493765586,0.015054087327289507,
0.10403990024937655,-0.019172267493760012,
0.10408977556109726,-0.022959487638065074,
0.10413965087281796,0.016508695348708073,
0.10418952618453865,-0.028524561608841044,
0.10423940149625935,-0.011895086345137572,
0.10428927680798004,0.01168473482980574,
0.10433915211970075,0.018271823778353458,
0.10438902743142145,-0.017078435419942486,
0.10443890274314215,0.002447047618903221,
0.10448877805486284,0.015335615351661282,
0.10453865336658354,-0.007808428569768763,
0.10458852867830425,-0.009763958743471593,
0.10463840399002494,0.022530337817142664,
0.10468827930174564,-0.005351244182452109,
0.10473815461346633,-0.03798085175360352,
0.10478802992518703,-0.0013460138990798432,
0.10483790523690772,0.004525368464837963,
0.10488778054862843,0.01214764604968955,
0.10493765586034913,0.006460767619386187,
0.10498753117206983,0.0016812157222328957,
0.10503740648379052,-0.017202167112939894,
0.10508728179551122,0.018447862513038284,
0.10513715710723193,-0.007103727058723901,
0.10518703241895262,0.006966885616963297,
0.10523690773067332,0.007442746935286975,
0.10528678304239401,0.0032905960858827677,
0.10533665835411471,-0.011714785372410864,
0.1053865336658354,0.015065870335502706,
0.10543640897755611,-0.004923919940537067,
0.10548628428927681,-0.002352369984880657,
0.1055361596009975,0.005304199093873575,
0.1055860349127182,-0.008335646461890216,
0.1056359102244389,0.00858287707257678,
0.10568578553615961,-0.0023295796436146677,
0.1057356608478803,-0.013367260921087504,
0.105785536159601,0.0004525648102353501,
0.1058354114713217,-0.022935152049174942,
0.10588528678304239,-0.00567719361299061,
0.10593516209476309,-0.01166927800393048,
0.1059850374064838,0.002368479788404664,
0.10603491271820449,0.002695816000823633,
0.10608478802992519,-0.01789303731412563,
0.10613466334164588,-0.021144441226917582,
0.10618453865336658,0.011572956960675581,
0.10623441396508729,0.015334844334246265,
0.10628428927680798,0.029493545311417985,
0.10633416458852868,-0.01552126131908884,
0.10638403990024937,-0.01850261078634316,
0.10643391521197007,-0.025330890254797955,
0.10648379052369077,-0.012812473002320704,
0.10653366583541148,-0.032993240475112415,
0.10658354114713217,-0.016950457030711467,
0.10663341645885287,-0.008829810446749487,
0.10668329177057356,-0.035564160773891566,
0.10673316708229426,-0.008811034823683143,
0.10678304239401497,0.005334010384151537,
0.10683291770573566,-0.005493473610203067,
0.10688279301745636,0.0009961289112967939,
0.10693266832917706,-0.023227644403584807,
0.10698254364089775,-0.03478330037083653,
0.10703241895261846,0.005029737452089339,
0.10708229426433916,-0.006775319868772707,
0.10713216957605985,-0.013853062073201479,
0.10718204488778055,-0.012029399003987596,
0.10723192019950124,-0.027464897768680767,
0.10728179551122194,-0.006878007255021423,
0.10733167082294265,-0.007397568863157287,
0.10738154613466334,-0.007728845816253136,
0.10743142144638404,-0.018511436887755833,
0.10748129675810474,-0.0056296013812318696,
0.10753117206982543,-0.007090303592586808,
0.10758104738154614,-0.007549753207327059,
0.10763092269326684,-0.012598474988602617,
0.10768079800498753,-0.013137428863729842,
0.10773067331670823,-0.016054417947107043,
0.10778054862842892,-0.01054460946051061,
0.10783042394014962,-0.03396806907175246,
0.10788029925187033,-0.011474366015445115,
0.10793017456359102,-0.015115371199269036,
0.10798004987531172,0.012328631778358006,
0.10802992518703242,-0.028196953147229933,
0.10807980049875311,-0.031526864738029195,
0.10812967581047382,-0.021979929767180804,
0.10817955112219452,-0.007902092944032626,
0.10822942643391521,-0.01553597357160167,
0.10827930174563591,-0.03780068812184412,
0.1083291770573566,-0.03137912405293497,
0.1083790523690773,0.0050636667514303915,
0.10842892768079801,0.01789781018168364,
0.1084788029925187,-0.0033609094081933494,
0.1085286783042394,-0.013999756259085554,
0.1085785536159601,-0.008238395503074354,
0.10862842892768079,-0.022979216489612354,
0.1086783042394015,0.008163854250806148,
0.1087281795511222,0.012374664963055807,
0.1087780548628429,-0.022153409324578963,
0.10882793017456359,-0.0037506018086949193,
0.10887780548628428,-0.017743127899202724,
0.108927680798005,-0.0023129811999536443,
0.10897755610972569,-0.01536398497127218,
0.10902743142144639,-0.0218691660745374,
0.10907730673316708,-0.006955314943914261,
0.10912718204488778,-0.03107994847777124,
0.10917705735660847,-0.01064398972847869,
0.10922693266832918,-0.013717582225053173,
0.10927680798004988,-0.0006609731149274899,
0.10932668329177057,-0.006695675267956705,
0.10937655860349127,-0.009252702426038035,
0.10942643391521197,0.003875786316826514,
0.10947630922693267,0.0024403729503424884,
0.10952618453865337,0.0035242776061675286,
0.10957605985037407,-0.024685322571822505,
0.10962593516209476,0.0011438557494585257,
0.10967581047381546,0.01432288880453497,
0.10972568578553615,-0.033346683024551155,
0.10977556109725686,-0.02708037726809506,
0.10982543640897756,0.0192315916955572,
0.10987531172069825,-0.0017263589322995144,
0.10992518703241895,-0.017036452108999605,
0.10997506234413965,-0.02624228555364108,
0.11002493765586036,-0.017250426249294855,
0.11007481296758105,-0.03824696662492806,
0.11012468827930175,-0.0021085093595911595,
0.11017456359102244,0.006639069863503653,
0.11022443890274314,0.01397540249949038,
0.11027431421446383,-0.03396694333330672,
0.11032418952618454,0.002221761228279294,
0.11037406483790524,-0.004809627102253159,
0.11042394014962593,0.005490325023759471,
0.11047381546134663,-0.04178371998147469,
0.11052369077306733,-0.005724195150193838,
0.11057356608478804,-0.021372975571346223,
0.11062344139650873,-0.021053824671015332,
0.11067331670822943,0.022615108344366502,
0.11072319201995012,0.02067294896161803,
0.11077306733167082,-0.0011428785750550704,
0.11082294264339151,-0.034082491712022295,
0.11087281795511222,-0.013684821556981475,
0.11092269326683292,0.023987204938447634,
0.11097256857855362,-0.0059937413003814215,
0.11102244389027431,-0.02017599019670635,
0.111072319201995,-0.0004133673536114348,
0.11112219451371572,-0.0035909691317924874,
0.11117206982543641,-0.018356461105609123,
0.11122194513715711,-0.011481328233620696,
0.1112718204488778,-0.02210116519812283,
0.1113216957605985,0.035494245970105254,
0.11137157107231921,-0.01332434853425209,
0.1114214463840399,-0.00819290537957064,
0.1114713216957606,-0.005446032439935022,
0.1115211970074813,0.010559016026797253,
0.11157107231920199,-0.02896444891172501,
0.11162094763092269,-0.0005707737025529359,
0.1116708229426434,0.0029364978141019887,
0.11172069825436409,0.007774314691228266,
0.11177057356608479,0.0037993165459052456,
0.11182044887780548,-0.013989068855578188,
0.11187032418952618,0.00046687491195133556,
0.11192019950124689,0.010405859754463315,
0.11197007481296758,0.0035619593527723625,
0.11201995012468828,0.0017500774587020965,
0.11206982543640898,0.02470707318287859,
0.11211970074812967,0.01583946810292197,
0.11216957605985037,-0.006031315118620724,
0.11221945137157108,-0.00030737682613673004,
0.11226932668329177,0.010548871945880077,
0.11231920199501247,-0.0117868584145237,
0.11236907730673316,0.0052001171015414694,
0.11241895261845386,0.011735314678333138,
0.11246882793017457,-0.010211307291253987,
0.11251870324189527,0.01856890012776894,
0.11256857855361596,0.01884054740897943,
0.11261845386533666,-0.023750498259950653,
0.11266832917705735,0.014255795969698743,
0.11271820448877805,0.029968649876824516,
0.11276807980049876,0.0076688908824219205,
0.11281795511221945,-0.011485528206626544,
0.11286783042394015,0.01744191336169984,
0.11291770573566084,0.000613551047971712,
0.11296758104738154,0.017232143813963895,
0.11301745635910225,0.019333066674561628,
0.11306733167082295,-0.008118457634764278,
0.11311720698254364,0.013350197902020904,
0.11316708229426434,-0.004668812729224847,
0.11321695760598503,-0.008657792294258847,
0.11326683291770574,0.022135403066576603,
0.11331670822942644,0.012656936366245031,
0.11336658354114713,-0.02677302094271358,
0.11341645885286783,0.021534376750771904,
0.11346633416458853,-0.005550895267112294,
0.11351620947630922,0.012581992036893256,
0.11356608478802993,0.006475909491056861,
0.11361596009975063,0.02742365271110915,
0.11366583541147132,0.021059113091451417,
0.11371571072319202,0.017509760506994564,
0.11376558603491271,0.022468761976104864,
0.11381546134663342,0.01255970170692509,
0.11386533665835412,0.02744124974850628,
0.11391521197007481,0.019160732131378515,
0.11396508728179551,0.02937999830899196,
0.1140149625935162,0.037040709467888136,
0.1140648379052369,0.032121034139731754,
0.11411471321695761,0.01703647270866359,
0.1141645885286783,0.040198892756401094,
0.114214463840399,0.006107328220293515,
0.1142643391521197,0.0159879781129961,
0.1143142144638404,0.02517785549653071,
0.1143640897755611,0.013335776747989934,
0.1144139650872818,0.03110870322874478,
0.1144638403990025,0.01849362913272655,
0.11451371571072319,-0.006491800551402128,
0.11456359102244389,-0.0005767337732198417,
0.11461346633416458,0.03260666389548089,
0.11466334164588529,0.004713470348667188,
0.11471321695760599,0.02015779542355024,
0.11476309226932668,0.012776134218965837,
0.11481296758104738,0.027210555326812633,
0.11486284289276807,0.019549363960315466,
0.11491271820448878,0.007273527188683135,
0.11496259351620948,-0.0015746233295629922,
0.11501246882793018,0.03355165617816555,
0.11506234413965087,0.018104918753147157,
0.11511221945137157,-1.858834210992366e-05,
0.11516209476309226,0.025062559847163282,
0.11521197007481297,0.02686017937783292,
0.11526184538653367,0.016765150344092757,
0.11531172069825436,0.020947640427941318,
0.11536159600997506,0.03826064080104935,
0.11541147132169575,0.023755345450801522,
0.11546134663341646,0.0007172529614482524,
0.11551122194513716,0.024094699464256877,
0.11556109725685786,0.03816219762339572,
0.11561097256857855,0.0037769766054375244,
0.11566084788029925,0.03466788292070877,
0.11571072319201996,0.022869252199346622,
0.11576059850374065,0.001898204199393013,
0.11581047381546135,0.03801496293844824,
0.11586034912718204,0.012721874257000854,
0.11591022443890274,0.02475822969782529,
0.11596009975062344,0.02963713463520955,
0.11600997506234415,0.026688146564182506,
0.11605985037406484,0.013998343285506788,
0.11610972568578554,0.04338725639437864,
0.11615960099750623,0.012580838496601741,
0.11620947630922693,0.020255474464724445,
0.11625935162094764,0.038658874551104436,
0.11630922693266833,0.024196910580334748,
0.11635910224438903,0.02073502289616768,
0.11640897755610972,0.021407222518291445,
0.11645885286783042,-0.0016484056830216864,
0.11650872817955112,0.0409382422402276,
0.11655860349127183,0.008273961483470847,
0.11660847880299252,0.02632202509319751,
0.11665835411471322,-0.007766264139933754,
0.11670822942643391,0.028227725670105164,
0.11675810473815461,0.00739332197083073,
0.11680798004987532,0.0011982089748737434,
0.11685785536159601,0.0121852038609409,
0.11690773067331671,0.001943634365311031,
0.1169576059850374,0.0246978387177874,
0.1170074812967581,0.0275749933489914,
0.1170573566084788,0.02514465914103823,
0.1171072319201995,0.016809179046147607,
0.1171571072319202,0.03964932053121661,
0.1172069825436409,0.023306736346449634,
0.1172568578553616,0.04420973179182071,
0.11730673316708229,-0.005679468126670022,
0.117356608478803,0.030545267592245,
0.1174064837905237,0.03029576776644357,
0.11745635910224439,0.015234437439618926,
0.11750623441396509,0.04376581823878515,
0.11755610972568578,0.026444991209242118,
0.11760598503740648,0.02888911272901032,
0.11765586034912719,0.032739154479581305,
0.11770573566084788,0.054683850221854305,
0.11775561097256858,0.02092520998651632,
0.11780548628428927,0.029544084716098356,
0.11785536159600997,0.044823178217268694,
0.11790523690773068,0.025008890240477002,
0.11795511221945137,0.043030458070815486,
0.11800498753117207,0.026924397368806106,
0.11805486284289277,0.032350609660816994,
0.11810473815461346,0.02462747360892631,
0.11815461346633417,0.022337565153494048,
0.11820448877805487,0.027111087858228945,
0.11825436408977556,0.014765834307387869,
0.11830423940149626,0.015173914811433226,
0.11835411471321695,0.024728011153628687,
0.11840399002493765,0.027443505345166742,
0.11845386533665836,0.03636082428373395,
0.11850374064837906,0.0210925829686071,
0.11855361596009975,0.048976790850480664,
0.11860349127182045,0.008781141948954806,
0.11865336658354114,0.013791645182907665,
0.11870324189526185,0.032269331279792306,
0.11875311720698255,0.045832339412622866,
0.11880299251870324,0.01562231348250846,
0.11885286783042394,0.048978401922167104,
0.11890274314214463,0.03771070769960443,
0.11895261845386533,0.03366934538451643,
0.11900249376558604,0.0332777254977724,
0.11905236907730674,0.03273879787830286,
0.11910224438902743,0.018777290420288965,
0.11915211970074813,0.01852690143753503,
0.11920199501246882,0.018374631027442516,
0.11925187032418953,0.018691784458446065,
0.11930174563591023,0.03543321803078522,
0.11935162094763092,0.04381300918341407,
0.11940149625935162,0.009985828171907754,
0.11945137157107232,0.011691944080289233,
0.11950124688279301,0.04522881547271092,
0.11955112219451372,0.023774876943596764,
0.11960099750623442,0.03443144833911038,
0.11965087281795511,0.018306003723220995,
0.11970074812967581,0.05278626050706633,
0.1197506234413965,0.025728097970266525,
0.11980049875311721,0.035978375163102164,
0.11985037406483791,0.03758395803961104,
0.1199002493765586,-0.0006440614328023404,
0.1199501246882793,-0.0017604932678560586,
0.12,0.014862213997308362,
0.1200498753117207,0.0238506081835856,
0.1200997506234414,0.023074549900115683,
0.1201496259351621,0.03799424820934075,
0.12019950124688279,0.00823352423836195,
0.12024937655860349,0.006884603073638664,
0.12029925187032418,0.008364939259821019,
0.1203491271820449,0.03881480856653111,
0.12039900249376559,0.03325568060626922,
0.12044887780548628,0.00228524812194637,
0.12049875311720698,0.03246254428848366,
0.12054862842892768,0.012933216123434834,
0.12059850374064839,0.00011373380260194799,
0.12064837905236908,0.020122358125814366,
0.12069825436408978,0.018894281313212285,
0.12074812967581047,0.03186378768798567,
0.12079800498753117,0.018473956732309386,
0.12084788029925186,0.03685491071185345,
0.12089775561097257,0.03836113872954015,
0.12094763092269327,0.010925785356607154,
0.12099750623441397,0.01632090179167492,
0.12104738154613466,0.03352710208627092,
0.12109725685785536,0.019143830751346687,
0.12114713216957607,0.0334720301312034,
0.12119700748129676,0.03374624849226857,
0.12124688279301746,-0.0065829380918623615,
0.12129675810473815,0.02582519570096,
0.12134663341645885,0.0236080606236556,
0.12139650872817954,0.02382737597897013,
0.12144638403990025,0.02225136237164163,
0.12149625935162095,0.0216961202090415,
0.12154613466334165,0.043613112718741506,
0.12159600997506234,0.022395928803510563,
0.12164588528678304,0.009325717163082378,
0.12169576059850375,0.009913192044294578,
0.12174563591022444,0.01182334520461956,
0.12179551122194514,0.0343259603766645,
0.12184538653366583,-0.0007064311499015534,
0.12189526184538653,0.03753443973794991,
0.12194513715710723,0.01756572209840046,
0.12199501246882793,-0.01783718790698035,
0.12204488778054863,0.03373494104027684,
0.12209476309226933,0.02589335014056074,
0.12214463840399002,0.008156796879794872,
0.12219451371571072,0.016243128035384292,
0.12224438902743143,0.02678056984915047,
0.12229426433915212,0.030278525895666906,
0.12234413965087282,0.010279651215692628,
0.12239401496259351,0.0324052620412896,
0.12244389027431421,0.00913633858156132,
0.12249376558603492,0.029516949222758583,
0.12254364089775562,-0.012551492189552881,
0.12259351620947631,0.033882336334796204,
0.122643391521197,-0.015563192980748066,
0.1226932668329177,-0.0015044042184532338,
0.1227431421446384,0.02542004730827687,
0.12279301745635911,0.011254568904034404,
0.1228428927680798,0.020090944322245997,
0.1228927680798005,-0.008689966844687832,
0.1229426433915212,-0.003781259157128179,
0.12299251870324189,0.004160283849487257,
0.1230423940149626,-0.01514808548729969,
0.1230922693266833,0.024903688652541445,
0.12314214463840399,0.006570880292504081,
0.12319201995012469,-0.00977484223434862,
0.12324189526184538,0.00608603291170024,
0.12329177057356608,0.006549081260372746,
0.12334164588528679,0.013711502956637206,
0.12339152119700748,0.004232660798233263,
0.12344139650872818,-0.005767312663219821,
0.12349127182044888,0.0022071137061798777,
0.12354114713216957,0.03665481442753809,
0.12359102244389028,0.009968381526342843,
0.12364089775561098,-0.010006136116447614,
0.12369077306733167,0.01930020713521105,
0.12374064837905237,0.03896089959372266,
0.12379052369077306,0.011586476227497158,
0.12384039900249376,0.0024668209010776277,
0.12389027431421447,-0.01914077894437745,
0.12394014962593516,0.0013307070342219258,
0.12399002493765586,-0.016020942728372338,
0.12403990024937656,0.006597510192121128,
0.12408977556109725,-0.02942128508622997,
0.12413965087281796,0.01024122743278539,
0.12418952618453866,-0.02520281367546543,
0.12423940149625935,0.0023505550076780373,
0.12428927680798005,0.02415555293443243,
0.12433915211970074,-0.013537393977829664,
0.12438902743142144,-0.009727286961037177,
0.12443890274314215,0.005425372310291404,
0.12448877805486284,-0.008509447004323538,
0.12453865336658354,0.017267842044966803,
0.12458852867830424,-0.005041383837795514,
0.12463840399002493,0.013400435579390836,
0.12468827930174564,0.005774382379352882,
0.12473815461346634,-0.0009028222003473363,
0.12478802992518703,0.00022004023390804345,
0.12483790523690773,0.003166197392069462,
0.12488778054862842,-0.008127094605025493,
0.12493765586034913,0.01493736096258214,
0.12498753117206983,-0.02217697771614244,
0.12503740648379053,0.020975350155590974,
0.12508728179551123,-0.022638178911082666,
0.12513715710723192,0.01183383558777946,
0.12518703241895263,0.025279237959727363,
0.1252369077306733,0.021835201547141518,
0.12528678304239402,-0.03505294710566637,
0.1253366583541147,-0.0038538526816439835,
0.1253865336658354,-0.00436035988542677,
0.12543640897755612,0.01928670713584343,
0.1254862842892768,-0.025694806608095457,
0.1255361596009975,-0.005936357114870506,
0.1255860349127182,-0.019746278793758988,
0.1256359102244389,-0.0026011568355821437,
0.1256857855361596,-0.014182821837778529,
0.1257356608478803,-0.003637178290077749,
0.125785536159601,-0.011914532076679429,
0.12583541147132168,-0.028287551567239482,
0.1258852867830424,0.007986842934057277,
0.1259351620947631,-0.03708234984703658,
0.12598503740648379,-0.004870608681014781,
0.1260349127182045,-0.012015237713525265,
0.12608478802992518,0.0024697797556694472,
0.1261346633416459,0.024903073754376205,
0.1261845386533666,-0.03540150716602778,
0.12623441396508728,-0.01732135953439851,
0.126284289276808,-0.011405342778143323,
0.12633416458852867,-0.01955323059254066,
0.12638403990024938,0.0021729610310326324,
0.1264339152119701,-0.008983249779120768,
0.12648379052369077,-0.01970344819511314,
0.12653366583541148,-0.024078779623859056,
0.12658354114713216,-0.039802814780718815,
0.12663341645885287,0.00028833715845088745,
0.12668329177057355,-0.018674904443378274,
0.12673316708229426,0.01887436692593472,
0.12678304239401497,0.009303345363553487,
0.12683291770573565,-0.013823835607068981,
0.12688279301745636,-0.01154228635819132,
0.12693266832917705,-0.02279867345789437,
0.12698254364089775,-0.012326417256488358,
0.12703241895261846,-0.016769392469343974,
0.12708229426433915,-0.011139837269106202,
0.12713216957605986,0.0021677583869757436,
0.12718204488778054,0.019179657142059502,
0.12723192019950125,-0.020343211801904137,
0.12728179551122196,-0.03425348808066523,
0.12733167082294264,-0.014994638720286184,
0.12738154613466335,-0.009378247568173431,
0.12743142144638403,-0.002546865975598495,
0.12748129675810474,0.0059034133442434356,
0.12753117206982545,-0.03221744384339655,
0.12758104738154613,-0.006220110823803291,
0.12763092269326684,0.01776033947871067,
0.12768079800498752,-0.00531715147755523,
0.12773067331670823,-0.027392374720632245,
0.1277805486284289,-0.033879593525325186,
0.12783042394014962,-0.013418843987658595,
0.12788029925187033,0.012748140880751171,
0.12793017456359101,-0.012294693648903099,
0.12798004987531172,-0.02209016795662551,
0.1280299251870324,-0.028274947077970652,
0.12807980049875312,0.019907369739454346,
0.12812967581047383,-0.041858041336603875,
0.1281795511221945,-0.016536267787455018,
0.12822942643391522,-0.027605487804256708,
0.1282793017456359,-0.01285530293570061,
0.1283291770573566,-0.011977855165263182,
0.12837905236907732,0.0025612831067431258,
0.128428927680798,-0.03258757641201434,
0.1284788029925187,-0.010473747009645597,
0.1285286783042394,-0.03562674991765881,
0.1285785536159601,-0.03612623742005529,
0.1286284289276808,-0.01485537605856025,
0.1286783042394015,-0.0031795462310395617,
0.1287281795511222,0.0010577204726210186,
0.12877805486284288,-0.0020182428770694387,
0.1288279301745636,-0.010249095853016494,
0.1288778054862843,-0.004834566575826386,
0.12892768079800498,-0.01587800415625649,
0.1289775561097257,-0.023201338704104207,
0.12902743142144638,-0.022402442180092186,
0.12907730673316709,-0.01260306836214668,
0.12912718204488777,-0.020749287754991352,
0.12917705735660848,0.016135761644345555,
0.1292269326683292,-0.01834923047204224,
0.12927680798004987,-0.037720940689724425,
0.12932668329177058,0.002076155342806741,
0.12937655860349126,0.0026946282655863855,
0.12942643391521197,-0.006786644033223212,
0.12947630922693268,-0.007689089685489878,
0.12952618453865336,-0.011567741694652274,
0.12957605985037407,-0.012083905206698043,
0.12962593516209475,-0.010383442487656996,
0.12967581047381546,-0.006923877896970015,
0.12972568578553617,-0.01087968037349982,
0.12977556109725685,-0.03508473297415042,
0.12982543640897756,-0.023201405918614297,
0.12987531172069824,-0.004130640367485804,
0.12992518703241895,-0.023250715982954445,
0.12997506234413966,-0.019872629938827005,
0.13002493765586035,0.00421892343589763,
0.13007481296758105,-0.031623840505189314,
0.13012468827930174,-0.02203249146769866,
0.13017456359102245,0.0030171275087901607,
0.13022443890274316,-0.017399547803074233,
0.13027431421446384,-0.007051002033047142,
0.13032418952618455,-0.04526334507157028,
0.13037406483790523,0.009303418580406887,
0.13042394014962594,0.009399464391685595,
0.13047381546134662,-0.004941410135045524,
0.13052369077306733,-0.02131423099301969,
0.13057356608478804,0.01898982018056772,
0.13062344139650872,0.03016855345930821,
0.13067331670822943,0.02151338460988536,
0.1307231920199501,0.009539315747523322,
0.13077306733167082,-0.000878831132459469,
0.13082294264339153,-0.00841764161729613,
0.13087281795511221,0.01738460431169217,
0.13092269326683292,-0.004272459106630768,
0.1309725685785536,-0.046616381716539965,
0.13102244389027431,-0.0015556814108976618,
0.13107231920199502,-0.004215874491065626,
0.1311221945137157,-0.011042140366790314,
0.13117206982543642,0.01164943081045812,
0.1312219451371571,-0.01063217554046657,
0.1312718204488778,0.0029036126619515893,
0.13132169576059852,-0.03667755470501434,
0.1313715710723192,-0.015223826743695427,
0.1314214463840399,-0.004017640050501096,
0.1314713216957606,-0.029661645046068132,
0.1315211970074813,-0.013178779588242652,
0.13157107231920198,0.012436588258159671,
0.1316209476309227,-0.004682059151558146,
0.1316708229426434,0.02329797070096533,
0.13172069825436408,0.007081304959663138,
0.1317705735660848,-0.01639772954228893,
0.13182044887780547,0.023054313663894547,
0.13187032418952618,0.013172270571456904,
0.1319201995012469,0.007641218040374126,
0.13197007481296757,0.01887053611724472,
0.13201995012468828,-0.010181481588175941,
0.13206982543640897,0.00814460996456938,
0.13211970074812968,-0.006712266673379648,
0.13216957605985039,0.016291427721733594,
0.13221945137157107,-0.012533347094788736,
0.13226932668329178,0.007808552387612576,
0.13231920199501246,0.022520517545744315,
0.13236907730673317,0.0019732578073079947,
0.13241895261845388,0.026291199954217772,
0.13246882793017456,-0.0021608335736308434,
0.13251870324189527,-0.010407459167210921,
0.13256857855361595,0.011677359091321504,
0.13261845386533666,0.0062016154553894195,
0.13266832917705737,0.026001559882848066,
0.13271820448877805,-0.004003638943358916,
0.13276807980049876,0.023414026932627834,
0.13281795511221944,0.010325649053414728,
0.13286783042394015,0.024177722428820977,
0.13291770573566083,-0.0019954471027718163,
0.13296758104738154,0.004970851631589555,
0.13301745635910225,0.011559783670851085,
0.13306733167082294,0.028612766071026533,
0.13311720698254365,0.01868870977786213,
0.13316708229426433,-0.010121801670087707,
0.13321695760598504,-0.0007190086738118606,
0.13326683291770575,0.010424368846815779,
0.13331670822942643,0.001644159398590441,
0.13336658354114714,0.038285973630457173,
0.13341645885286782,0.0026344977507554487,
0.13346633416458853,-0.004206828714676933,
0.13351620947630924,0.005818933432610718,
0.13356608478802992,0.02311519466142469,
0.13361596009975063,0.009595786118342822,
0.1336658354114713,0.03843750091109716,
0.13371571072319202,-0.005991152256587473,
0.13376558603491273,0.011556523826687481,
0.1338154613466334,0.054641441770915344,
0.13386533665835412,0.024518440138637146,
0.1339152119700748,0.005293308573443376,
0.13396508728179551,-0.008355048463463372,
0.1340149625935162,0.002954937705324864,
0.1340648379052369,0.017155694364159636,
0.13411471321695762,0.03436076981159281,
0.1341645885286783,0.001176718770790397,
0.134214463840399,0.0010242934007306179,
0.1342643391521197,0.0161920106011236,
0.1343142144638404,0.04493315571892762,
0.1343640897755611,0.036024613982988965,
0.1344139650872818,-0.007925849042285955,
0.1344638403990025,0.01734401425908174,
0.13451371571072318,0.026300252276165906,
0.1345635910224439,0.019038371395560673,
0.1346134663341646,0.003094181100923344,
0.13466334164588528,0.03470749707912522,
0.134713216957606,0.030902973860476704,
0.13476309226932667,0.04220276506593734,
0.13481296758104738,0.02402026991408064,
0.1348628428927681,0.01496794443612485,
0.13491271820448877,0.028562348308856678,
0.13496259351620948,0.010177261869055307,
0.13501246882793017,0.03546080654774569,
0.13506234413965088,0.04819093002806971,
0.13511221945137158,0.007108715325802165,
0.13516209476309227,0.011073105759949083,
0.13521197007481298,0.04728473618124649,
0.13526184538653366,0.036008270936170636,
0.13531172069825437,0.024053854750487717,
0.13536159600997505,0.0017323933477037604,
0.13541147132169576,0.02043230412537586,
0.13546134663341647,0.02018630814964611,
0.13551122194513715,0.016480797566111864,
0.13556109725685786,0.027366484989761505,
0.13561097256857854,-0.002748390347590994,
0.13566084788029925,0.02719464258321499,
0.13571072319201996,0.029836788276297696,
0.13576059850374064,0.018894558782231355,
0.13581047381546135,0.04425507584289816,
0.13586034912718203,0.014164280111693309,
0.13591022443890274,0.03373033454522812,
0.13596009975062345,0.04664357770696782,
0.13600997506234414,0.0361849359162814,
0.13605985037406484,0.006703966172668961,
0.13610972568578553,0.053982405883081314,
0.13615960099750624,0.02567866061042196,
0.13620947630922695,0.04101822086060601,
0.13625935162094763,0.030738472474938786,
0.13630922693266834,0.04573601763175901,
0.13635910224438902,0.041663751773120775,
0.13640897755610973,0.02352870910643262,
0.1364588528678304,0.023259267370065378,
0.13650872817955112,0.03657049116710146,
0.13655860349127183,0.022837316757280117,
0.1366084788029925,0.042955246225838614,
0.13665835411471322,0.05075272805789105,
0.1367082294264339,0.03512721944773391,
0.1367581047381546,0.023514885645025192,
0.13680798004987532,0.04224875585134636,
0.136857855361596,0.04789787397873171,
0.1369077306733167,0.024446894467571274,
0.1369576059850374,0.016714678654433615,
0.1370074812967581,0.013587205198627581,
0.13705735660847881,0.01585029686459797,
0.1371072319201995,0.032545706462508185,
0.1371571072319202,0.04399771645394918,
0.1372069825436409,0.009378205130574201,
0.1372568578553616,0.04150306218741083,
0.1373067331670823,0.04320138258563627,
0.137356608478803,0.05587142621462654,
0.1374064837905237,0.02415058884063936,
0.13745635910224438,0.05421218031723658,
0.1375062344139651,0.033126849315584156,
0.1375561097256858,0.025199734451458407,
0.13760598503740648,0.01844430509908124,
0.1376558603491272,0.028126762714166007,
0.13770573566084787,0.014630756438873795,
0.13775561097256858,0.02589124011616825,
0.13780548628428926,0.020461078600281908,
0.13785536159600997,0.0032361438627467806,
0.13790523690773068,0.037223302213467334,
0.13795511221945136,0.03576882704790485,
0.13800498753117207,0.024776786962942166,
0.13805486284289276,0.03759636164865575,
0.13810473815461347,0.03693931855958339,
0.13815461346633418,0.01036534797943017,
0.13820448877805486,0.035344728483713415,
0.13825436408977557,0.03468097480408599,
0.13830423940149625,0.025850570417848565,
0.13835411471321696,0.0034195835378536404,
0.13840399002493767,0.0774213186802354,
0.13845386533665835,0.02312490985808779,
0.13850374064837906,0.021974892551624922,
0.13855361596009974,0.03375283153336831,
0.13860349127182045,0.023837326299565087,
0.13865336658354116,0.017794118288256364,
0.13870324189526184,0.046697313036263906,
0.13875311720698255,0.007135715750780494,
0.13880299251870323,0.01615268036913857,
0.13885286783042394,0.019330736734484658,
0.13890274314214462,0.03465679445334714,
0.13895261845386533,0.049810912841154485,
0.13900249376558604,0.01193232731374998,
0.13905236907730673,0.028880717637264276,
0.13910224438902744,0.0027351424231190948,
0.13915211970074812,0.01554833717948226,
0.13920199501246883,0.02604915095691053,
0.13925187032418954,0.0320726313367206,
0.13930174563591022,-0.006027069766143235,
0.13935162094763093,0.008289462599681094,
0.1394014962593516,0.036231111603896436,
0.13945137157107232,0.03854340535645216,
0.13950124688279303,0.017971927785731152,
0.1395511221945137,0.019283597071022517,
0.13960099750623442,0.016871481021742483,
0.1396508728179551,0.046597915674424804,
0.1397007481296758,0.03764039612894148,
0.13975062344139652,0.050441129068169686,
0.1398004987531172,0.046069789140275624,
0.1398503740648379,0.025199553608658037,
0.1399002493765586,0.02292575655867401,
0.1399501246882793,0.028434095654502774,
0.14,0.025182815296263567,
0.1400498753117207,0.035521612306645224,
0.1400997506234414,0.032635040030214696,
0.1401496259351621,0.04227794132628113,
0.1401995012468828,0.013651739625751235,
0.14024937655860348,0.031187816419125082,
0.1402992518703242,0.018086950069425966,
0.1403491271820449,0.03948655513235846,
0.14039900249376558,-0.005635650853392883,
0.1404488778054863,0.03423971565050916,
0.14049875311720697,0.008763808090704504,
0.14054862842892768,0.02297198808561374,
0.1405985037406484,0.026012244201223576,
0.14064837905236907,0.01197240741365382,
0.14069825436408978,0.015954710757636617,
0.14074812967581046,0.026893534635031448,
0.14079800498753117,0.019099465374227097,
0.14084788029925188,0.027204852977574166,
0.14089775561097256,0.0368459264237703,
0.14094763092269327,0.018940662739475526,
0.14099750623441396,0.03608570846549693,
0.14104738154613466,0.006461216585030554,
0.14109725685785537,0.052706852385523126,
0.14114713216957606,0.001567936461280034,
0.14119700748129677,0.009413473275037412,
0.14124688279301745,0.037016615747930096,
0.14129675810473816,0.030294359000246927,
0.14134663341645887,0.026252586043262343,
0.14139650872817955,0.018984304429260686,
