time,amplitude,label
0.0,-0.01987450472384304,
4.987531172069826e-05,-0.009120913027164838,
9.975062344139652e-05,-0.03070201841758715,
0.00014962593516209475,-0.0006739990823458105,
0.00019950124688279303,-0.02945568764835814,
0.00024937655860349125,-0.027323263244825542,
0.0002992518703241895,-0.00858235726912937,
0.00034912718204488776,-0.0010705033691526256,
0.00039900249376558606,-0.00412822910568467,
0.0004488778054862843,-0.008148451483315323,
0.0004987531172069825,-0.01617772312528032,
0.0005486284289276808,-0.013049193532105522,
0.000598503740648379,-0.02768701110268315,
0.0006483790523690773,-0.02554136003504205,
0.0006982543640897755,-0.03739668356902065,
0.0007481296758104738,-0.013409169642779887,
0.0007980049875311721,-0.03265981363225025,
0.0008478802992518703,-0.0243221686291829,
0.0008977556109725686,-0.021299054396098128,
0.0009476309226932668,-0.03107115794602657,
0.000997506234413965,0.004728321133229997,
0.0010473815461346633,-0.04662944529402042,
0.0010972568578553616,-0.04474610135785726,
0.00114713216957606,-0.05407982379345278,
0.001197007481296758,-0.021779149684231766,
0.0012468827930174563,-0.014109125687481518,
0.0012967581047381546,-0.023811848786068623,
0.001346633416458853,0.012794717220734386,
0.001396508728179551,-0.05275765568883541,
0.0014463840399002493,-0.022539607762908698,
0.0014962593516209476,-0.015506841531486164,
0.001546134663341646,-0.0045503116492158335,
0.0015960099750623442,-0.02278688396844925,
0.0016458852867830423,-0.009436179675322743,
0.0016957605985037406,-0.011570552033917453,
0.001745635910224439,-0.026430207270203655,
0.0017955112219451373,-0.02850142382616241,
0.0018453865336658353,0.005978953767458883,
0.0018952618453865336,-0.02198943830386815,
0.001945137157107232,0.01822665337725437,
0.00199501246882793,-0.014667453959123378,
0.0020448877805486283,-0.030276842407139178,
0.0020947630922693266,-0.026782466364671964,
0.002144638403990025,-0.001420784151696667,
0.0021945137157107233,-0.0037842873776053818,
0.0022443890274314216,0.017598766663939707,
0.00229426433915212,-0.020155159621812763,
0.0023441396508728177,-0.03410088357958338,
0.002394014962593516,-0.017060658952717578,
0.0024438902743142144,-0.0395878764340787,
0.0024937655860349127,-0.024907412852102497,
0.002543640897755611,-0.020466571574694996,
0.0025935162094763093,-0.0009130070822727793,
0.0026433915211970076,-0.010123942553273412,
0.002693266832917706,-0.021728754002842635,
0.002743142144638404,-0.020091172655851374,
0.002793017456359102,-0.023811506722026244,
0.0028428927680798004,-0.02148777023386496,
0.0028927680798004987,-0.016734741930974344,
0.002942643391521197,-0.0030827453783804047,
0.0029925187032418953,0.01495101477552925,
0.0030423940149625936,-0.0016471525079852396,
0.003092269326683292,-0.024124404537713626,
0.00314214463840399,-0.025892972821310513,
0.0031920199501246885,-0.04057432080733598,
0.0032418952618453864,-0.030566173424783634,
0.0032917705735660847,-0.011957886688776193,
0.003341645885286783,-0.026219414117682756,
0.0033915211970074813,-0.04185422301777798,
0.0034413965087281796,-0.031940051001225364,
0.003491271820448878,0.004793340361758429,
0.003541147132169576,-0.013903575218529375,
0.0035910224438902745,-0.022233469400052126,
0.0036408977556109724,0.007995733834365384,
0.0036907730673316707,-0.005732879983155022,
0.003740648379052369,0.0046997619815022235,
0.0037905236907730673,-0.015251563072495318,
0.0038403990024937656,0.0017851811817979901,
0.003890274314214464,-0.0037452514760435845,
0.003940149625935162,0.00451255801338336,
0.00399002493765586,-0.022866832108946456,
0.004039900249376558,-0.04041081370955173,
0.004089775561097257,-0.03553331505865441,
0.004139650872817955,-0.0025769010287133437,
0.004189526184538653,-0.021589135255446826,
0.004239401496259352,-0.00620268017722787,
0.00428927680798005,-0.019167621486795707,
0.004339152119700748,-0.03539995148539676,
0.0043890274314214465,-0.036104766363496923,
0.004438902743142145,-0.02120690990446333,
0.004488778054862843,-0.02840610273722028,
0.004538653366583541,-0.03178532863743604,
0.00458852867830424,-0.025739504314726783,
0.004638403990024938,-0.008451925849479201,
0.0046882793017456355,-0.025814939754719057,
0.004738154613466334,-0.02494827465173109,
0.004788029925187032,-0.006645925547165945,
0.00483790523690773,0.007072617044042849,
0.004887780548628429,-0.020696545922171093,
0.004937655860349127,-0.0304621591874202,
0.004987531172069825,-0.017567143957531783,
0.005037406483790524,-0.004354142606553885,
0.005087281795511222,-0.02691507036482395,
0.00513715710723192,-0.0002744513855947456,
0.0051870324189526185,-0.010474082040692091,
0.005236907730673317,-0.004960749408302077,
0.005286783042394015,-0.02256226989858505,
0.0053366583541147134,-0.002860392222119307,
0.005386533665835412,-0.03249871016948741,
0.00543640897755611,0.0023284123921589843,
0.005486284289276808,0.0014589991265952472,
0.005536159600997507,-0.0061671771045764805,
0.005586034912718204,-0.020413268884111397,
0.005635910224438902,-0.020556381220775077,
0.005685785536159601,-0.011094238161423332,
0.005735660847880299,0.003114249418242428,
0.005785536159600997,0.013243825218861653,
0.005835411471321696,-0.02498520376315267,
0.005885286783042394,-0.015430929456078378,
0.005935162094763092,-0.01580141880713706,
0.0059850374064837905,-0.014726117994101864,
0.006034912718204489,0.003738258016076799,
0.006084788029925187,-0.015256191161601776,
0.0061346633416458855,-0.0014668643416245238,
0.006184538653366584,0.0018228777134271061,
0.006234413965087282,0.0002963245296384899,
0.00628428927680798,-0.027264579084661074,
0.006334164588528679,-0.003589466563601069,
0.006384039900249377,-0.016669261905737878,
0.006433915211970074,-0.006571748861182449,
0.006483790523690773,-4.1350931311552944e-05,
0.006533665835411471,-0.030725603177678244,
0.006583541147132169,0.009546587140353233,
0.006633416458852868,-0.028303507540075358,
0.006683291770573566,-0.014848515829539395,
0.006733167082294264,-0.006059248626340505,
0.0067830423940149626,-0.024459922200923828,
0.006832917705735661,-0.02229382503916741,
0.006882793017456359,-0.0011801677963591047,
0.0069326683291770575,-0.009916924170737891,
0.006982543640897756,0.012225291784531939,
0.007032418952618454,-0.001949749128942039,
0.007082294264339152,-0.0066631481641111,
0.007132169576059851,-0.010935907253656944,
0.007182044887780549,0.0027805969258302542,
0.007231920199501247,-0.0002712296121216602,
0.007281795511221945,-0.015352303824907583,
0.007331670822942643,-0.0008963226541577086,
0.007381546134663341,0.013228448554843762,
0.00743142144638404,0.0021541817788075625,
0.007481296758104738,-0.02572080933941522,
0.007531172069825436,0.0016910397881865153,
0.007581047381546135,-0.007059375848740399,
0.007630922693266833,-0.046982846600574515,
0.007680798004987531,0.009934539831621998,
0.0077306733167082295,0.035898753420587036,
0.007780548628428928,-0.01724772061685238,
0.007830423940149626,-0.003603735011722279,
0.007880299251870324,-0.014379476126857148,
0.007930174563591023,0.02056561118434337,
0.00798004987531172,-0.0065724306889328775,
0.00802992518703242,-0.013989010798768325,
0.008079800498753117,-0.0068639701325547454,
0.008129675810473816,-0.009539834515056448,
0.008179551122194513,0.01819343305827109,
0.008229426433915213,0.0278423805571132,
0.00827930174563591,0.0027456245411859024,
0.00832917705735661,-0.013603689769950179,
0.008379052369077307,-0.001434739091998829,
0.008428927680798006,0.03469725658487339,
0.008478802992518703,-0.00015288252620863267,
0.0085286783042394,0.0009670721113549804,
0.0085785536159601,-0.00767743284991292,
0.008628428927680797,0.0024364902045290225,
0.008678304239401496,0.0013927985464941488,
0.008728179551122194,0.016140529982488327,
0.008778054862842893,0.014203516311818619,
0.00882793017456359,-0.0017509196984777159,
0.00887780548628429,0.03614838734674478,
0.008927680798004987,0.014170527405431363,
0.008977556109725686,0.03843518298860053,
0.009027431421446384,0.02174516676911188,
0.009077306733167083,0.020680486766772067,
0.00912718204488778,0.009254230721846692,
0.00917705735660848,0.020984571912941827,
0.009226932668329177,0.012421625704286728,
0.009276807980049876,-0.019467548007387533,
0.009326683291770574,0.008885432626074878,
0.009376558603491271,-0.01545134434856339,
0.00942643391521197,0.012902940637639259,
0.009476309226932668,-0.005602716701497092,
0.009526184538653367,0.012389153663177778,
0.009576059850374064,0.03798575955293611,
0.009625935162094763,0.012278503045512793,
0.00967581047381546,0.03570514521405095,
0.00972568578553616,-0.003767154055026145,
0.009775561097256857,-0.005975939619824013,
0.009825436408977557,0.017730935342771603,
0.009875311720698254,0.019688847157447634,
0.009925187032418953,0.004696153390943276,
0.00997506234413965,0.02049764246526707,
0.01002493765586035,-0.024175530308608726,
0.010074812967581047,0.019380696172585324,
0.010124688279301746,0.003193731033057732,
0.010174563591022444,0.00866092620020309,
0.010224438902743141,0.021036027646234003,
0.01027431421446384,0.011418529573523581,
0.010324189526184538,0.043062685411983576,
0.010374064837905237,0.008991070883474209,
0.010423940149625935,0.03574617913966118,
0.010473815461346634,0.0018757034513793448,
0.010523690773067331,-0.009216840793411663,
0.01057356608478803,0.006079366444856635,
0.010623441396508728,-0.007379934722682927,
0.010673316708229427,0.04703312488215069,
0.010723192019950124,0.011705754532515732,
0.010773067331670824,0.003079600900958738,
0.010822942643391521,0.03571824669150389,
0.01087281795511222,0.011298867141996865,
0.010922693266832918,0.045131865777681274,
0.010972568578553617,0.0017451226768099588,
0.011022443890274314,0.03660812368151403,
0.011072319201995013,-0.012383816160418289,
0.01112219451371571,0.033698413778055214,
0.011172069825436408,0.024547598025784854,
0.011221945137157107,0.03078577148242295,
0.011271820448877805,0.00825723047426615,
0.011321695760598504,0.0013915065431822152,
0.011371571072319201,0.001937118950780449,
0.0114214463840399,0.04489170851032723,
0.011471321695760598,0.0032128264286564213,
0.011521197007481297,0.029009644842931444,
0.011571072319201995,0.024957979394573823,
0.011620947630922694,0.011837832983025966,
0.011670822942643391,0.0006203244471437441,
0.01172069825436409,0.027796550553530166,
0.011770573566084788,0.03650359407312479,
0.011820448877805487,0.03232360715204955,
0.011870324189526184,0.01973392176109435,
0.011920199501246884,-0.0011149007934871044,
0.011970074812967581,0.0072123483906083065,
0.012019950124688279,0.014722572146447567,
0.012069825436408978,0.01779588703129198,
0.012119700748129675,0.038111969516755204,
0.012169576059850374,0.036540936706969285,
0.012219451371571072,0.03039861085788207,
0.012269326683291771,-0.001973250679828179,
0.012319201995012468,0.02251117985179296,
0.012369077306733168,0.026503304780223405,
0.012418952618453865,0.013682449405924307,
0.012468827930174564,0.03522133691613504,
0.012518703241895262,0.015270340636364066,
0.01256857855361596,0.018641806752069508,
0.012618453865336658,0.028218671876542315,
0.012668329177057357,-0.009734849532630905,
0.012718204488778055,0.030257827788457297,
0.012768079800498754,0.018215554963870326,
0.012817955112219451,0.007358212953568245,
0.012867830423940149,0.019923815139517506,
0.012917705735660848,0.04551217038556646,
0.012967581047381545,-0.01744226532126952,
0.013017456359102245,0.0197725889661652,
0.013067331670822942,0.023174271013009687,
0.013117206982543641,0.02645405322059381,
0.013167082294264339,0.034402667544662736,
0.013216957605985038,0.026290497573116894,
0.013266832917705735,0.012983992441543113,
0.013316708229426434,0.03143895814892401,
0.013366583541147132,0.026516424212224,
0.013416458852867831,0.034352010491203525,
0.013466334164588529,0.00022448366794677183,
0.013516209476309228,0.018645114502980998,
0.013566084788029925,0.005420058348582477,
0.013615960099750624,0.03904726838612118,
0.013665835411471322,0.014618317034248401,
0.01371571072319202,0.020996547489833355,
0.013765586034912718,-0.003448652049119115,
0.013815461346633416,0.02462325454076124,
0.013865336658354115,0.01694963206138972,
0.013915211970074812,0.023092772045601083,
0.013965087281795512,0.001305788817271416,
0.014014962593516209,0.012730667672777543,
0.014064837905236908,0.022720417838839504,
0.014114713216957606,-0.009341871500693436,
0.014164588528678305,0.042262847560980685,
0.014214463840399002,0.036896644481380914,
0.014264339152119701,0.022688102517993927,
0.014314214463840399,0.02051191656932722,
0.014364089775561098,0.029317072332086774,
0.014413965087281795,0.025372350869016257,
0.014463840399002495,0.0053693703587639925,
0.014513715710723192,0.015298283954932233,
0.01456359102244389,0.011567442650330433,
0.014613466334164589,0.007013729412535703,
0.014663341645885286,0.004372420374229025,
0.014713216957605985,0.010516367330224756,
0.014763092269326683,0.0031708071564118673,
0.014812967581047382,0.008432799620924997,
0.01486284289276808,0.042211814489267904,
0.014912718204488778,-0.005009113406244589,
0.014962593516209476,0.062408017735788315,
0.015012468827930175,0.02686142513452605,
0.015062344139650873,0.04636236157262041,
0.015112219451371572,0.024193044823371215,
0.01516209476309227,0.023567681929026092,
0.015211970074812968,0.029858037532639145,
0.015261845386533666,0.02130779832246024,
0.015311720698254365,0.012651798499577,
0.015361596009975062,0.023128995033345777,
0.01541147132169576,0.02597338227687681,
0.015461346633416459,0.034461851717299284,
0.015511221945137156,0.01899778783736307,
0.015561097256857856,-0.00732750198259665,
0.015610972568578553,0.021830795463339027,
0.015660847880299252,0.020717360386713735,
0.01571072319201995,0.027028561344812782,
0.015760598503740647,-0.00839025957924369,
0.015810473815461346,0.03466076092173134,
0.015860349127182045,0.01260658935429361,
0.015910224438902745,0.008796087684471501,
0.01596009975062344,-0.010580037074650678,
0.01600997506234414,0.031201179706514648,
0.01605985037406484,0.021578297535564034,
0.016109725685785538,0.01622232923708676,
0.016159600997506234,-0.0008352544165779845,
0.016209476309226933,0.04175829835104472,
0.016259351620947632,-0.021863800129033495,
0.016309226932668328,0.004529640177284082,
0.016359102244389027,0.011159944331990886,
0.016408977556109726,0.000660888768695406,
0.016458852867830425,-0.00419367033203164,
0.01650872817955112,-0.025164018089214774,
0.01655860349127182,0.03211139740334716,
0.01660847880299252,0.013758062536257904,
0.01665835411471322,-0.008557504651956475,
0.016708229426433914,0.033391967824961684,
0.016758104738154613,0.0025905823990607308,
0.016807980049875312,0.0033810265104023494,
0.01685785536159601,0.0026007146880429616,
0.016907730673316707,0.0013304685835625338,
0.016957605985037406,0.015278986654821483,
0.017007481296758106,-0.001222062833770729,
0.0170573566084788,0.016842402833867808,
0.0171072319201995,0.0026988801523518853,
0.0171571072319202,-0.01911957749244906,
0.0172069825436409,-0.01115156755153936,
0.017256857855361595,-0.00035556054011217503,
0.017306733167082294,0.009942049100161146,
0.017356608478802993,0.04864179529580523,
0.017406483790523692,-0.004147160418283575,
0.017456359102244388,0.02104803857879771,
0.017506234413965087,-0.03500783100964836,
0.017556109725685786,0.0033864341372376633,
0.017605985037406485,0.0011626568791142573,
0.01765586034912718,0.01412813418158573,
0.01770573566084788,0.015185577475773213,
0.01775561097256858,0.008555448706318868,
0.01780548628428928,-0.0077481012203781145,
0.017855361596009974,-0.01586309922690225,
0.017905236907730673,0.002731886576115998,
0.017955112219451373,-0.014086075798334787,
0.018004987531172068,0.013789009114232517,
0.018054862842892767,0.017618024696766595,
0.018104738154613467,0.002960502346133895,
0.018154613466334166,0.007697211000624876,
0.01820448877805486,0.02918000914534325,
0.01825436408977556,0.006855034462915336,
0.01830423940149626,0.009153538673779492,
0.01835411471321696,-0.006286643588543777,
0.018403990024937655,0.000341041598155159,
0.018453865336658354,-0.01749849953270113,
0.018503740648379053,0.01049637309225623,
0.018553615960099752,-0.0004890707509654512,
0.018603491271820448,0.02510702896481398,
0.018653366583541147,-0.005573996539992741,
0.018703241895261846,-0.03733926951266677,
0.018753117206982542,0.020629788996198543,
0.01880299251870324,-0.015854282430171333,
0.01885286783042394,-0.047245394899374515,
0.01890274314214464,0.012201632639828004,
0.018952618453865335,0.0037892346066460882,
0.019002493765586034,-0.013585473026931198,
0.019052369077306733,-0.009516829407694018,
0.019102244389027433,0.008081791345281105,
0.01915211970074813,-0.01902571892126625,
0.019201995012468828,0.031114841590590955,
0.019251870324189527,-0.027638018006184335,
0.019301745635910226,-0.02999472187085861,
0.01935162094763092,-0.02533218715025881,
0.01940149625935162,-0.018012810032252555,
0.01945137157107232,0.006475804389533375,
0.01950124688279302,0.0002675450311780429,
0.019551122194513715,-0.01010286085647614,
0.019600997506234414,0.0010143515809658346,
0.019650872817955113,0.027267248838330205,
0.01970074812967581,-0.01766763255073655,
0.019750623441396508,-0.023158229386167257,
0.019800498753117207,0.010307670527659712,
0.019850374064837906,-0.0166707952362084,
0.019900249376558602,-0.03382389480951158,
0.0199501246882793,-0.017786333942940526,
0.02,-0.012904347985237968,
0.0200498753117207,-0.027339933182383105,
0.020099750623441395,-0.023568626308479862,
0.020149625935162094,0.005105514274741759,
0.020199501246882794,-0.02339998054183129,
0.020249376558603493,0.010190758610069559,
0.02029925187032419,-0.004944382108631058,
0.020349127182044888,-0.022020114101602,
0.020399002493765587,-0.021736790691414938,
0.020448877805486283,-0.03028271492325829,
0.02049875311720698,-0.015522294652414576,
0.02054862842892768,-0.014730502100022809,
0.02059850374064838,0.004341695322766445,
0.020648379052369076,-0.03099065180978683,
0.020698254364089775,-0.014263557322944577,
0.020748129675810474,-0.017707832855830677,
0.020798004987531173,-0.02433957824088647,
0.02084788029925187,-0.0407761775843175,
0.020897755610972568,0.013277576593201267,
0.020947630922693267,-0.024761937519969687,
0.020997506234413967,0.013507936035003762,
0.021047381546134662,-0.03196288350301073,
0.02109725685785536,-0.009634694453858379,
0.02114713216957606,0.01720076910516439,
0.02119700748129676,-0.03956123955066665,
0.021246882793017455,-0.008447900695898177,
0.021296758104738155,-0.03236070571023642,
0.021346633416458854,0.019758333201923918,
0.02139650872817955,-0.009468265134910388,
0.02144638403990025,-0.03094536018473238,
0.021496259351620948,-0.024048738310694606,
0.021546134663341647,-0.028372276946653677,
0.021596009975062343,-0.016149592934357204,
0.021645885286783042,-0.02055478611216432,
0.02169576059850374,-0.02112471352952539,
0.02174563591022444,-0.03492159376602647,
0.021795511221945136,-0.012208670137494142,
0.021845386533665835,-0.02111971058201405,
0.021895261845386534,-0.03042994194692445,
0.021945137157107233,-0.021263123337015365,
0.02199501246882793,-0.04142724396530185,
0.02204488778054863,-0.04735969498255946,
0.022094763092269327,-0.032113227381450386,
0.022144638403990027,-0.020145517867945585,
0.022194513715710722,0.0037807855741787515,
0.02224438902743142,0.007761177094549505,
0.02229426433915212,-0.021721345118116665,
0.022344139650872816,-0.01985096163462029,
0.022394014962593516,-0.03666089192048286,
0.022443890274314215,-0.03314265976415815,
0.022493765586034914,-0.026446513084207653,
0.02254364089775561,-0.020836391507662023,
0.02259351620947631,-0.026575260189631494,
0.022643391521197008,-0.0404143663718777,
0.022693266832917707,-0.02959157676159275,
0.022743142144638403,-0.01760672291163699,
0.022793017456359102,-0.034779763257051795,
0.0228428927680798,-0.026238646515844767,
0.0228927680798005,-0.011391442237444155,
0.022942643391521196,-0.03642545516371948,
0.022992518703241895,-0.04304653182548452,
0.023042394014962594,-0.04796196150335126,
0.02309226932668329,-0.031437197273809815,
0.02314214463840399,-0.03874476940879119,
0.02319201995012469,-0.010407889073518601,
0.023241895261845388,0.0018338211967456435,
0.023291770573566083,-0.012669642266320572,
0.023341645885286783,-0.01133758923713334,
0.02339152119700748,-0.012190050929413873,
0.02344139650872818,-0.02197473468951081,
0.023491271820448877,-0.020988382725456764,
0.023541147132169576,-0.009723084600667172,
0.023591022443890275,-0.04591997461104107,
0.023640897755610974,-0.007671626537388581,
0.02369077306733167,-0.025845947788911063,
0.02374064837905237,-0.007467241475994153,
0.023790523690773068,-0.04738365170464415,
0.023840399002493767,-0.027130537082456406,
0.023890274314214463,-0.023997471016033667,
0.023940149625935162,-0.04463557908832345,
0.02399002493765586,0.006966721092121611,
0.024039900249376557,-0.024599214830148042,
0.024089775561097256,-0.008380085360165698,
0.024139650872817955,-0.006616806272759712,
0.024189526184538655,-0.015703340563825368,
0.02423940149625935,-0.003729073651055282,
0.02428927680798005,-0.01817237444674327,
0.02433915211970075,-0.008135984475084894,
0.024389027431421448,-0.016038840913733754,
0.024438902743142144,-0.004832457694745098,
0.024488778054862843,-0.04802310196349163,
0.024538653366583542,-0.008780774549979171,
0.02458852867830424,-0.004643524979426867,
0.024638403990024937,-0.01449002536795238,
0.024688279301745636,0.00929846605834381,
0.024738154613466335,-0.04222399066886352,
0.02478802992518703,-0.01586383670716349,
0.02483790523690773,-0.021150434030718125,
0.02488778054862843,-0.013062387480310815,
0.02493765586034913,-0.014757685880186182,
0.024987531172069824,-0.017529848638457465,
0.025037406483790523,-0.024532939129140702,
0.025087281795511222,0.0104683761361899,
0.02513715710723192,-0.019421400184840433,
0.025187032418952617,-0.01815418240073103,
0.025236907730673316,-0.02539230292532253,
0.025286783042394016,0.021766751597482214,
0.025336658354114715,-0.03160283011212102,
0.02538653366583541,-0.0014618947234600818,
0.02543640897755611,-0.01904958449957491,
0.02548628428927681,-0.01894804496724392,
0.025536159600997508,-0.0019011790713614612,
0.025586034912718204,0.0005667719862040912,
0.025635910224438903,0.011428729538211195,
0.025685785536159602,-0.028097760083270765,
0.025735660847880298,-0.021480921838743,
0.025785536159600997,0.0015754239312979965,
0.025835411471321696,-0.026654837929833863,
0.025885286783042395,-0.013009656670965916,
0.02593516209476309,-0.02416068964670838,
0.02598503740648379,-0.03102594040032217,
0.02603491271820449,-0.016013411447627038,
0.02608478802992519,0.010007633694842357,
0.026134663341645884,-0.004754326032990667,
0.026184538653366583,-0.011437033744833253,
0.026234413965087282,0.014310287657224165,
0.02628428927680798,-0.011533884313968666,
0.026334164588528677,-0.016818821356568404,
0.026384039900249377,0.0022467293850899125,
0.026433915211970076,-0.0029796773571515445,
0.02648379052369077,0.014461357257920266,
0.02653366583541147,0.005617778863961332,
0.02658354114713217,-0.015915180801855784,
0.02663341645885287,-0.013154633561585416,
0.026683291770573565,-0.018282468799675777,
0.026733167082294264,-0.016667223178957438,
0.026783042394014963,-0.026610100775421898,
0.026832917705735662,0.016267259281127534,
0.026882793017456358,-0.037210580763524376,
0.026932668329177057,-0.013235534045147258,
0.026982543640897756,-0.033854539143765405,
0.027032418952618455,-0.00023581180257834043,
0.02708229426433915,-0.000745446024778388,
0.02713216957605985,-0.02302618282882743,
0.02718204488778055,-0.008501244605430669,
0.02723192019950125,0.018377691561869556,
0.027281795511221944,0.012524034788605368,
0.027331670822942643,0.015573210546735177,
0.027381546134663343,-0.009217437125526945,
0.02743142144638404,0.004412688356221834,
0.027481296758104738,0.026232348793392226,
0.027531172069825437,0.007847176759070339,
0.027581047381546136,0.012647723412766217,
0.02763092269326683,-0.004392951151367426,
0.02768079800498753,0.017864378597024073,
0.02773067331670823,-0.008928519503635216,
0.02778054862842893,0.01848588668522894,
0.027830423940149625,-0.009174444919565213,
0.027880299251870324,0.023674877150269568,
0.027930174563591023,-0.024385245685300375,
0.027980049875311722,0.016275016607885648,
0.028029925187032418,0.0018177660160676313,
0.028079800498753117,-0.006443993386409155,
0.028129675810473816,0.005821267879169404,
0.028179551122194512,0.014804494920789066,
0.02822942643391521,-0.010000947523055899,
0.02827930174563591,-0.006867004296601538,
0.02832917705735661,-0.0005290368330476691,
0.028379052369077305,0.014356338806049664,
0.028428927680798004,0.007390239488137213,
0.028478802992518704,-0.017242550159840553,
0.028528678304239403,0.014825109827351933,
0.0285785536159601,-0.018707576455567566,
0.028628428927680798,0.014672242623249657,
0.028678304239401497,0.018844102583982145,
0.028728179551122196,-0.017910284080719093,
0.02877805486284289,-0.0007804147394271498,
0.02882793017456359,0.0037273668390833824,
0.02887780548628429,0.01525847773290679,
0.02892768079800499,0.02097586489218483,
0.028977556109725685,-0.004726802099721619,
0.029027431421446384,-0.006785841656791445,
0.029077306733167083,-0.005007930696591448,
0.02912718204488778,0.008607557561336847,
0.029177057356608478,0.014677834929607256,
0.029226932668329177,0.015459501646894287,
0.029276807980049877,0.013160467876354779,
0.029326683291770572,-0.012520293470262036,
0.02937655860349127,0.040931626302905616,
0.02942643391521197,0.0023873332355361567,
0.02947630922693267,0.015384830048155556,
0.029526184538653365,-0.0010890879900056737,
0.029576059850374065,0.0023911418596737222,
0.029625935162094764,0.01570670906505136,
0.029675810473815463,0.004373780550330954,
0.02972568578553616,0.03427647121620393,
0.029775561097256858,0.005399490574402382,
0.029825436408977557,0.0072075981873756904,
0.029875311720698253,-0.010505275615239312,
0.029925187032418952,0.012844258197517588,
0.02997506234413965,0.02106667058862514,
0.03002493765586035,0.011591759660671103,
0.030074812967581046,0.013622998212679644,
0.030124688279301745,-0.005053860108279774,
0.030174563591022444,0.02099507153459146,
0.030224438902743143,0.011708989088030594,
0.03027431421446384,-0.023900443009077947,
0.03032418952618454,-0.02106231905469194,
0.030374064837905237,0.011794772036136911,
0.030423940149625937,0.008713864474797162,
0.030473815461346632,-0.012216723672421508,
0.03052369077306733,0.008226738754074436,
0.03057356608478803,0.014763421013243544,
0.03062344139650873,0.002536173350296189,
0.030673316708229426,0.04075396825543741,
0.030723192019950125,0.021721973978908838,
0.030773067331670824,0.022784794400361498,
0.03082294264339152,-0.0068557047472548385,
0.03087281795511222,0.03260176536806561,
0.030922693266832918,0.03112563228344639,
0.030972568578553617,-0.015918303012926446,
0.031022443890274313,0.009539120968850696,
0.031072319201995012,0.03085983028465794,
0.03112219451371571,-0.015676591982581374,
0.03117206982543641,0.015408454449994922,
0.031221945137157106,0.017195610025924565,
0.03127182044887781,0.008517453734564662,
0.031321695760598504,0.03149125922676042,
0.0313715710723192,-0.006606158283851027,
0.0314214463840399,0.02525327808367115,
0.0314713216957606,0.027761919562789346,
0.031521197007481294,0.005258110106036943,
0.031571072319202,0.0373891836159521,
0.03162094763092269,0.019329526597638532,
0.03167082294264339,0.00010839687681770543,
0.03172069825436409,0.026119737738720984,
0.03177057356608479,0.003809978147564605,
0.03182044887780549,0.034498876043227954,
0.031870324189526185,0.017872279109042252,
0.03192019950124688,0.027093825868243,
0.03197007481296758,0.027433919324248438,
0.03201995012468828,0.03048151081105291,
0.032069825436408975,0.016103522977557932,
0.03211970074812968,0.04147593485919914,
0.03216957605985037,0.026626234284459017,
0.032219451371571076,0.0441897176716622,
0.03226932668329177,0.02364509888186079,
0.03231920199501247,0.019074225122046443,
0.03236907730673317,0.034788831727156785,
0.032418952618453865,0.01784439896170176,
0.03246882793017456,-0.0064510977569935644,
0.032518703241895264,-0.007506080291127374,
0.03256857855361596,0.03627030385389377,
0.032618453865336655,0.03849920634020715,
0.03266832917705736,0.02420974841929792,
0.032718204488778053,0.017104980611781485,
0.032768079800498756,0.008004659482576707,
0.03281795511221945,0.005145830149980733,
0.03286783042394015,0.02926284509695767,
0.03291770573566085,0.03561639475436883,
0.032967581047381546,0.01441207889520226,
0.03301745635910224,0.02788899093830176,
0.033067331670822944,0.019375694336741214,
0.03311720698254364,0.023048134562353422,
0.03316708229426434,0.010158370134254338,
0.03321695760598504,-0.007896791667774364,
0.033266832917705734,-0.016164701121928693,
0.03331670822942644,0.024801784575000436,
0.03336658354114713,0.00021138815359923388,
0.03341645885286783,-0.004541444182346945,
0.03346633416458853,0.03146061849100663,
0.033516209476309226,0.008387749635249747,
0.03356608478802992,0.06569069481023393,
0.033615960099750625,0.0018753496427507121,
0.03366583541147132,0.027670962807899224,
0.03371571072319202,0.0270575378965234,
0.03376558603491272,0.04397149297348317,
0.033815461346633414,0.05368360326365104,
0.03386533665835412,0.028319457305870575,
0.03391521197007481,0.023931043386276152,
0.03396508728179551,0.019604416086460106,
0.03401496259351621,0.013874132293643496,
0.03406483790523691,0.030635077063187015,
0.0341147132169576,0.02022648465723325,
0.034164588528678305,0.0048930329909022095,
0.034214463840399,0.005889274208449199,
0.034264339152119704,0.013965804597524945,
0.0343142144638404,0.020700688938143738,
0.034364089775561095,0.027871593678802882,
0.0344139650872818,0.013538955294428693,
0.03446384039900249,0.038083486316386556,
0.03451371571072319,0.02221080911616957,
0.03456359102244389,0.02467944902456083,
0.03461346633416459,0.034170586880069714,
0.03466334164588529,0.017164127776933054,
0.034713216957605986,0.05339782145050217,
0.03476309226932668,0.0316838207304527,
0.034812967581047384,0.018858452486526785,
0.03486284289276808,0.013446308920445736,
0.034912718204488775,0.02821379886744327,
0.03496259351620948,0.017628640341286167,
0.035012468827930174,0.048239678043026535,
0.03506234413965087,0.005687272708171449,
0.03511221945137157,0.019488958172780183,
0.03516209476309227,0.0225148402265788,
0.03521197007481297,0.014001690796050265,
0.035261845386533666,-0.03107924355277139,
0.03531172069825436,0.01822824446804183,
0.035361596009975065,0.024078339896006114,
0.03541147132169576,0.008095080327734467,
0.035461346633416456,0.004572995173931716,
0.03551122194513716,0.022288091505192707,
0.035561097256857854,0.017886859033397987,
0.03561097256857856,0.027010346681308577,
0.03566084788029925,0.0019027114782552285,
0.03571072319201995,0.010028554146964255,
0.03576059850374065,0.01710504774669104,
0.03581047381546135,0.03705689401142043,
0.03586034912718204,0.027901402969139823,
0.035910224438902745,0.02297949733873558,
0.03596009975062344,0.012531966060615402,
0.036009975062344136,0.0012526972522763948,
0.03605985037406484,0.033049232624760366,
0.036109725685785535,0.0010896654171423277,
0.03615960099750624,-0.006308359167556503,
0.03620947630922693,-0.011383667289638333,
0.03625935162094763,0.00502941066596072,
0.03630922693266833,0.009167278208880136,
0.03635910224438903,0.01952856212423915,
0.03640897755610972,0.03495935324181984,
0.036458852867830426,-0.010557808225107523,
0.03650872817955112,0.010722095062798795,
0.036558603491271824,0.023944224720365732,
0.03660847880299252,-0.022281509127412235,
0.036658354114713215,0.015379495951623683,
0.03670822942643392,-0.01236078246721399,
0.036758104738154614,0.012170243247196086,
0.03680798004987531,0.019776812305276496,
0.03685785536159601,0.010559138955470953,
0.03690773067331671,0.00310248645014375,
0.0369576059850374,0.019453309382892806,
0.037007481296758106,0.009233412805386072,
0.0370573566084788,0.0031125314903452115,
0.037107231920199504,0.018887861242244203,
0.0371571072319202,0.010970242698002144,
0.037206982543640896,-0.011632714847496473,
0.0372568578553616,0.00032620741186665213,
0.037306733167082294,0.026384636207803704,
0.03735660847880299,0.020232148071010043,
0.03740648379052369,0.011829423058721021,
0.03745635910224439,-0.00607414646545321,
0.037506234413965084,-0.017526268739281224,
0.037556109725685786,0.012031444015275197,
0.03760598503740648,-0.007511918364393746,
0.037655860349127185,0.0037666480205478144,
0.03770573566084788,-0.023866004175334687,
0.037755610972568576,0.010554611890855934,
0.03780548628428928,0.000624742014160528,
0.037855361596009975,-0.014598641922364394,
0.03790523690773067,0.025701974046369164,
0.03795511221945137,0.0040854100890958716,
0.03800498753117207,0.014661576475508179,
0.03805486284289277,0.04259067227986152,
0.03810473815461347,0.002299108883220673,
0.03815461346633416,0.019724714229161795,
0.038204488778054865,-0.017266612745462595,
0.03825436408977556,-0.000827217976036109,
0.03830423940149626,-0.001581661015114296,
0.03835411471321696,0.002727777709209227,
0.038403990024937655,-0.010516013207629203,
0.03845386533665835,0.0038362803929621516,
0.03850374064837905,-0.00034465147669193144,
0.03855361596009975,-0.00018928661867299065,
0.03860349127182045,-0.022822011860920057,
0.03865336658354115,-0.024222047856889944,
0.03870324189526184,-0.02658242036768331,
0.038753117206982546,-0.0023078593507480974,
0.03880299251870324,-0.036264080578108336,
0.03885286783042394,0.012111261779371277,
0.03890274314214464,0.02044388007610968,
0.038952618453865336,-0.0012339736664312112,
0.03900249376558604,-0.029538988257869696,
0.039052369077306734,0.0012401143054425723,
0.03910224438902743,-0.01109531024655031,
0.03915211970074813,-0.023648620778415067,
0.03920199501246883,0.0015915703262077995,
0.039251870324189524,0.004538878469235496,
0.039301745635910226,0.006526237606466385,
0.03935162094763092,-0.026189727840910892,
0.03940149625935162,-0.008279657489085285,
0.03945137157107232,-0.008337849243990069,
0.039501246882793016,-0.02339316497394482,
0.03955112219451372,0.023896378660460467,
0.039600997506234414,0.005169207909281857,
0.03965087281795511,-0.003871554928846553,
0.03970074812967581,0.014095794826334938,
0.03975062344139651,-0.01974539250514941,
0.039800498753117204,-0.004066000890780272,
0.03985037406483791,0.00106796131404493,
0.0399002493765586,-0.014581038003634108,
0.039950124688279305,-0.011153405301087318,
0.04,-0.013884501683286268,
0.0400498753117207,0.013280318625055517,
0.0400997506234414,-0.0038630042092216797,
0.040149625935162095,-0.0254898747289335,
0.04019950124688279,-0.0033298150236415773,
0.04024937655860349,0.021540926315731023,
0.04029925187032419,-0.02377172997255565,
0.040349127182044885,-0.00014578889777987387,
0.04039900249376559,-0.00955277967303595,
0.04044887780548628,-0.02894058051020903,
0.040498753117206986,-0.04372668217944347,
0.04054862842892768,-0.011459776598695558,
0.04059850374064838,-0.028292065980483564,
0.04064837905236908,0.025448591112559177,
0.040698254364089775,-0.004799004567469445,
0.04074812967581047,0.008216898966320378,
0.040798004987531174,-0.022423928028118108,
0.04084788029925187,0.009198134474336983,
0.040897755610972565,-0.01597727601613573,
0.04094763092269327,-0.021490602495886947,
0.04099750623441396,-0.021501637180392483,
0.041047381546134666,-0.010004525474039865,
0.04109725685785536,-0.0033057626319013284,
0.04114713216957606,-0.020757640599016247,
0.04119700748129676,-0.005711348950943319,
0.041246882793017456,-0.005054481350242853,
0.04129675810473815,-0.0037519134210562063,
0.041346633416458854,-0.013145973055034973,
0.04139650872817955,0.01339620523520893,
0.04144638403990025,0.011360387535630526,
0.04149625935162095,-0.009209177004920258,
0.041546134663341644,-0.0014232342628813684,
0.04159600997506235,0.002129705653550251,
0.04164588528678304,-0.006414470773601865,
0.04169576059850374,-0.013454709836735735,
0.04174563591022444,-0.0050125929741114145,
0.041795511221945136,-0.01595866491164644,
0.04184538653366583,-0.0009713854763064318,
0.041895261845386535,-0.02135471162637047,
0.04194513715710723,-0.003516969873948953,
0.04199501246882793,-0.008178282517926195,
0.04204488778054863,-0.012237841269852149,
0.042094763092269324,-0.013833897777925437,
0.04214463840399003,-0.01965972931160509,
0.04219451371571072,-0.008553403044826487,
0.04224438902743142,-0.02042307377819697,
0.04229426433915212,-0.013102969016816105,
0.04234413965087282,-0.025934867345926222,
0.04239401496259352,-0.023080011544812186,
0.042443890274314215,-0.01976386551042844,
0.04249376558603491,0.00619347167928189,
0.042543640897755614,0.005737519037979689,
0.04259351620947631,0.011085652019911168,
0.042643391521197005,-0.030097433502976924,
0.04269326683291771,-0.01080181718665706,
0.0427431421446384,-0.0382397962360297,
0.0427930174563591,-0.04856765170749201,
0.0428428927680798,0.022892855783720054,
0.0428927680798005,-0.008459249356394513,
0.0429426433915212,-0.006909235281310105,
0.042992518703241896,-0.03295593492136998,
0.04304239401496259,0.004749920422056467,
0.043092269326683294,0.029275223653473518,
0.04314214463840399,-0.018174946553625122,
0.043192019950124685,-0.02553872945482588,
0.04324189526184539,-0.03391802691958609,
0.043291770573566084,-0.0354852892574881,
0.043341645885286786,-0.021957380514807674,
0.04339152119700748,-0.028842394240418012,
0.04344139650872818,-0.00934207193755135,
0.04349127182044888,-0.01584000855318099,
0.043541147132169576,-0.028818817987513606,
0.04359102244389027,-0.02188840874321191,
0.043640897755610975,-0.042518486052768215,
0.04369077306733167,-0.022879629659358566,
0.043740648379052366,-0.011301921435587796,
0.04379052369077307,-0.028941186884102403,
0.043840399002493764,-0.015148935192804141,
0.04389027431421447,0.002836702665279859,
0.04394014962593516,-0.023587279098730658,
0.04399002493765586,-0.021517972246451883,
0.04403990024937656,-0.012089044230489624,
0.04408977556109726,0.002193146892932766,
0.04413965087281795,-0.009615549841825792,
0.044189526184538655,-0.0027338526757857,
0.04423940149625935,-0.03643345695191022,
0.04428927680798005,-0.026187572695433897,
0.04433915211970075,-0.01665768774961429,
0.044389027431421445,-0.037925782827625924,
0.04443890274314215,0.0032288346307885827,
0.04448877805486284,-0.00722098671191268,
0.04453865336658354,-0.01983159073281971,
0.04458852867830424,0.0005942968730301822,
0.04463840399002494,-0.029162334410591823,
0.04468827930174563,0.023283328119906275,
0.044738154613466335,-0.021948685879188384,
0.04478802992518703,-0.011896672777437934,
0.044837905236907734,0.0018961646519241523,
0.04488778054862843,-0.020560849267214465,
0.044937655860349125,-0.0089712051079495,
0.04498753117206983,-0.00944223881934984,
0.045037406483790524,0.0029512980981453735,
0.04508728179551122,-0.02061107431545062,
0.04513715710723192,0.004522349280466655,
0.04518703241895262,-0.007703137383552232,
0.04523690773067331,0.031240344465946028,
0.045286783042394016,-0.02111534446024222,
0.04533665835411471,-0.012710868828862354,
0.045386533665835414,0.008256617116675488,
0.04543640897755611,-0.006113625748696777,
0.045486284289276806,-0.012614215049345139,
0.04553615960099751,-0.01978045692930508,
0.045586034912718204,-0.033432045548272143,
0.0456359102244389,-0.02390014570989321,
0.0456857855361596,-0.008488607595917448,
0.0457356608478803,-0.005389722545042646,
0.045785536159601,-0.010073296082648056,
0.045835411471321696,0.0027074678495840263,
0.04588528678304239,-0.02102836045563356,
0.045935162094763095,-0.02636392234776993,
0.04598503740648379,-0.01786780343717395,
0.046034912718204486,0.0004996647520065321,
0.04608478802992519,0.008265948489552036,
0.046134663341645885,-0.008758620443446103,
0.04618453865336658,0.006012320708044781,
0.04623441396508728,-0.024134287054471546,
0.04628428927680798,-0.007262063086365043,
0.04633416458852868,0.008739859757068993,
0.04638403990024938,-0.009276192186540648,
0.04643391521197007,-0.035144012410587205,
0.046483790523690775,0.0067105197134581795,
0.04653366583541147,0.013120701399180439,
0.04658354114713217,-0.004616342734397261,
0.04663341645885287,0.009793251125895614,
0.046683291770573565,-0.031047300628283526,
0.04673316708229427,-0.006262970493885125,
0.04678304239401496,-0.008757767493589436,
0.04683291770573566,-0.01860797643119155,
0.04688279301745636,-0.006696184485735309,
0.04693266832917706,0.006042479488385423,
0.04698254364089775,-0.00663914186958941,
0.047032418952618456,0.00586849811847401,
0.04708229426433915,-0.005354999264532972,
0.04713216957605985,0.017231221135674574,
0.04718204488778055,-0.022574602864570144,
0.047231920199501246,0.01362411521363789,
0.04728179551122195,0.01121013185714186,
0.047331670822942644,0.016143762124861044,
0.04738154613466334,-0.0053568882631747795,
0.04743142144638404,-0.012256596596109339,
0.04748129675810474,0.019190850449229333,
0.047531172069825434,0.021513759975256327,
0.047581047381546136,0.027601954872029717,
0.04763092269326683,0.025091835682099266,
0.047680798004987535,0.01886411124744806,
0.04773067331670823,-0.006807407745997461,
0.047780548628428926,-0.008386553576997567,
0.04783042394014963,0.009093998199681444,
0.047880299251870324,0.012812220034359554,
0.04793017456359102,0.016664887947207337,
0.04798004987531172,0.014263599884266157,
0.04802992518703242,0.019289998292433094,
0.048079800498753114,0.012005005770953118,
0.04812967581047382,0.015640516258459733,
0.04817955112219451,-0.0008887567023404598,
0.048229426433915215,0.03049492142569992,
0.04827930174563591,-0.014468607262282215,
0.048329177057356607,0.007547235816207981,
0.04837905236907731,-0.00888131207012597,
0.048428927680798005,0.02887027980725055,
0.0484788029925187,0.021512300744710923,
0.0485286783042394,-0.011974867861191172,
0.0485785536159601,-0.002123167111204173,
0.048628428927680795,0.01350336681079806,
0.0486783042394015,-0.005314255754487442,
0.04872817955112219,0.00196712581826228,
0.048778054862842896,0.0034349409628097304,
0.04882793017456359,0.022514683754042884,
0.04887780548628429,-0.006207978445488637,
0.04892768079800499,0.01658826845409935,
0.048977556109725685,0.004607679884501431,
0.04902743142144638,0.020986410848942795,
0.049077306733167084,0.009546766230395142,
0.04912718204488778,0.014507018603035203,
0.04917705735660848,0.008481534495642332,
0.04922693266832918,0.014135876491449078,
0.04927680798004987,-0.004357946459383515,
0.049326683291770576,0.013319422153296685,
0.04937655860349127,0.02147409568001067,
0.04942643391521197,0.027702348123603844,
0.04947630922693267,0.014208335256542137,
0.049526184538653366,0.00681180143050213,
0.04957605985037406,0.03244605227801676,
0.049625935162094764,0.019162681769585483,
0.04967581047381546,0.025729375409174693,
0.04972568578553616,0.017025037317711034,
0.04977556109725686,0.006422224668799483,
0.049825436408977554,0.015245576500526608,
0.04987531172069826,-0.02949685042662402,
0.04992518703241895,0.0278361636855146,
0.04997506234413965,-0.0030878106602562766,
0.05002493765586035,0.0024163003385666553,
0.050074812967581046,0.03661656064008064,
0.05012468827930175,0.03410920831951414,
0.050174563591022445,-0.0032201950790226863,
0.05022443890274314,0.002820839624514574,
0.05027431421446384,-0.012284074925093307,
0.05032418952618454,-0.004382562774371494,
0.050374064837905234,0.01822220560333503,
0.05042394014962594,0.0174433992482933,
0.05047381546134663,0.03302681819023695,
0.05052369077306733,-0.007472343428103757,
0.05057356608478803,0.013445032076504371,
0.05062344139650873,0.004893709147665052,
0.05067331670822943,-7.4938003628254035e-06,
0.050723192019950125,0.03130620281737665,
0.05077306733167082,0.0503939492939675,
0.050822942643391524,-0.016760497767125383,
0.05087281795511222,0.029040609517497627,
0.050922693266832915,0.009205932429062567,
0.05097256857855362,0.02936789294822723,
0.05102244389027431,0.0330847113997784,
0.051072319201995016,0.009393263832680151,
0.05112219451371571,-0.002212999920612427,
0.05117206982543641,0.0021455701678140017,
0.05122194513715711,1.6112320341068326e-05,
0.051271820448877806,0.02197401571349103,
0.0513216957605985,0.04783150024803268,
0.051371571072319204,0.039281027663870184,
0.0514214463840399,0.025374765315835962,
0.051471321695760595,0.007961463625007999,
0.0515211970074813,0.001083331447085261,
0.051571072319201994,0.01801190399853646,
0.051620947630922696,0.022096039288466957,
0.05167082294264339,0.01688882708973824,
0.05172069825436409,0.029372105948378666,
0.05177057356608479,0.009517984317775067,
0.051820448877805486,-0.0013650883772400244,
0.05187032418952618,-0.00036558965049731523,
0.051920199501246884,0.013551188742879009,
0.05197007481296758,0.016475360148945944,
0.052019950124688276,0.03427613438051391,
0.05206982543640898,0.01420110546721909,
0.052119700748129674,0.009534165909580731,
0.05216957605985038,0.029578163994995983,
0.05221945137157107,0.03224506631036987,
0.05226932668329177,-0.00560803455848808,
0.05231920199501247,0.006883689300981974,
0.05236907730673317,0.03909812367051671,
0.05241895261845386,0.04502592250727666,
0.052468827930174565,0.042769765275734575,
0.05251870324189526,0.04921536417026029,
0.05256857855361596,0.01281678104919502,
0.05261845386533666,0.009984975459185743,
0.052668329177057355,0.020378992471387306,
0.05271820448877806,0.025395565211618155,
0.05276807980049875,0.012308762042482525,
0.05281795511221945,0.02935492363819474,
0.05286783042394015,0.034616159525867676,
0.05291770573566085,0.02719184647863362,
0.05296758104738154,0.0014867973588125506,
0.053017456359102245,0.014965900338413857,
0.05306733167082294,0.03365779414682163,
0.053117206982543644,0.032785522915562464,
0.05316708229426434,0.009351427987221583,
0.053216957605985035,0.0385326297483736,
0.05326683291770574,0.010019211056636826,
0.053316708229426434,0.026540020914773036,
0.05336658354114713,0.020579040947469155,
0.05341645885286783,0.0251929848280976,
0.05346633416458853,0.009804579384972145,
0.05351620947630923,0.04284378000143935,
0.053566084788029926,0.03623305540500081,
0.05361596009975062,0.02630641894772468,
0.053665835411471324,0.02831156418574629,
0.05371571072319202,0.030573770272305345,
0.053765586034912716,0.019704135150162696,
0.05381546134663342,0.03993177701022271,
0.053865336658354114,0.04859596602443007,
0.05391521197007481,0.020798430267902766,
0.05396508728179551,0.02961259539150872,
0.05401496259351621,0.02300729756718607,
0.05406483790523691,0.011186032979189537,
0.054114713216957606,0.028933777294766455,
0.0541645885286783,-0.0017425164324115297,
0.054214463840399005,0.01624224264565066,
0.0542643391521197,0.036282770855815744,
0.054314214463840396,0.03046376964853752,
0.0543640897755611,0.054434654736428625,
0.054413965087281795,0.03921366947009115,
0.0544638403990025,0.009355958279947282,
0.05451371571072319,0.039614605193455166,
0.05456359102244389,0.034795924707010845,
0.05461346633416459,0.016461576931179556,
0.05466334164588529,0.0558805179437665,
0.05471321695760598,0.0297456686658392,
0.054763092269326685,0.015457867444159784,
0.05481296758104738,0.004748457083335978,
0.05486284289276808,0.03574741269630342,
0.05491271820448878,0.030816173774191873,
0.054962593516209475,0.008214159191937277,
0.05501246882793018,0.02667034978962334,
0.05506234413965087,0.03091914490210021,
0.05511221945137157,0.023222100333509646,
0.05516209476309227,0.017854602574716643,
0.05521197007481297,0.013585153054659144,
0.05526184538653366,0.02499875780733612,
0.055311720698254366,0.03368836064045616,
0.05536159600997506,0.021758094169556482,
0.05541147132169576,0.03898842002381928,
0.05546134663341646,0.006586369587420862,
0.055511221945137156,0.008565158748635433,
0.05556109725685786,0.04324889481885989,
0.055610972568578554,0.0011856750588468377,
0.05566084788029925,0.016252958099905266,
0.05571072319201995,0.02758877639936442,
0.05576059850374065,0.03095709350520344,
0.055810473815461344,0.016184845538663055,
0.055860349127182046,0.01575829367231009,
0.05591022443890274,0.012437093718098797,
0.055960099750623445,0.020563511686307205,
0.05600997506234414,0.0183597551176036,
0.056059850374064836,0.027412283374285154,
0.05610972568578554,-0.023475002164388303,
0.056159600997506234,0.044952467876345006,
0.05620947630922693,0.023078924339100113,
0.05625935162094763,0.006623022870082375,
0.05630922693266833,0.021288071153543635,
0.056359102244389024,-0.002614023116139513,
0.05640897755610973,0.024643290582189073,
0.05645885286783042,0.006952478746205139,
0.056508728179551125,-0.007814465607523056,
0.05655860349127182,-0.00023450754308562173,
0.056608478802992516,-0.006178809074240973,
0.05665835411471322,0.03416299946363645,
0.056708229426433915,0.0257868899391761,
0.05675810473815461,-0.007190126824752473,
0.05680798004987531,-0.001831642490547741,
0.05685785536159601,0.005051636544100671,
0.05690773067331671,0.048549841052531295,
0.05695760598503741,0.03254865413089962,
0.0570074812967581,0.031165962389542414,
0.057057356608478806,0.03676434063107266,
0.0571072319201995,0.012222249800331828,
0.0571571072319202,0.02698389633241284,
0.0572069825436409,-0.013310334458753393,
0.057256857855361595,-0.01816194528301419,
0.05730673316708229,0.0012162191264874465,
0.057356608478802994,-0.016440920722792494,
0.05740648379052369,0.0383395495214771,
0.05745635910224439,-0.0033844912850809553,
0.05750623441396509,0.010143344976859685,
0.05755610972568578,0.0007026388076975766,
0.057605985037406486,0.010957672389000427,
0.05765586034912718,-0.0014251877953801824,
0.05770573566084788,0.007132322837617699,
0.05775561097256858,0.026917366007387943,
0.057805486284289276,0.011574686855038912,
0.05785536159600998,-0.011666827429909625,
0.057905236907730674,-0.006976707113191506,
0.05795511221945137,0.011650781961746702,
0.05800498753117207,-0.0022943393764763365,
0.05805486284289277,0.023323316198344136,
0.058104738154613464,0.025577929112052544,
0.05815461346633417,0.018192537435776125,
0.05820448877805486,0.0020692179696071154,
0.05825436408977556,-0.003141761487488611,
0.05830423940149626,0.02562386203297741,
0.058354114713216956,-0.005656313892677314,
0.05840399002493766,0.007105961692582207,
0.058453865336658355,-0.004970309305103906,
0.05850374064837905,-0.0004697659045284001,
0.05855361596009975,-0.004335388422829864,
0.05860349127182045,0.003245813517456377,
0.058653366583541144,0.01653508705052805,
0.05870324189526185,0.002167176488595528,
0.05875311720698254,-0.009487502535691595,
0.05880299251870324,-0.007125177550239569,
0.05885286783042394,0.0019571540696324565,
0.05890274314214464,0.012409258816955274,
0.05895261845386534,-0.037775905871158005,
0.059002493765586035,-0.008908908527722002,
0.05905236907730673,0.02550532365011504,
0.059102244389027433,0.01947954340814708,
0.05915211970074813,0.016735622557633237,
0.059201995012468825,0.007359271575963435,
0.05925187032418953,-0.001285525413314684,
0.05930174563591022,-0.0014185324045826815,
0.059351620947630926,-0.006626878697875076,
0.05940149625935162,0.014529022962117296,
0.05945137157107232,0.004280661370581735,
0.05950124688279302,-0.012140489158511744,
0.059551122194513716,0.0037107249888101174,
0.05960099750623441,-0.01423945455602026,
0.059650872817955114,1.1946143827801757e-05,
0.05970074812967581,-0.030692090061997156,
0.059750623441396505,-0.012392304768958496,
0.05980049875311721,-0.016693392715663564,
0.059850374064837904,-0.020307453273501745,
0.059900249376558606,-0.016228377754995547,
0.0599501246882793,0.004806957689705184,
0.06,0.007070522007804286,
0.0600498753117207,-0.004108860493063895,
0.060099750623441396,-0.002078858448193963,
0.06014962593516209,-0.015936800237449388,
0.060199501246882794,0.006897931809338175,
0.06024937655860349,-0.020125341300711468,
0.06029925187032419,-0.01259498365469678,
0.06034912718204489,0.006225992483798097,
0.060399002493765584,0.028128400998687804,
0.06044887780548629,-0.010071283862649414,
0.06049875311720698,-0.031872325059561155,
0.06054862842892768,0.0009666496585976243,
0.06059850374064838,-0.019597812495151582,
0.06064837905236908,0.004990475821286831,
0.06069825436408977,-0.015171968388133335,
0.060748129675810475,-0.023648481640625003,
0.06079800498753117,0.009611406473900713,
0.06084788029925187,0.0013753688091925828,
0.06089775561097257,-0.007732546113181686,
0.060947630922693265,-0.001793110939745969,
0.06099750623441397,0.01232601585903193,
0.06104738154613466,-0.017673494778695262,
0.06109725685785536,-0.01171456842450739,
0.06114713216957606,-0.034752503693755696,
0.06119700748129676,-0.044682938516717965,
0.06124688279301746,0.000367085150497529,
0.061296758104738155,-0.0009575042698770526,
0.06134663341645885,-0.0378204612689455,
0.061396508728179554,-0.032337333845227675,
0.06144638403990025,0.018681110008131035,
0.061496259351620945,-0.022943675857224195,
0.06154613466334165,-0.02376769679078617,
0.061596009975062344,-0.009264234444155892,
0.06164588528678304,-0.02756698892704841,
0.06169576059850374,0.0022046500549883705,
0.06174563591022444,-0.0041513014592082665,
0.06179551122194514,-0.03869636442291466,
0.061845386533665836,0.014832446340983572,
0.06189526184538653,-0.005094790707903325,
0.061945137157107234,-0.02536024142659657,
0.06199501246882793,-0.03081138657741568,
0.062044887780548626,-0.03986682582709376,
0.06209476309226933,-0.019470204874665584,
0.062144638403990024,-0.03828866397838514,
0.06219451371571072,-0.0020545743726115093,
0.06224438902743142,-0.026758017272899545,
0.06229426433915212,-0.024869137165951103,
0.06234413965087282,-0.012379738723691143,
0.062394014962593516,-0.030678597835647893,
0.06244389027431421,-0.018968620730448884,
0.062493765586034915,-0.01923222175272117,
0.06254364089775562,-0.0205636267655653,
0.06259351620947631,0.0052895263692387656,
0.06264339152119701,-0.00498611607007165,
0.0626932668329177,-0.028990570047045302,
0.0627431421446384,-0.024491702666650312,
0.0627930174563591,-0.006079385732512821,
0.0628428927680798,-0.03657451021342652,
0.0628927680798005,-0.03652993572255624,
0.0629426433915212,0.007919013536558467,
0.06299251870324189,-0.0013408332234129284,
0.06304239401496259,-0.003878171509295208,
0.0630922693266833,-0.0059515133601968865,
0.063142144638404,-0.029285313300486494,
0.06319201995012469,-0.010662086687809966,
0.06324189526184539,-0.0066352514651953805,
0.06329177057356608,-0.021831464962947373,
0.06334164588528678,-0.05248617978389597,
0.06339152119700749,-0.01405724419506782,
0.06344139650872818,-0.023377602214156697,
0.06349127182044888,-0.01364897199493894,
0.06354114713216957,-0.003754830898962681,
0.06359102244389027,-0.017557125801773186,
0.06364089775561098,0.010917536121236318,
0.06369077306733167,-0.010874560566477325,
0.06374064837905237,-0.02670437212629076,
0.06379052369077307,-0.004097203242439149,
0.06384039900249376,-0.020803107439734726,
0.06389027431421446,-0.036274727397459815,
0.06394014962593517,0.009722261938481499,
0.06399002493765586,-0.029705211976977335,
0.06403990024937656,-0.022701440237828618,
0.06408977556109725,-0.022237576389587545,
0.06413965087281795,-0.037253635634951134,
0.06418952618453866,-0.011374786725778283,
0.06423940149625935,-0.010415921514547795,
0.06428927680798005,-0.035254559326275726,
0.06433915211970075,-0.018370243441321786,
0.06438902743142144,0.008571701754905861,
0.06443890274314215,-0.01198169903652401,
0.06448877805486285,-0.012441534458044468,
0.06453865336658354,0.005606458060701328,
0.06458852867830424,-0.014072981608067291,
0.06463840399002493,-0.0412983491778288,
0.06468827930174563,0.01186434587051071,
0.06473815461346634,-0.016323667211914916,
0.06478802992518704,-0.021015834894057048,
0.06483790523690773,0.02609051598578848,
0.06488778054862843,-0.006473260033948215,
0.06493765586034912,-0.007692977201519083,
0.06498753117206983,-0.016052380841382295,
0.06503740648379053,0.027034001646988715,
0.06508728179551122,0.004724088094456798,
0.06513715710723192,-0.013331840830216865,
0.06518703241895261,-0.012800960938762125,
0.06523690773067331,-0.019516035675507436,
0.06528678304239402,-0.0029922326812147557,
0.06533665835411472,-0.008245294413644043,
0.06538653366583541,-0.014366391236462323,
0.06543640897755611,-0.030885890748897075,
0.0654862842892768,-0.031442341162410486,
0.06553615960099751,-0.015202130920529373,
0.06558603491271821,-0.004893132530437166,
0.0656359102244389,0.014452280693057809,
0.0656857855361596,-0.00012549506644441225,
0.0657356608478803,-0.020919712398604566,
0.06578553615960099,-0.020861622250010318,
0.0658354114713217,-0.015094602307393026,
0.0658852867830424,0.008345573199793397,
0.06593516209476309,0.005523170998537892,
0.06598503740648379,-0.009305018035937092,
0.06603491271820448,-0.004988761578427002,
0.06608478802992519,-0.021304585604023835,
0.06613466334164589,-0.015727041897387543,
0.06618453865336658,-0.0039395661417152405,
0.06623441396508728,-0.019810623189726352,
0.06628428927680798,0.011631607833709685,
0.06633416458852869,0.012034471856713243,
0.06638403990024938,-0.006074182074574369,
0.06643391521197008,-0.019453000011762905,
0.06648379052369077,-0.019943840171627276,
0.06653366583541147,0.01459207152469504,
0.06658354114713216,0.024223084921264324,
0.06663341645885287,-0.040340193034558616,
0.06668329177057357,-0.03396878742190979,
0.06673316708229426,-0.004758001657745856,
0.06678304239401496,-0.002913095359970009,
0.06683291770573566,-0.016128512192892422,
0.06688279301745637,0.024484073219383496,
0.06693266832917706,-0.005505617202908555,
0.06698254364089776,0.0071878141922203116,
0.06703241895261845,-0.0027751733344298078,
0.06708229426433915,0.0074455201889210105,
0.06713216957605984,0.008886679339303403,
0.06718204488778055,-0.01143183541407717,
0.06723192019950125,0.006082235530892158,
0.06728179551122195,0.0036110609921372536,
0.06733167082294264,-0.014435502637674211,
0.06738154613466334,-0.009918094246397856,
0.06743142144638405,-0.04550771878986161,
0.06748129675810474,0.010437473819873701,
0.06753117206982544,-0.02474147402160496,
0.06758104738154613,-0.01021898141595552,
0.06763092269326683,-0.004274879447721411,
0.06768079800498752,0.030908619863673055,
0.06773067331670823,0.00010112764737127324,
0.06778054862842893,-0.0007821807985582559,
0.06783042394014963,0.015072137751341756,
0.06788029925187032,0.011856132822001866,
0.06793017456359102,0.033214862367791524,
0.06798004987531173,-0.002806386349020179,
0.06802992518703242,0.011340692534166084,
0.06807980049875312,0.010402499027082642,
0.06812967581047381,0.005877946082108638,
0.06817955112219451,-0.007181046049742535,
0.0682294264339152,0.021618186322077196,
0.06827930174563591,0.005260189636287063,
0.06832917705735661,0.024228471893104214,
0.0683790523690773,-0.00929515698270536,
0.068428927680798,0.03202438474423904,
0.0684788029925187,0.015951659217491733,
0.06852867830423941,0.015111594259605452,
0.0685785536159601,0.02175815807132285,
0.0686284289276808,0.028348193677476683,
0.0686783042394015,-0.003058011200088624,
0.06872817955112219,0.018910895755775953,
0.0687780548628429,-0.004439061486127369,
0.0688279301745636,-0.02183806420300076,
0.06887780548628429,-0.011664299275303427,
0.06892768079800499,-0.003210933590386709,
0.06897755610972568,-0.017652753384850922,
0.06902743142144638,0.02868158810952762,
0.06907730673316709,-0.0024425380573972876,
0.06912718204488778,0.03874694986076691,
0.06917705735660848,-0.020916569800253366,
0.06922693266832917,0.012030221928093708,
0.06927680798004987,-0.01910417286224183,
0.06932668329177058,0.022534100999162282,
0.06937655860349128,0.015206584475529793,
0.06942643391521197,0.008363812392411053,
0.06947630922693267,0.01568702874690175,
0.06952618453865336,0.015136502539413984,
0.06957605985037406,0.02607795288958816,
0.06962593516209477,0.022968717465245803,
0.06967581047381546,0.008757748529310655,
0.06972568578553616,-0.015078926547490996,
0.06977556109725686,0.016821547926143723,
0.06982543640897755,0.00967554418542421,
0.06987531172069826,0.03061393975101026,
0.06992518703241896,0.009525257616141702,
0.06997506234413965,0.025461567102227786,
0.07002493765586035,0.03544846601846455,
0.07007481296758104,0.029491069159284934,
0.07012468827930174,0.009423973854186474,
0.07017456359102245,0.004762526473949548,
0.07022443890274314,0.02990817265663489,
0.07027431421446384,0.03675521844009142,
0.07032418952618454,0.016177242715543497,
0.07037406483790523,-0.0036784159162022052,
0.07042394014962594,0.021606160891137583,
0.07047381546134664,0.02271328752831105,
0.07052369077306733,0.01484543264472058,
0.07057356608478803,0.018112339242337752,
0.07062344139650872,0.006649448899442264,
0.07067331670822943,0.03222835008944413,
0.07072319201995013,0.009895748238170009,
0.07077306733167082,0.013067487554481762,
0.07082294264339152,-0.006055349734042155,
0.07087281795511222,-0.007095182859932853,
0.07092269326683291,0.01360879050111197,
0.07097256857855362,0.02598083332269874,
0.07102244389027432,0.02911481524838648,
0.07107231920199501,0.018688891692546172,
0.07112219451371571,0.03899166287486042,
0.0711720698254364,0.011582769479476748,
0.07122194513715711,0.023384265420213806,
0.07127182044887781,0.03202411973229177,
0.0713216957605985,0.03142541768121865,
0.0713715710723192,0.023410010601818847,
0.0714214463840399,-0.0053616024743738736,
0.07147132169576059,0.04506899938645815,
0.0715211970074813,0.03340235871266314,
0.071571072319202,0.022662072827856615,
0.0716209476309227,0.021959603521482338,
0.07167082294264339,0.02804141550341832,
0.07172069825436408,0.021249675626948572,
0.0717705735660848,0.022588755356330606,
0.07182044887780549,0.03714959133258819,
0.07187032418952619,0.001305693196936849,
0.07192019950124688,0.018883942390683438,
0.07197007481296758,0.03681579186317219,
0.07201995012468827,0.0383762830385634,
0.07206982543640898,0.021207715851447,
0.07211970074812968,-0.028844721701361896,
0.07216957605985037,0.022134533907401048,
0.07221945137157107,0.04395184551422042,
0.07226932668329177,0.05755032525795001,
0.07231920199501247,0.02016430320305181,
0.07236907730673317,0.022257557768198162,
0.07241895261845387,0.020159677844679792,
0.07246882793017456,0.029695221213769423,
0.07251870324189526,0.019410399642281036,
0.07256857855361595,0.01584177258553766,
0.07261845386533666,0.010709859791582314,
0.07266832917705736,0.025036320438054312,
0.07271820448877805,0.008524511997819225,
0.07276807980049875,0.029003153274837556,
0.07281795511221945,0.026276445932770946,
0.07286783042394016,0.017461307765403434,
0.07291770573566085,0.02578024011687035,
0.07296758104738155,0.035553530555179874,
0.07301745635910224,0.025440800878705722,
0.07306733167082294,0.03187974670025828,
0.07311720698254365,0.03974929379578107,
0.07316708229426434,0.031842618294910585,
0.07321695760598504,0.030324642589834062,
0.07326683291770573,0.04334167888829286,
0.07331670822942643,0.025658812415621065,
0.07336658354114713,0.028578502764415856,
0.07341645885286784,0.010232792921441794,
0.07346633416458853,0.01999168060200499,
0.07351620947630923,0.01712392072468005,
0.07356608478802992,0.023325653563528483,
0.07361596009975062,0.016657118032504352,
0.07366583541147133,0.013006407586115279,
0.07371571072319202,0.04332520700628972,
0.07376558603491272,0.05696339690169827,
0.07381546134663342,0.018933656942082714,
0.07386533665835411,0.00919213351133381,
0.0739152119700748,0.018540520651155145,
0.07396508728179552,0.04911582571030369,
0.07401496259351621,0.035271911631100966,
0.07406483790523691,0.032607156001621715,
0.0741147132169576,0.022492633443441355,
0.0741645885286783,0.04777326854889688,
0.07421446384039901,0.06755593864682466,
0.0742643391521197,-0.0052156708986720035,
0.0743142144638404,0.03606623789840946,
0.0743640897755611,0.04096711334782905,
0.07441396508728179,0.03638222250330012,
0.07446384039900249,0.007131152820836303,
0.0745137157107232,0.010956288882599058,
0.07456359102244389,0.026520853297811838,
0.07461346633416459,0.021219852204834962,
0.07466334164588528,0.015222657646181715,
0.07471321695760598,0.033700001304682176,
0.07476309226932669,0.03215546907603224,
0.07481296758104738,0.018283327673744014,
0.07486284289276808,0.0007803885527654306,
0.07491271820448878,0.0177932335516661,
0.07496259351620947,0.0357215090399558,
0.07501246882793017,0.03716429474432576,
0.07506234413965088,0.010533180068215077,
0.07511221945137157,0.017997698389197153,
0.07516209476309227,-0.012960605224941777,
0.07521197007481296,0.024898276258941237,
0.07526184538653366,0.021821350349003822,
0.07531172069825437,0.01007619832832237,
0.07536159600997507,0.0476133323689243,
0.07541147132169576,0.00950266015334811,
0.07546134663341646,0.0025630874240418072,
0.07551122194513715,0.024347884821786847,
0.07556109725685786,0.02786285323560316,
0.07561097256857856,0.020335560732280763,
0.07566084788029925,0.02925914503705542,
0.07571072319201995,0.03870100604103025,
0.07576059850374064,-0.0016006436105201853,
0.07581047381546134,0.022067118903833803,
0.07586034912718205,0.02396254991134245,
0.07591022443890275,0.015338653260435646,
0.07596009975062344,0.006738733104848491,
0.07600997506234414,0.040813553262366443,
0.07605985037406483,0.027839830910740986,
0.07610972568578554,0.014541017316988269,
0.07615960099750624,0.033845720881302346,
0.07620947630922693,0.011637909752781079,
0.07625935162094763,0.029157963734831982,
0.07630922693266833,0.01162167942172748,
0.07635910224438902,-0.0050144919447864325,
0.07640897755610973,-0.002133191698390831,
0.07645885286783043,0.027188028529339325,
0.07650872817955112,0.026521410662371937,
0.07655860349127182,0.02252361392674485,
0.07660847880299251,0.02148134065754331,
0.07665835411471322,0.018724543961996826,
0.07670822942643392,0.044983595564542664,
0.07675810473815461,-0.008031342133582482,
0.07680798004987531,0.003150709671846764,
0.076857855361596,0.03212890812309325,
0.0769077306733167,-0.005316716812534192,
0.07695760598503741,0.002402146347837489,
0.0770074812967581,0.022262074903252556,
0.0770573566084788,0.006927354607783695,
0.0771072319201995,0.02471371442581332,
0.0771571072319202,0.023457695431442945,
0.0772069825436409,0.023752531256611767,
0.0772568578553616,0.015891761554398715,
0.0773067331670823,-0.01803933761195865,
0.07735660847880299,-0.012936931679840285,
0.07740648379052369,0.028055871315605538,
0.0774563591022444,0.0125075148614613,
0.07750623441396509,0.03272873863154357,
0.07755610972568579,-0.01046107892515015,
0.07760598503740648,0.011411900923131883,
0.07765586034912718,0.0215762957417932,
0.07770573566084787,0.026780094322679117,
0.07775561097256858,0.012724580356015048,
0.07780548628428928,0.026415310675381023,
0.07785536159600998,0.016944051515778564,
0.07790523690773067,0.018304259754382345,
0.07795511221945137,0.024029599253343744,
0.07800498753117208,0.024283775540732633,
0.07805486284289277,0.0056246102099103456,
0.07810473815461347,0.001551798787170943,
0.07815461346633416,-0.008607579232354078,
0.07820448877805486,-0.009725243914856897,
0.07825436408977555,0.015692725356447862,
0.07830423940149626,0.028064567197428475,
0.07835411471321696,0.007322683120437965,
0.07840399002493766,-0.0001807535776574198,
0.07845386533665835,0.020255464917262836,
0.07850374064837905,0.0015864147998562329,
0.07855361596009976,-0.009518833240667072,
0.07860349127182045,0.008988527527753074,
0.07865336658354115,-0.002370348362214615,
0.07870324189526184,-0.010310048441132764,
0.07875311720698254,-0.016024433393463162,
0.07880299251870324,0.005908957121738903,
0.07885286783042394,-0.019375065840418284,
0.07890274314214464,-0.004998468410642109,
0.07895261845386534,0.005942886923905402,
0.07900249376558603,0.009478593387817938,
0.07905236907730673,-0.0042086956877077294,
0.07910224438902744,0.003867244798197565,
0.07915211970074813,-0.019508875374763434,
0.07920199501246883,0.02673710837389496,
0.07925187032418952,-0.006143482108788321,
0.07930174563591022,-0.004224907649011138,
0.07935162094763092,0.013825125476225799,
0.07940149625935163,0.013778966431559458,
0.07945137157107232,-0.0030091664611971445,
0.07950124688279302,-0.022104650538441427,
0.07955112219451371,0.012451417940260737,
0.07960099750623441,-0.009054357792211918,
0.07965087281795512,-0.009036983330200489,
0.07970074812967581,-0.021499792005788824,
0.07975062344139651,-0.0011781358062051953,
0.0798004987531172,0.003319352144129379,
0.0798503740648379,-0.003069275613088926,
0.07990024937655861,0.003440578947231691,
0.0799501246882793,-0.007498602258394131,
0.08,0.008743366752004586,
0.0800498753117207,-0.013791925220535779,
0.0800997506234414,-0.030490275654932494,
0.08014962593516209,-0.009690485692025382,
0.0801995012468828,-0.02475236157492217,
0.0802493765586035,-0.022036852341659204,
0.08029925187032419,-0.028999682027073134,
0.08034912718204489,-0.04632473560845137,
0.08039900249376558,-0.003444050430144677,
0.08044887780548629,-0.011359800207261305,
0.08049875311720699,-0.008850470105102851,
0.08054862842892768,0.007654416163793504,
0.08059850374064838,-0.011823101094599227,
0.08064837905236907,0.011286378669775636,
0.08069825436408977,-0.02025879933850184,
0.08074812967581048,-0.008796266033031746,
0.08079800498753117,-0.0025083548981642105,
0.08084788029925187,-0.025631578871105752,
0.08089775561097257,-0.03134754683364513,
0.08094763092269326,0.010112839734270532,
0.08099750623441397,-0.0012596075543770888,
0.08104738154613467,-0.008653281980504685,
0.08109725685785536,-0.012065344193457011,
0.08114713216957606,-0.006263853212231684,
0.08119700748129675,-0.05135029810035652,
0.08124688279301745,-0.01637736003326928,
0.08129675810473816,-0.029235531388281166,
0.08134663341645886,-0.005597556601068206,
0.08139650872817955,0.007172408839669974,
0.08144638403990025,-0.01296705172339968,
0.08149625935162094,-0.02653852013523797,
0.08154613466334165,-0.027886954586040097,
0.08159600997506235,0.0017939347853339824,
0.08164588528678304,0.0032186392913385025,
0.08169576059850374,0.0027605724445034785,
0.08174563591022443,0.007984086481111588,
0.08179551122194513,-0.009755972218059353,
0.08184538653366584,-0.002465426068024912,
0.08189526184538654,-0.01182962686727058,
0.08194513715710723,-0.01013372722371736,
0.08199501246882793,-0.011945468636243026,
0.08204488778054862,-0.030641612147675322,
0.08209476309226933,-0.01675455678400966,
0.08214463840399003,-0.03181421390502896,
0.08219451371571072,-0.028866765497820898,
0.08224438902743142,-0.01212376510165932,
0.08229426433915212,-0.00702862482990864,
0.08234413965087282,-0.016887482459076786,
0.08239401496259352,-0.01675863619439561,
0.08244389027431422,0.0041822627130843094,
0.08249376558603491,-0.002727974894889596,
0.08254364089775561,-0.0184926518852921,
0.0825935162094763,0.007092424134503995,
0.08264339152119701,0.00860196248767131,
0.08269326683291771,-0.021052534587309855,
0.0827431421446384,0.015787847370076092,
0.0827930174563591,-0.0340716970462936,
0.0828428927680798,-0.00976379001776554,
0.0828927680798005,0.005315261343255991,
0.0829426433915212,-0.019748452235492334,
0.0829925187032419,-0.001236350029512747,
0.08304239401496259,-0.02041106912861108,
0.08309226932668329,-0.050882520333016476,
0.08314214463840398,-0.01839444988193001,
0.0831920199501247,-0.01175294288470983,
0.08324189526184539,0.01942022747906738,
0.08329177057356608,-0.04448178479616789,
0.08334164588528678,-0.04674718432750089,
0.08339152119700748,0.015194853277340355,
0.08344139650872819,-0.03547665458135374,
0.08349127182044888,0.013336247366012122,
0.08354114713216958,-0.018166371645648174,
0.08359102244389027,-0.04070425733232283,
0.08364089775561097,-0.021435130490227244,
0.08369077306733166,-0.0034137949512271504,
0.08374064837905237,-0.011887352226613083,
0.08379052369077307,-0.019306790790522207,
0.08384039900249377,-0.018834287979794175,
0.08389027431421446,0.01268986127226861,
0.08394014962593516,0.00317334424811414,
0.08399002493765587,-0.034565864275873145,
0.08403990024937656,-0.015233544897591681,
0.08408977556109726,-0.015192112184382104,
0.08413965087281795,-0.0048701559645369374,
0.08418952618453865,-0.03148293836370199,
0.08423940149625936,-0.011925968843567598,
0.08428927680798005,-0.016045755518896938,
0.08433915211970075,-0.011724401863923558,
0.08438902743142145,0.006836281776235098,
0.08443890274314214,-0.027495937487684256,
0.08448877805486284,-0.0014093521482295961,
0.08453865336658355,0.0049266457194644415,
0.08458852867830424,-0.03758791358739323,
0.08463840399002494,0.009223383724676005,
0.08468827930174563,-0.027945438862839803,
0.08473815461346633,-0.04885872846913522,
0.08478802992518704,-0.00943432609453642,
0.08483790523690773,0.0028121558849562456,
0.08488778054862843,-0.004629479485329615,
0.08493765586034913,0.008033751149193859,
0.08498753117206982,-0.048421183133446455,
0.08503740648379052,0.017195436026119556,
0.08508728179551123,-0.027757476969667592,
0.08513715710723192,-0.002746403464846745,
0.08518703241895262,-0.005920644602388813,
0.08523690773067331,0.007523086691289798,
0.08528678304239401,-0.009381056914856956,
0.08533665835411472,-0.024915604626107306,
0.08538653366583542,-0.0063120456767246265,
0.08543640897755611,-0.02823059248646479,
0.0854862842892768,-0.014663360210494138,
0.0855361596009975,-0.0011622260716252272,
0.0855860349127182,-0.0035766283805215284,
0.08563591022443891,0.017398578657717902,
0.0856857855361596,-0.013415157787306904,
0.0857356608478803,0.013185748264294831,
0.085785536159601,-0.01164170886916914,
0.08583541147132169,0.014387868804023537,
0.0858852867830424,0.0015010951450013209,
0.0859351620947631,-0.003704409314513786,
0.08598503740648379,-0.012837797505447515,
0.08603491271820449,-0.05110196755622193,
0.08608478802992518,0.0010361515897919773,
0.08613466334164588,0.0027061014234975485,
0.08618453865336659,-0.012399532559502865,
0.08623441396508728,-0.01620697185007215,
0.08628428927680798,-0.00438943792507856,
0.08633416458852868,-0.0021167280704759146,
0.08638403990024937,0.022351269649821915,
0.08643391521197008,-0.04982942392242965,
0.08648379052369078,-0.017772267411640372,
0.08653366583541147,-0.02745978734205587,
0.08658354114713217,0.0008578420685352878,
0.08663341645885286,-0.011710590588787543,
0.08668329177057357,0.004201784497140609,
0.08673316708229427,-0.006660364984138975,
0.08678304239401496,0.020343279036709554,
0.08683291770573566,-0.018074629027696965,
0.08688279301745636,0.0032037289643946703,
0.08693266832917705,0.004002779510586451,
0.08698254364089776,-0.0011408057569690223,
0.08703241895261846,0.004303512760190476,
0.08708229426433915,0.004828129043620096,
0.08713216957605985,-0.003939825041538051,
0.08718204488778054,-0.0016451519489321426,
0.08723192019950125,-0.01248236686232757,
0.08728179551122195,0.010067312782844607,
0.08733167082294264,-0.03420386643056359,
0.08738154613466334,-0.004279627010399267,
0.08743142144638404,0.03125893305477009,
0.08748129675810473,0.018433061704169577,
0.08753117206982544,0.01148422345408574,
0.08758104738154614,0.030675040242260147,
0.08763092269326683,-0.005141023636784101,
0.08768079800498753,0.001574060939451749,
0.08773067331670822,0.006263324846715068,
0.08778054862842893,0.010797198346705308,
0.08783042394014963,-0.004709498599411364,
0.08788029925187033,-0.007313165343320965,
0.08793017456359102,0.03414692868537074,
0.08798004987531172,0.008348382144160196,
0.08802992518703241,0.02821246464175626,
0.08807980049875312,-0.0011919792242594072,
0.08812967581047382,0.004342039796508863,
0.08817955112219451,-0.016237638438991224,
0.08822942643391521,0.01395121172860043,
0.0882793017456359,0.004808442899937945,
0.08832917705735661,-0.0015990835564170013,
0.08837905236907731,0.010825625658219767,
0.088428927680798,0.007126966021583472,
0.0884788029925187,0.0037636531818787157,
0.0885286783042394,0.0209427534187738,
0.0885785536159601,-0.005778618099289239,
0.0886284289276808,0.00756904752484302,
0.0886783042394015,0.004726688450844032,
0.0887281795511222,0.011707399131346195,
0.08877805486284289,-0.0023885189925351782,
0.08882793017456359,0.029775654237767037,
0.0888778054862843,-0.00559877627468559,
0.08892768079800499,0.03133236192869406,
0.08897755610972569,0.011339244344839239,
0.08902743142144638,0.02744056942480639,
0.08907730673316708,0.022676101392580923,
0.08912718204488779,0.0033905692038436845,
0.08917705735660848,0.01281124038329433,
0.08922693266832918,0.027813881995935534,
0.08927680798004987,0.02354136602974817,
0.08932668329177057,0.011401275039185128,
0.08937655860349127,0.011404642991780727,
0.08942643391521198,-0.015720670012264758,
0.08947630922693267,0.02186409437964007,
0.08952618453865337,0.022524310600501397,
0.08957605985037406,-0.005454306060828036,
0.08962593516209476,0.025925442751802436,
0.08967581047381547,0.005675336868285176,
0.08972568578553616,0.028069813963005997,
0.08977556109725686,0.006633396841383915,
0.08982543640897755,0.012416888853884983,
0.08987531172069825,0.01798338962098526,
0.08992518703241895,0.014840024074393528,
0.08997506234413966,0.004015246705237629,
0.09002493765586035,0.02854841710379333,
0.09007481296758105,0.023224037879193513,
0.09012468827930174,0.03970459304846061,
0.09017456359102244,-0.010209117756799554,
0.09022443890274315,0.005109551513193859,
0.09027431421446384,0.05239212782680182,
0.09032418952618454,0.039220554292721255,
0.09037406483790524,0.011640311113606904,
0.09042394014962593,0.014109188057924951,
0.09047381546134663,0.026176245017606743,
0.09052369077306734,0.005999582457658702,
0.09057356608478803,0.0289508624126115,
0.09062344139650873,0.023996339317563536,
0.09067331670822942,0.040815437003102945,
0.09072319201995012,0.03308635666108142,
0.09077306733167083,-0.00603856490203377,
0.09082294264339152,0.01810141552044247,
0.09087281795511222,0.017342206093540626,
0.09092269326683292,0.021715003009555332,
0.09097256857855361,0.013079468860145455,
0.09102244389027432,0.0013420968243651847,
0.09107231920199502,0.012102443007252817,
0.09112219451371571,0.013124936534995368,
0.09117206982543641,0.031152170748391293,
0.0912219451371571,0.03823331576593768,
0.0912718204488778,0.02587073688759663,
0.09132169576059851,0.02817894516321025,
0.0913715710723192,0.02938529649409076,
0.0914214463840399,0.03921134433542069,
0.0914713216957606,0.02017143330137179,
0.09152119700748129,0.020381549043539872,
0.091571072319202,0.028835860034839195,
0.0916209476309227,0.013290624117422527,
0.09167082294264339,0.011802188919049465,
0.09172069825436409,0.04076851605586586,
0.09177057356608478,0.005087273498188102,
0.09182044887780548,0.007416129776684651,
0.09187032418952619,0.010133227675056217,
0.09192019950124689,0.015468081033223571,
0.09197007481296758,0.015268202213630653,
0.09201995012468828,-0.006939853130755555,
0.09206982543640897,0.013170023792955822,
0.09211970074812968,0.023262177029244453,
0.09216957605985038,0.0028881127623037912,
0.09221945137157107,0.03596517918614546,
0.09226932668329177,0.015184997826968505,
0.09231920199501246,0.04167345844531868,
0.09236907730673316,0.04524838780773467,
0.09241895261845387,0.017822449908607513,
0.09246882793017457,0.02082779946116659,
0.09251870324189526,0.041499939231208344,
0.09256857855361596,0.03813709508810128,
0.09261845386533665,0.029809085214379284,
0.09266832917705736,0.016703840373462252,
0.09271820448877806,0.013469530122442473,
0.09276807980049875,0.0506619882413172,
0.09281795511221945,0.0463887733823852,
0.09286783042394015,0.005480420298275338,
0.09291770573566084,0.020186090361156452,
0.09296758104738155,0.03760703332788816,
0.09301745635910225,0.013008295457851218,
0.09306733167082294,0.02535579868216442,
0.09311720698254364,0.04209437851701183,
0.09316708229426433,0.036279814333756884,
0.09321695760598504,0.028477651733409635,
0.09326683291770574,0.008840351182243147,
0.09331670822942643,0.05011194039339358,
0.09336658354114713,0.03353423937554745,
0.09341645885286783,0.02891882994602427,
0.09346633416458854,0.05105909814985999,
0.09351620947630923,0.06222607235748157,
0.09356608478802993,0.033280424798907894,
0.09361596009975062,0.05151474881859884,
0.09366583541147132,0.034837409411598304,
0.09371571072319201,0.007485274558941015,
0.09376558603491272,0.006993473227080913,
0.09381546134663342,0.024157591155371985,
0.09386533665835411,0.04024903748118524,
0.09391521197007481,0.06014474435011298,
0.0939650872817955,0.023758559786899735,
0.09401496259351622,0.04431273166846203,
0.09406483790523691,0.034758884419146666,
0.09411471321695761,0.0023454787371192318,
0.0941645885286783,0.017806534977729164,
0.094214463840399,0.02497156154319768,
0.0942643391521197,0.01205954069237318,
0.0943142144638404,0.008393234415278786,
0.0943640897755611,0.01712968884606331,
0.0944139650872818,0.026206077615433757,
0.09446384039900249,0.030768643535970204,
0.09451371571072319,0.03237535757838468,
0.0945635910224439,0.032817547210909306,
0.09461346633416459,0.050325419144822525,
0.09466334164588529,0.054439972828463586,
0.09471321695760598,0.034039473571788936,
0.09476309226932668,0.03726658704108567,
0.09481296758104737,0.015284057698216362,
0.09486284289276808,0.0262557837912757,
0.09491271820448878,0.029689160031125567,
0.09496259351620948,0.011106741870817182,
0.09501246882793017,0.016806089536028287,
0.09506234413965087,0.02376063013923239,
0.09511221945137158,0.024127963402545388,
0.09516209476309227,-0.011858783251452357,
0.09521197007481297,0.03331824200250115,
0.09526184538653366,0.012564591993998021,
0.09531172069825436,0.04331256246757666,
0.09536159600997507,0.021729973607809032,
0.09541147132169576,0.005050549185142601,
0.09546134663341646,0.005411306382692663,
0.09551122194513716,0.035829060633881464,
0.09556109725685785,0.01650264658750763,
0.09561097256857855,0.019877852964007472,
0.09566084788029926,0.023141890678867866,
0.09571072319201995,0.01671105985232271,
0.09576059850374065,0.017336048369428016,
0.09581047381546134,0.006275707442434494,
0.09586034912718204,0.026317281274819082,
0.09591022443890275,0.027803311207617306,
0.09596009975062345,0.022873285166318025,
0.09600997506234414,0.024306760382724616,
0.09605985037406484,0.01657279554105808,
0.09610972568578553,0.010777564313401308,
0.09615960099750623,0.01934053901639657,
0.09620947630922694,0.04046933502389549,
0.09625935162094763,0.06173862988242358,
0.09630922693266833,0.034983351559650225,
0.09635910224438902,0.01803040576273747,
0.09640897755610972,0.03613648130273578,
0.09645885286783043,0.010799820926991105,
0.09650872817955113,0.024810473068108598,
0.09655860349127182,-0.005132365796847605,
0.09660847880299252,0.013789115766754203,
0.09665835411471321,0.0020520262827902463,
0.09670822942643391,0.028166240126955906,
0.09675810473815462,0.002570601466100487,
0.09680798004987531,0.016426862566890535,
0.09685785536159601,0.04239014350329942,
0.0969077306733167,0.02692668205150997,
0.0969576059850374,0.023331666260651283,
0.09700748129675811,0.021479362120503144,
0.0970573566084788,0.01441136781407269,
0.0971072319201995,0.035139032394036734,
0.0971571072319202,-0.0020153904730193604,
0.0972069825436409,-0.010824184971059785,
0.09725685785536159,-0.0004665974973113822,
0.0973067331670823,0.03656247798153227,
0.097356608478803,0.01731053893009581,
0.09740648379052369,0.00792671588047509,
0.09745635910224439,0.012185460551605761,
0.09750623441396508,0.002908989036412183,
0.09755610972568579,0.03523947153291406,
0.09760598503740649,-0.001445179574655158,
0.09765586034912718,0.03024384170053112,
0.09770573566084788,0.01547027166009594,
0.09775561097256857,0.020919053697075096,
0.09780548628428928,0.03740326662250239,
0.09785536159600998,0.01651275003292462,
0.09790523690773068,0.005270695030943178,
0.09795511221945137,0.013927909353820623,
0.09800498753117207,0.03919083128835621,
0.09805486284289276,0.03281747834168707,
0.09810473815461347,-0.004304432776037051,
0.09815461346633417,1.9309659001337347e-05,
0.09820448877805486,-0.00043196227351223384,
0.09825436408977556,0.008404267985442405,
0.09830423940149625,-0.014510410383496836,
0.09835411471321696,0.014094892103579417,
0.09840399002493766,-0.008505311234717018,
0.09845386533665836,0.00814806267444254,
0.09850374064837905,0.02898263806313823,
0.09855361596009975,-0.005243008487257004,
0.09860349127182044,-0.015523178731462726,
0.09865336658354115,-0.0048206190754335925,
0.09870324189526185,0.0008181642694790993,
0.09875311720698254,0.0170168485732789,
0.09880299251870324,0.02116060554948191,
0.09885286783042393,0.022639096840425928,
0.09890274314214464,0.004150204974256286,
0.09895261845386534,-0.0030246212352993997,
0.09900249376558604,0.004996843553034374,
0.09905236907730673,0.00888865773409871,
0.09910224438902743,-0.0011567230804435643,
0.09915211970074812,0.0005382624947138703,
0.09920199501246883,0.009989985791040686,
0.09925187032418953,-0.009942803822265154,
0.09930174563591022,0.012435847723933795,
0.09935162094763092,-0.009287627637915009,
0.09940149625935162,-0.00040158993077778194,
0.09945137157107233,-0.019209507663853518,
0.09950124688279302,-0.03302623551923514,
0.09955112219451372,0.010646732213829842,
0.09960099750623441,-0.0035536327404513163,
0.09965087281795511,0.013077052344506223,
0.0997007481296758,0.01709605183466193,
0.09975062344139651,-0.01388017938971011,
0.09980049875311721,0.007963652580654788,
0.0998503740648379,-0.014874091368204292,
0.0999002493765586,-0.013627910508723046,
0.0999501246882793,-0.004473713298198594,
0.1,-0.026286166022009862,
0.1000498753117207,-0.030815296518042552,
0.1000997506234414,0.015325678273954764,
0.10014962593516209,0.0190938663129397,
0.10019950124688279,0.004751577956310615,
0.1002493765586035,-0.013743098139087211,
0.1002992518703242,0.002798842296835047,
0.10034912718204489,-0.01201468475599686,
0.10039900249376559,-0.02721990936354187,
0.10044887780548628,-3.45660729820273e-05,
0.10049875311720698,0.007806424478995863,
0.10054862842892769,-0.022761912439667055,
0.10059850374064838,-0.0174272422416691,
0.10064837905236908,-0.015775490290632146,
0.10069825436408977,-0.02135489533550937,
0.10074812967581047,-0.00013510995085362978,
0.10079800498753118,-0.03489449451692611,
0.10084788029925187,-0.014296832386647784,
0.10089775561097257,-0.011202010741840223,
0.10094763092269327,-0.004871593786297537,
0.10099750623441396,-0.020303051259376446,
0.10104738154613466,-0.008618492996866524,
0.10109725685785537,-0.0056763029712925545,
0.10114713216957606,0.019723587346629767,
0.10119700748129676,-0.02860090506604899,
0.10124688279301745,-0.011180856394685178,
0.10129675810473815,-0.01806770928598895,
0.10134663341645886,-0.012787704958624455,
0.10139650872817955,0.007046380122960241,
0.10144638403990025,0.0018817364034906785,
0.10149625935162095,-0.00072319765232777,
0.10154613466334164,-0.016405722205596315,
0.10159600997506234,0.002933453703169322,
0.10164588528678305,-0.03487782154512249,
0.10169576059850374,0.010993957097810753,
0.10174563591022444,-0.0189302569995445,
0.10179551122194513,0.0009147707489071486,
0.10184538653366583,-0.025791215117109887,
0.10189526184538654,-0.014145380363994115,
0.10194513715710724,-0.010672506636339604,
0.10199501246882793,-0.01409556223910884,
0.10204488778054863,-0.009175097469738384,
0.10209476309226932,-0.030243415871271644,
0.10214463840399003,-0.001611154359245479,
0.10219451371571073,-0.040641310511391894,
0.10224438902743142,-0.009900350517687784,
0.10229426433915212,-0.02012316074227158,
0.10234413965087281,-0.017845301123590097,
0.10239401496259351,-0.006104002808337116,
0.10244389027431422,-0.026405157670120742,
0.10249376558603492,-0.02528881058860579,
0.10254364089775561,-0.013472531244731236,
0.10259351620947631,-0.02103095197666039,
0.102643391521197,-0.014025360072338101,
0.10269326683291771,-0.013031164432159,
0.10274314214463841,-0.0035842800401336312,
0.1027930174563591,-0.04280961074559253,
0.1028428927680798,-0.009960439923744839,
0.1028927680798005,-0.0066681349105637295,
0.10294264339152119,-0.019616506469220068,
0.1029925187032419,0.0057151968698631005,
0.1030423940149626,-0.03270420670254184,
0.10309226932668329,0.004686626987672736,
0.10314214463840399,-0.0035738069263694192,
0.10319201995012468,-0.026116190410346574,
0.10324189526184539,-0.01909757142006622,
0.10329177057356609,-0.010151571466097973,
0.10334164588528678,0.00041485891448842654,
0.10339152119700748,-0.009285285705845457,
0.10344139650872818,-0.03577124820795444,
0.10349127182044887,0.013441952405376672,
0.10354114713216958,-0.011620553669346927,
0.10359102244389028,0.011250132655576499,
0.10364089775561097,-0.003725882057325259,
0.10369077306733167,-0.03573523741145096,
0.10374064837905236,-0.018465782618905066,
0.10379052369077307,-0.014803897881924008,
0.10384039900249377,-0.017786613748853233,
0.10389027431421446,-0.006009802298148486,
0.10394014962593516,-0.02179555148483591,
0.10399002493765586,-0.029354692525131995,
0.10403990024937655,-0.01902501271476995,
0.10408977556109726,-0.0012468085438419024,
0.10413965087281796,0.013261921981486787,
0.10418952618453865,-0.01688359502882375,
0.10423940149625935,-0.015979284876148605,
0.10428927680798004,0.014633260409590468,
0.10433915211970075,-0.014921942626081458,
0.10438902743142145,-0.008932238176437826,
0.10443890274314215,0.011305085543261506,
0.10448877805486284,-0.011493257855145537,
0.10453865336658354,-0.023939449441935906,
0.10458852867830425,0.004207327304380632,
0.10463840399002494,-0.019841223081567796,
0.10468827930174564,-0.00943724789451873,
0.10473815461346633,-0.016287439157327995,
0.10478802992518703,0.01897808149760461,
0.10483790523690772,-0.004686874462518471,
0.10488778054862843,0.0038047731052335467,
0.10493765586034913,0.009652844052883481,
0.10498753117206983,0.002946971548987147,
0.10503740648379052,-0.02188510216428525,
0.10508728179551122,-0.03606039118392436,
0.10513715710723193,-0.00796384437202372,
0.10518703241895262,0.008192744148200549,
0.10523690773067332,-0.0023526763166133906,
0.10528678304239401,0.009023497717360579,
0.10533665835411471,-0.036071083732007604,
0.1053865336658354,-0.005938053472211209,
0.10543640897755611,-0.010101367334095133,
0.10548628428927681,0.009877817502283033,
0.1055361596009975,0.0030622261167462493,
0.1055860349127182,-0.0043485206422997505,
0.1056359102244389,-0.0073541399259013755,
0.10568578553615961,-0.03647017466481321,
0.1057356608478803,-0.022323242895223062,
0.105785536159601,0.015730402054868947,
0.1058354114713217,-0.011214792881115352,
0.10588528678304239,0.021325568662925818,
0.10593516209476309,-0.02847269482281998,
0.1059850374064838,0.005705416995648393,
0.10603491271820449,-0.006019530952979444,
0.10608478802992519,-0.02769230457832744,
0.10613466334164588,0.008931982579006166,
0.10618453865336658,-0.009304943960054119,
0.10623441396508729,-0.004707978510782597,
0.10628428927680798,0.009536361560629028,
0.10633416458852868,-0.009358095330171626,
0.10638403990024937,0.002845856190159148,
0.10643391521197007,0.015613750275670258,
0.10648379052369077,-0.017821582651677773,
0.10653366583541148,-0.008289615862625305,
0.10658354114713217,-0.013355412871122062,
0.10663341645885287,-0.01700329329657311,
0.10668329177057356,0.01169293535400755,
0.10673316708229426,-0.004163597180755739,
0.10678304239401497,0.02037229803351326,
0.10683291770573566,0.00432920059384205,
0.10688279301745636,-0.016376905712712504,
0.10693266832917706,-0.011314192288077996,
0.10698254364089775,-0.012256001429905242,
0.10703241895261846,0.014302995380442761,
0.10708229426433916,0.002353923231118001,
0.10713216957605985,0.00847333806793013,
0.10718204488778055,0.021611609653732718,
0.10723192019950124,0.006483183109407905,
0.10728179551122194,0.03262364938323172,
0.10733167082294265,0.011868439807784056,
0.10738154613466334,0.02150967186794253,
0.10743142144638404,-0.017056046324290176,
0.10748129675810474,0.0106967927165591,
0.10753117206982543,0.010400417068958423,
0.10758104738154614,0.006169562062938994,
0.10763092269326684,0.0073549814207559796,
0.10768079800498753,0.009715300262190293,
0.10773067331670823,-0.002282452977754983,
0.10778054862842892,0.003671504115372688,
0.10783042394014962,0.003245616671824808,
0.10788029925187033,0.024566764634024057,
0.10793017456359102,0.0027448062733322212,
0.10798004987531172,0.006511979525765081,
0.10802992518703242,-0.01917712812155292,
0.10807980049875311,0.05311101163646971,
0.10812967581047382,0.010491327032295198,
0.10817955112219452,0.03150067154039793,
0.10822942643391521,0.02994657638534428,
0.10827930174563591,0.03357735180503439,
0.1083291770573566,-0.01940926358457132,
0.1083790523690773,-0.018853235838682196,
0.10842892768079801,0.011173799987461009,
0.1084788029925187,0.024606460543555184,
0.1085286783042394,0.0006878473897002271,
0.1085785536159601,-0.0036426217641651656,
0.10862842892768079,-0.013062200041137914,
0.1086783042394015,0.0028304644071855106,
0.1087281795511222,0.007178577223324042,
0.1087780548628429,0.006369787219283347,
0.10882793017456359,-0.002828752575944492,
0.10887780548628428,-0.00042342975842230707,
0.108927680798005,-0.0020747586637288717,
0.10897755610972569,0.02635691948818982,
0.10902743142144639,0.015707097061285813,
0.10907730673316708,0.025381232712226785,
0.10912718204488778,0.01811070476160914,
0.10917705735660847,-0.0029465756778949675,
0.10922693266832918,0.007278504206976685,
0.10927680798004988,-0.002717991017079485,
0.10932668329177057,0.0010588876545042456,
0.10937655860349127,0.01995826880468586,
0.10942643391521197,0.006398865176598658,
0.10947630922693267,0.014681578930866931,
0.10952618453865337,0.025009355549187928,
0.10957605985037407,-0.004539396336041751,
0.10962593516209476,0.009878929738366642,
0.10967581047381546,0.019494726972712824,
0.10972568578553615,0.009472641250696306,
0.10977556109725686,-0.01323391014550089,
0.10982543640897756,0.012531347457100453,
0.10987531172069825,0.03382576384958892,
0.10992518703241895,0.03231721257740985,
0.10997506234413965,0.014195508934620491,
0.11002493765586036,0.025298147664277033,
0.11007481296758105,0.014580377462563191,
0.11012468827930175,0.015073655428113272,
0.11017456359102244,0.011114745107668734,
0.11022443890274314,-0.002615519951786466,
0.11027431421446383,0.03562899434886427,
0.11032418952618454,0.04883128589254036,
0.11037406483790524,0.037498679985842324,
0.11042394014962593,0.006697619368418981,
0.11047381546134663,0.022382407555352295,
0.11052369077306733,0.009776444641163062,
0.11057356608478804,0.008861020758333856,
0.11062344139650873,0.0254699173978419,
0.11067331670822943,0.028891833839228876,
0.11072319201995012,0.021257090845118454,
0.11077306733167082,0.020911750209464824,
0.11082294264339151,0.02926534388888417,
0.11087281795511222,0.020909401250826597,
0.11092269326683292,0.04044948070109937,
0.11097256857855362,0.004635262952839916,
0.11102244389027431,-0.006385262944348623,
0.111072319201995,0.02425825200369486,
0.11112219451371572,0.01943060550346373,
0.11117206982543641,0.018163917621944338,
0.11122194513715711,0.0491485505613668,
0.1112718204488778,0.03272026156358046,
0.1113216957605985,0.030329082958011462,
0.11137157107231921,0.001338608700586625,
0.1114214463840399,0.007002037188177223,
0.1114713216957606,0.010762801673480364,
0.1115211970074813,0.007416216841336611,
0.11157107231920199,0.02388832633456498,
0.11162094763092269,0.027847234619775875,
0.1116708229426434,0.028702302415924353,
0.11172069825436409,0.02674769524461759,
0.11177057356608479,0.03746892323513365,
0.11182044887780548,0.02674601230930744,
0.11187032418952618,-0.0014946326539542164,
0.11192019950124689,0.0006351392560471278,
0.11197007481296758,0.014680431025373418,
0.11201995012468828,0.03320546558347864,
0.11206982543640898,0.029222420623526105,
0.11211970074812967,0.04182459457458523,
0.11216957605985037,0.05603070101789655,
0.11221945137157108,0.04499031450976929,
0.11226932668329177,0.03517437885042425,
0.11231920199501247,0.007484515950885746,
0.11236907730673316,0.03681851773076133,
0.11241895261845386,0.06301908951310797,
0.11246882793017457,0.014596106672792675,
0.11251870324189527,0.01822832898407803,
0.11256857855361596,0.013225209742326471,
0.11261845386533666,0.05549046334538047,
0.11266832917705735,0.030048351763941706,
0.11271820448877805,0.020625172681575144,
0.11276807980049876,0.023146822346504024,
0.11281795511221945,0.056591946217824166,
0.11286783042394015,0.0013193411520556822,
0.11291770573566084,0.040774532204889795,
0.11296758104738154,0.031824261832747544,
0.11301745635910225,0.036734559866503216,
0.11306733167082295,0.021582013060117415,
0.11311720698254364,0.027608366233239735,
0.11316708229426434,0.00634338396846526,
0.11321695760598503,0.04658358440179633,
0.11326683291770574,0.06009466447851976,
0.11331670822942644,0.029270397590943575,
0.11336658354114713,0.03921924998321194,
0.11341645885286783,0.00859378969478394,
0.11346633416458853,0.028911771002547142,
0.11351620947630922,0.0403979775627023,
0.11356608478802993,0.04352222795994539,
0.11361596009975063,0.04478825959302733,
0.11366583541147132,0.03779770636731917,
0.11371571072319202,0.045519071549587536,
0.11376558603491271,0.0351515416130703,
0.11381546134663342,0.016549908285441305,
0.11386533665835412,0.049544798721096045,
0.11391521197007481,0.018683999550437747,
0.11396508728179551,0.015042209954539166,
0.1140149625935162,0.024794637390748678,
0.1140648379052369,0.04069773648267931,
0.11411471321695761,0.03915198546557766,
0.1141645885286783,0.02691856070757057,
0.114214463840399,0.030628426390428794,
0.1142643391521197,0.020206574004796134,
0.1143142144638404,0.03030252623379208,
0.1143640897755611,0.0497324983097977,
0.1144139650872818,0.024541372404183324,
0.1144638403990025,0.03144387216069834,
0.11451371571072319,0.01995556500757227,
0.11456359102244389,0.017688374756405487,
0.11461346633416458,0.013767109505650956,
0.11466334164588529,0.024639141872859555,
0.11471321695760599,0.047463166374639945,
0.11476309226932668,0.020365176085017915,
0.11481296758104738,0.022751911402840348,
0.11486284289276807,0.02765681936796672,
0.11491271820448878,0.031882640486341034,
0.11496259351620948,0.018616827761436524,
0.11501246882793018,0.05127026734593425,
0.11506234413965087,0.04793103112651141,
0.11511221945137157,0.04290563935088141,
0.11516209476309226,0.05353320705780563,
0.11521197007481297,0.02209637847518455,
0.11526184538653367,0.002046941464799057,
0.11531172069825436,-0.007736904172329528,
0.11536159600997506,0.03524113141157399,
0.11541147132169575,0.037750101420183514,
0.11546134663341646,0.02925148925174493,
0.11551122194513716,0.016799952194646098,
0.11556109725685786,0.007840153721672773,
0.11561097256857855,0.05571520868392485,
0.11566084788029925,0.04373707418358084,
0.11571072319201996,0.03163317816832429,
0.11576059850374065,0.06170198015377262,
0.11581047381546135,0.01865008919209888,
0.11586034912718204,0.017228757079453733,
0.11591022443890274,0.007856139314741944,
0.11596009975062344,0.03101270811097842,
0.11600997506234415,0.04219779507812277,
0.11605985037406484,0.044483471474475594,
0.11610972568578554,0.011324876848655267,
0.11615960099750623,0.04631399736105017,
0.11620947630922693,0.01643820749536155,
0.11625935162094764,0.030401691599592884,
0.11630922693266833,0.028828073916804215,
0.11635910224438903,0.01017647244900217,
0.11640897755610972,0.0033004899124846644,
0.11645885286783042,0.012630725791241141,
0.11650872817955112,0.01150043872652477,
0.11655860349127183,0.0008105563251921029,
0.11660847880299252,-0.004876198652300649,
0.11665835411471322,0.03376950747371595,
0.11670822942643391,0.03328724326162526,
0.11675810473815461,0.013430529654337879,
0.11680798004987532,0.01353107459330838,
0.11685785536159601,0.01036795761567708,
0.11690773067331671,0.01766873712769533,
0.1169576059850374,0.017095946711053803,
0.1170074812967581,0.02719949521469244,
0.1170573566084788,0.030687348008643388,
0.1171072319201995,0.024287544276951553,
0.1171571072319202,0.039796503299246576,
0.1172069825436409,0.019072268776534958,
0.1172568578553616,-0.0028933379777648545,
0.11730673316708229,0.00753595867942612,
0.117356608478803,-0.0040416444630525135,
0.1174064837905237,-0.005637138636124028,
0.11745635910224439,0.022315091903395777,
0.11750623441396509,0.006239813903717708,
0.11755610972568578,0.015387927682646465,
0.11760598503740648,0.002296546386185285,
0.11765586034912719,0.005459526240717949,
0.11770573566084788,0.02226815745476268,
0.11775561097256858,0.007797999720524979,
0.11780548628428927,0.013199795152669433,
0.11785536159600997,0.008850813240720765,
0.11790523690773068,0.014117903527600353,
0.11795511221945137,0.016956739738476626,
0.11800498753117207,0.02357573935928718,
0.11805486284289277,-0.007786363517302584,
0.11810473815461346,0.013635777369196023,
0.11815461346633417,0.0020234142392800327,
0.11820448877805487,-0.001608243873638943,
0.11825436408977556,-0.005438758408873827,
0.11830423940149626,0.006211102149330268,
0.11835411471321695,0.024918866821703498,
0.11840399002493765,0.012156090364046622,
0.11845386533665836,0.016202995630285218,
0.11850374064837906,-0.020127592828341746,
0.11855361596009975,0.008602155400621682,
0.11860349127182045,0.021222295646355267,
0.11865336658354114,0.018120004644394127,
0.11870324189526185,0.016102163622294836,
0.11875311720698255,0.0037993526516793105,
0.11880299251870324,0.021216708725033114,
0.11885286783042394,-0.013833904174036724,
0.11890274314214463,0.0028714531483452765,
0.11895261845386533,0.006586403223385039,
0.11900249376558604,0.01957735483688688,
0.11905236907730674,0.038828066644224786,
0.11910224438902743,-0.012259543068041643,
0.11915211970074813,-0.00974537853973646,
0.11920199501246882,0.018492303788377445,
0.11925187032418953,-0.007408855112116256,
0.11930174563591023,0.004222603450033496,
0.11935162094763092,-0.01273697783498025,
0.11940149625935162,0.01385287892730936,
0.11945137157107232,-0.008666491949920824,
0.11950124688279301,0.0036196962943624523,
0.11955112219451372,0.016817153634277052,
0.11960099750623442,0.005158708232888589,
0.11965087281795511,-0.007958031287601182,
0.11970074812967581,-0.009140497039460805,
0.1197506234413965,0.022654005682417093,
0.11980049875311721,0.011564791398955507,
0.11985037406483791,0.006377807243485361,
0.1199002493765586,-0.002052253328074261,
0.1199501246882793,-0.01519097694082317,
0.12,-0.023245224427999034,
0.1200498753117207,0.004721150565278617,
0.1200997506234414,-0.0033578098819350404,
0.1201496259351621,-0.027992128792641263,
0.12019950124688279,-0.02524727861487164,
0.12024937655860349,-0.011286532125298312,
0.12029925187032418,0.01842466547110657,
0.1203491271820449,0.008013981280977803,
0.12039900249376559,-0.010880689380320524,
0.12044887780548628,-0.008973854747587575,
0.12049875311720698,-0.004952758569632006,
0.12054862842892768,0.015416770452966069,
0.12059850374064839,0.017675045347115767,
0.12064837905236908,0.02972891725969979,
0.12069825436408978,-0.04333325202225215,
0.12074812967581047,0.008354340174972153,
0.12079800498753117,0.0022778967005993404,
0.12084788029925186,0.007752123945616652,
0.12089775561097257,-0.009851457670679084,
0.12094763092269327,0.0015495647790221886,
0.12099750623441397,-0.018604833003818516,
0.12104738154613466,0.01069736729513062,
0.12109725685785536,-0.0056015826167960395,
0.12114713216957607,0.009160982740308164,
0.12119700748129676,-0.0168126312995216,
0.12124688279301746,-0.01640562476624409,
0.12129675810473815,-0.007884992263095195,
0.12134663341645885,-0.0026828681662301864,
0.12139650872817954,-0.037784076340787016,
0.12144638403990025,-0.036119928588754305,
0.12149625935162095,-0.011269927318158547,
0.12154613466334165,-0.01845659727496559,
0.12159600997506234,-0.03541908154490582,
0.12164588528678304,0.0033426655142398606,
0.12169576059850375,0.032484653010358085,
0.12174563591022444,-0.010548630937349156,
0.12179551122194514,-0.005285528534624293,
0.12184538653366583,-0.0050348492636702845,
0.12189526184538653,-0.03720684724869449,
0.12194513715710723,-0.03185656473970296,
0.12199501246882793,-0.006884184546199776,
0.12204488778054863,-0.0025545002462709406,
0.12209476309226933,-0.0013455865142501123,
0.12214463840399002,-0.022504213178015608,
0.12219451371571072,-0.00977919038836335,
0.12224438902743143,0.0171211571131624,
0.12229426433915212,-0.01911666786967041,
0.12234413965087282,-0.020112903396299713,
0.12239401496259351,-0.014765613675859435,
0.12244389027431421,0.008516880150297036,
0.12249376558603492,-0.005879790449880129,
0.12254364089775562,-0.03634519961467929,
0.12259351620947631,-0.03247051341372448,
0.122643391521197,-0.00515941463165648,
0.1226932668329177,-0.024839059263930305,
0.1227431421446384,-0.024049458597026264,
0.12279301745635911,0.002180717078394838,
0.1228428927680798,-0.02846861759269443,
0.1228927680798005,-0.0035467641693432304,
0.1229426433915212,-0.01704789260448046,
0.12299251870324189,-0.013790580531824574,
0.1230423940149626,-0.004369458124817767,
0.1230922693266833,-0.0015564271559959635,
0.12314214463840399,-0.0028305071820950104,
0.12319201995012469,0.016080097537605767,
0.12324189526184538,-0.015055597649592575,
0.12329177057356608,0.01399393041928965,
0.12334164588528679,0.0010469143266316969,
0.12339152119700748,-0.01783698208334624,
0.12344139650872818,-0.05959024284875004,
0.12349127182044888,0.03452906833270862,
0.12354114713216957,-0.013166185989528994,
0.12359102244389028,-0.01828648529851052,
0.12364089775561098,0.017979086226838498,
0.12369077306733167,-0.009404844474025063,
0.12374064837905237,-0.0035079955807668373,
0.12379052369077306,-0.026548054109179976,
0.12384039900249376,-0.040401906799230836,
0.12389027431421447,7.637961034837049e-05,
0.12394014962593516,-0.012024764427223243,
0.12399002493765586,-0.0075359527641220584,
0.12403990024937656,0.00464016533008668,
0.12408977556109725,-0.0011429071613250318,
0.12413965087281796,0.00825048909557327,
0.12418952618453866,0.007267231489639659,
0.12423940149625935,-0.030855530821228952,
0.12428927680798005,-0.0063484801509758795,
0.12433915211970074,-0.027315449130753733,
0.12438902743142144,-0.04282792405243313,
0.12443890274314215,-0.00520360123392857,
0.12448877805486284,-0.012963991100937787,
0.12453865336658354,-0.011848974903416486,
0.12458852867830424,0.013659153161786017,
0.12463840399002493,-0.0329932137328878,
0.12468827930174564,0.007568802982720051,
0.12473815461346634,-0.00883619116417288,
0.12478802992518703,-0.004616881459624678,
0.12483790523690773,-0.02860827572151099,
0.12488778054862842,0.003047607892399013,
0.12493765586034913,-0.0057390678148956055,
0.12498753117206983,-0.0028260383567462605,
0.12503740648379053,0.012489087024785604,
0.12508728179551123,-0.025556368878006337,
0.12513715710723192,0.0036122969625913774,
0.12518703241895263,-0.006047961564950501,
0.1252369077306733,0.0008601506673641046,
0.12528678304239402,-0.013999314010312406,
0.1253366583541147,-0.003492377194892275,
0.1253865336658354,0.012230245257496263,
0.12543640897755612,-0.00729472249975157,
0.1254862842892768,-0.009429789034878748,
0.1255361596009975,-0.020149393569573956,
0.1255860349127182,0.009805637600544403,
0.1256359102244389,0.00829225046246804,
0.1256857855361596,0.0002329969579781847,
0.1257356608478803,-0.005732572469402043,
0.125785536159601,0.00979558313531648,
0.12583541147132168,0.0038965838042064205,
0.1258852867830424,-0.001177447574654575,
0.1259351620947631,-0.0067203993917188155,
0.12598503740648379,-0.0059583769748879235,
0.1260349127182045,-0.006279747123337927,
0.12608478802992518,0.0009012844830217802,
0.1261346633416459,0.004396512546749716,
0.1261845386533666,-0.003254357867095931,
0.12623441396508728,-0.004374653120771573,
0.126284289276808,0.022334879078106103,
0.12633416458852867,0.013727897983430508,
0.12638403990024938,-0.0014863679856480282,
0.1264339152119701,-0.000160927244077161,
0.12648379052369077,0.003028784328296067,
0.12653366583541148,-0.021850434064656213,
0.12658354114713216,-0.009765955892513684,
0.12663341645885287,-0.02424811840032747,
0.12668329177057355,0.0009987372086402496,
0.12673316708229426,0.0104966714893868,
0.12678304239401497,0.009373418996448786,
0.12683291770573565,-0.014866371834401612,
0.12688279301745636,-0.03459892882010422,
0.12693266832917705,0.00849748000794159,
0.12698254364089775,0.017256370600329432,
0.12703241895261846,0.0023166579736657394,
0.12708229426433915,-0.0027011736551668516,
0.12713216957605986,-0.012127266487539737,
0.12718204488778054,0.026617166323438742,
0.12723192019950125,-0.0060188604988120915,
0.12728179551122196,0.02390928317394917,
0.12733167082294264,-0.0123569935113007,
0.12738154613466335,-0.007518835468380078,
0.12743142144638403,0.01597547847251868,
0.12748129675810474,-0.0026698293731528258,
0.12753117206982545,-0.0077179927161283544,
0.12758104738154613,0.0058253087289813895,
0.12763092269326684,0.030771451167000016,
0.12768079800498752,0.014648150644077599,
0.12773067331670823,0.0030902180009142965,
0.1277805486284289,-0.005421600511031835,
0.12783042394014962,0.0007749165623831432,
0.12788029925187033,0.02081440690387691,
0.12793017456359101,-0.0028753188806452407,
0.12798004987531172,0.020527212711211534,
0.1280299251870324,-0.012594788947334245,
0.12807980049875312,-0.0021643382280527364,
0.12812967581047383,0.005035391271948418,
0.1281795511221945,0.0329713589930692,
0.12822942643391522,0.038552698992171716,
0.1282793017456359,-0.025772651005096375,
0.1283291770573566,0.007443192100109165,
0.12837905236907732,0.02048085523668039,
0.128428927680798,0.018918380890818463,
0.1284788029925187,0.011071280799645984,
0.1285286783042394,0.028465801067941412,
0.1285785536159601,0.027647477064713665,
0.1286284289276808,0.01542693266563281,
0.1286783042394015,0.001405367079582753,
0.1287281795511222,0.014865069675497274,
0.12877805486284288,0.02021455346103116,
0.1288279301745636,0.007945655797689332,
0.1288778054862843,0.012171919906866793,
0.12892768079800498,0.015649722899706595,
0.1289775561097257,0.01196474179303351,
0.12902743142144638,0.011327666906440107,
0.12907730673316709,0.008051877005064132,
0.12912718204488777,0.0036560012107929064,
0.12917705735660848,0.017425100531666952,
0.1292269326683292,0.003583893632516046,
0.12927680798004987,0.011214109402427846,
0.12932668329177058,-0.015201477659164273,
0.12937655860349126,0.022413787535094275,
0.12942643391521197,0.0014955260559820181,
0.12947630922693268,0.027571104276457484,
0.12952618453865336,0.01017982045535628,
0.12957605985037407,0.014592109870341926,
0.12962593516209475,0.013326053961471664,
0.12967581047381546,0.02875896922385079,
0.12972568578553617,0.043693967151559904,
0.12977556109725685,0.04064015465990603,
0.12982543640897756,0.02589648385068499,
0.12987531172069824,0.028468133900941738,
0.12992518703241895,0.034915866477099385,
0.12997506234413966,0.04733978260298772,
0.13002493765586035,0.046482740148267726,
0.13007481296758105,0.011569251806350652,
0.13012468827930174,0.04453880574905038,
0.13017456359102245,0.039792927236391606,
0.13022443890274316,0.007868084014399528,
0.13027431421446384,0.044141212825186696,
0.13032418952618455,0.013316821114898243,
0.13037406483790523,0.01946215397007395,
0.13042394014962594,0.025617735931482137,
0.13047381546134662,0.024466029642143696,
0.13052369077306733,0.022333730771682807,
0.13057356608478804,0.0326053082288319,
0.13062344139650872,0.018639567450289656,
0.13067331670822943,0.013881586653672095,
0.1307231920199501,0.03639353123581033,
0.13077306733167082,0.03443664679855667,
0.13082294264339153,0.04023093856734253,
0.13087281795511221,0.015164248593359181,
0.13092269326683292,0.02736619577700299,
0.1309725685785536,-0.004868385821041574,
0.13102244389027431,0.026189689368560937,
0.13107231920199502,0.03933566891313853,
0.1311221945137157,0.02638415813436693,
0.13117206982543642,0.046491579206588654,
0.1312219451371571,0.04218142472651393,
0.1312718204488778,0.02524802992212736,
0.13132169576059852,0.022801457292926184,
0.1313715710723192,0.020394663434299794,
0.1314214463840399,0.019895648793127125,
0.1314713216957606,0.016587317189352496,
0.1315211970074813,0.044981581086246544,
0.13157107231920198,0.0014126799196403222,
0.1316209476309227,-0.0004249584438840229,
0.1316708229426434,0.022003041617144982,
0.13172069825436408,0.03571415789755154,
0.1317705735660848,0.021777256588689096,
0.13182044887780547,0.03874202672824026,
0.13187032418952618,0.026993797518847406,
0.1319201995012469,0.025829734088165583,
0.13197007481296757,0.040990905040990504,
0.13201995012468828,0.04529140471294062,
0.13206982543640897,0.03024651542114693,
0.13211970074812968,0.02568553504521429,
0.13216957605985039,0.003845606858362209,
0.13221945137157107,0.027242026562414142,
0.13226932668329178,0.02737721424784119,
0.13231920199501246,0.02720999759458605,
0.13236907730673317,0.010103192924520249,
0.13241895261845388,0.03180192876051597,
0.13246882793017456,0.027157617245960282,
0.13251870324189527,0.0015807702617115088,
0.13256857855361595,0.005256381578493632,
0.13261845386533666,0.024027970299125373,
0.13266832917705737,0.04814106381440754,
0.13271820448877805,0.02222861945123074,
0.13276807980049876,0.03152558898702992,
0.13281795511221944,0.04126189059571495,
0.13286783042394015,0.02929205970237921,
0.13291770573566083,0.02399551251639219,
0.13296758104738154,0.025651772386354667,
0.13301745635910225,0.03558274741460182,
0.13306733167082294,0.03692179108254349,
0.13311720698254365,0.03659853660271123,
0.13316708229426433,0.03544490724902291,
0.13321695760598504,0.06235109715057495,
0.13326683291770575,0.04798127432435651,
0.13331670822942643,0.02118621256503067,
0.13336658354114714,0.03474858628718887,
0.13341645885286782,0.033503311816136604,
0.13346633416458853,0.026446188565457805,
0.13351620947630924,0.04653820498691691,
0.13356608478802992,0.034899563001259,
0.13361596009975063,0.04727450450872915,
0.1336658354114713,0.020447921026997155,
0.13371571072319202,0.02923584621190726,
0.13376558603491273,0.04101569696277788,
0.1338154613466334,0.047743482178240745,
0.13386533665835412,0.05028156557371259,
0.1339152119700748,0.041665852531924216,
0.13396508728179551,-0.010576274123752116,
0.1340149625935162,0.027529163185648256,
0.1340648379052369,0.02134821850770908,
0.13411471321695762,0.017433307759102425,
0.1341645885286783,0.016926407359714714,
0.134214463840399,0.021999011232642366,
0.1342643391521197,0.030582890606073276,
0.1343142144638404,0.00725257041058959,
0.1343640897755611,0.0335518431128648,
0.1344139650872818,0.025821834322249732,
0.1344638403990025,0.03779478708647154,
0.13451371571072318,0.03947574517078267,
0.1345635910224439,0.039669906156252835,
0.1346134663341646,0.029943244122230015,
0.13466334164588528,0.015105578216979833,
0.134713216957606,0.05466779864558838,
0.13476309226932667,0.017082675180376594,
0.13481296758104738,0.02929952326051743,
0.1348628428927681,-0.00010385058495505223,
0.13491271820448877,0.025142476336689056,
0.13496259351620948,0.039767342268302495,
0.13501246882793017,0.03341127419361214,
0.13506234413965088,0.033262988215408795,
0.13511221945137158,0.03004064866870482,
0.13516209476309227,0.03384373580661855,
0.13521197007481298,0.01292189221226842,
0.13526184538653366,0.03292369531687944,
0.13531172069825437,0.03253199662303847,
0.13536159600997505,0.03087031278868407,
0.13541147132169576,0.011386503565218982,
0.13546134663341647,0.030103134723970373,
0.13551122194513715,0.02518805486597752,
0.13556109725685786,0.03315036244143299,
0.13561097256857854,0.024005282470853997,
0.13566084788029925,0.03982112385433743,
0.13571072319201996,0.005408497431820498,
0.13576059850374064,0.050627437489276936,
0.13581047381546135,0.013357555456195243,
0.13586034912718203,0.038734063140899305,
0.13591022443890274,0.04119250504958383,
0.13596009975062345,-0.01567276111250709,
0.13600997506234414,0.01199661103858414,
0.13605985037406484,0.02314587559906373,
0.13610972568578553,0.026048669775803328,
0.13615960099750624,0.01724913735273591,
0.13620947630922695,0.00046510729721618155,
0.13625935162094763,0.03541411531542145,
0.13630922693266834,0.028460664389654937,
0.13635910224438902,0.024393234463092266,
0.13640897755610973,0.013236230501660451,
0.1364588528678304,0.06407707730949581,
0.13650872817955112,0.019808498074672484,
0.13655860349127183,0.024738779419840495,
0.1366084788029925,0.019891361187961365,
0.13665835411471322,0.03555214271733144,
0.1367082294264339,0.020613432897896574,
0.1367581047381546,0.03888436999693076,
0.13680798004987532,0.003475668328684723,
0.136857855361596,0.045678302555122174,
0.1369077306733167,0.03912105618796557,
0.1369576059850374,0.03621960546190936,
0.1370074812967581,0.004889616981866768,
0.13705735660847881,0.030679549147390614,
0.1371072319201995,0.013969451142221086,
0.1371571072319202,0.04533818948663332,
0.1372069825436409,-0.012201345098649844,
0.1372568578553616,0.02447234262785166,
0.1373067331670823,0.018814620361526604,
0.137356608478803,0.03810350867017336,
0.1374064837905237,0.024595977261037138,
0.13745635910224438,-0.0032745286505958867,
0.1375062344139651,0.0120816238078044,
0.1375561097256858,0.016529868712802806,
0.13760598503740648,0.006360426681083034,
0.1376558603491272,0.019892597257624465,
0.13770573566084787,0.01963586454072941,
0.13775561097256858,0.041656228395756834,
0.13780548628428926,-0.0227864096749368,
0.13785536159600997,0.003001276325497895,
0.13790523690773068,0.020001627550352542,
0.13795511221945136,0.006443020298908962,
0.13800498753117207,0.039093041950801315,
0.13805486284289276,0.002197675692983932,
0.13810473815461347,0.005453455752939664,
0.13815461346633418,-0.00942529774646283,
0.13820448877805486,0.009398577422950968,
0.13825436408977557,0.02416756114359386,
0.13830423940149625,0.028114240887997657,
0.13835411471321696,0.013956612246559492,
0.13840399002493767,0.007340175304242982,
0.13845386533665835,0.015387286676260919,
0.13850374064837906,-0.008405893374622851,
0.13855361596009974,0.017389586663177553,
0.13860349127182045,-0.012825132946612498,
0.13865336658354116,-8.057457630762394e-05,
0.13870324189526184,0.010715480940416041,
0.13875311720698255,-0.002307828802528851,
0.13880299251870323,0.013636145636129476,
0.13885286783042394,0.008046213694892437,
0.13890274314214462,0.004350479308124695,
0.13895261845386533,-0.0016547450319885732,
0.13900249376558604,-0.006796737730568678,
0.13905236907730673,-0.01320843453004257,
0.13910224438902744,0.004401846964863641,
0.13915211970074812,0.007295211889172727,
0.13920199501246883,-0.0029255676855833275,
0.13925187032418954,0.01928133484368833,
0.13930174563591022,0.003797003445397637,
0.13935162094763093,0.005676102049730538,
0.1394014962593516,0.005321326704810001,
0.13945137157107232,-0.0017163059097867186,
0.13950124688279303,-0.003728856661745399,
0.1395511221945137,-0.007547850784663714,
0.13960099750623442,0.0028095129174680817,
0.1396508728179551,-0.0005483233959788399,
0.1397007481296758,-0.00475836515547994,
0.13975062344139652,-0.01210131089598152,
0.1398004987531172,-0.04494794283971447,
0.1398503740648379,0.00623285209982449,
0.1399002493765586,-0.023353609939006467,
0.1399501246882793,-0.021209341800133747,
0.14,0.01805256981288616,
0.1400498753117207,-0.01633224140699845,
0.1400997506234414,0.004998178782391182,
0.1401496259351621,-0.00011235263557567631,
0.1401995012468828,0.013448984896291264,
0.14024937655860348,-0.007941281384267323,
0.1402992518703242,-0.00898030196468596,
0.1403491271820449,-0.012211203507468531,
0.14039900249376558,0.014740465433027684,
0.1404488778054863,-0.005718394391445147,
0.14049875311720697,-0.027861658982183853,
0.14054862842892768,-0.03668834660335753,
0.1405985037406484,-0.02337390615313538,
0.14064837905236907,-0.0021073355480213138,
0.14069825436408978,-0.010558897508903476,
0.14074812967581046,-0.004542982086325594,
0.14079800498753117,-0.027998261438203012,
0.14084788029925188,0.0017131689608422757,
0.14089775561097256,0.025448875906577066,
0.14094763092269327,-0.0005729225238512679,
0.14099750623441396,-0.011075346898759568,
0.14104738154613466,-0.009861621978134005,
0.14109725685785537,0.002556607075501401,
0.14114713216957606,0.003570675558082232,
0.14119700748129677,0.005454831987418231,
0.14124688279301745,-0.02348630124148658,
0.14129675810473816,0.015923026247020203,
0.14134663341645887,-0.020476377533076177,
0.14139650872817955,-0.0032308740587496604,
