time,amplitude,label
0.0,-0.0027495880038920888,
4.987531172069826e-05,-0.03760078412358575,
9.975062344139652e-05,-0.027081752054312177,
0.00014962593516209475,-0.01419846720932124,
0.00019950124688279303,-0.02860229185447166,
0.00024937655860349125,-0.012631924098882471,
0.0002992518703241895,-0.03187510047352808,
0.00034912718204488776,-0.011510669491836035,
0.00039900249376558606,0.0028105744910956326,
0.0004488778054862843,-0.029339138495499156,
0.0004987531172069825,0.002453986301827242,
0.0005486284289276808,-0.008568667393830741,
0.000598503740648379,-0.025623243025045088,
0.0006483790523690773,-0.04385100007504272,
0.0006982543640897755,-0.02713943867434629,
0.0007481296758104738,-0.04023350355417596,
0.0007980049875311721,-0.016151744110316814,
0.0008478802992518703,-0.04259993330042902,
0.0008977556109725686,0.009506459336934201,
0.0009476309226932668,0.006227420193149313,
0.000997506234413965,-0.014796130570346431,
0.0010473815461346633,-0.02703369585072528,
0.0010972568578553616,-0.0064313324542062955,
0.00114713216957606,-0.010026461972860059,
0.001197007481296758,0.015515051549018131,
0.0012468827930174563,0.02212642558918963,
0.0012967581047381546,-0.011323456015892332,
0.001346633416458853,0.0036119337272168574,
0.001396508728179551,-0.013496652495597138,
0.0014463840399002493,-0.013271898162438985,
0.0014962593516209476,-0.028839823226133703,
0.001546134663341646,-0.008196326710536661,
0.0015960099750623442,-0.03258266783053005,
0.0016458852867830423,-0.0069056795729146876,
0.0016957605985037406,-0.022818452922955975,
0.001745635910224439,-0.0180785274156732,
0.0017955112219451373,-0.024905107184168544,
0.0018453865336658353,-0.01120003304869097,
0.0018952618453865336,-0.025455051527758746,
0.001945137157107232,-0.012796056298284267,
0.00199501246882793,-0.019805116195588977,
0.0020448877805486283,-0.012372103674361454,
0.0020947630922693266,-0.018836239742449277,
0.002144638403990025,-0.0075875209532621085,
0.0021945137157107233,0.001855777634715023,
0.0022443890274314216,-0.008050086678980786,
0.00229426433915212,-0.015160244037121892,
0.0023441396508728177,-0.03106797907995914,
0.002394014962593516,-0.024734955708670806,
0.0024438902743142144,-0.004505128892899567,
0.0024937655860349127,0.01228984091423237,
0.002543640897755611,-0.015068820559636532,
0.0025935162094763093,0.001937999340277519,
0.0026433915211970076,-0.009806457758003694,
0.002693266832917706,-0.0262114399883642,
0.002743142144638404,-0.018532171455623827,
0.002793017456359102,-0.02937063161796745,
0.0028428927680798004,-0.012791013106016137,
0.0028927680798004987,0.005218819844868843,
0.002942643391521197,-0.03602104779262351,
0.0029925187032418953,-0.015533486272096483,
0.0030423940149625936,-0.014663478663212834,
0.003092269326683292,-0.026213393203656028,
0.00314214463840399,-0.05113068726040509,
0.0031920199501246885,-0.016124644075980014,
0.0032418952618453864,0.0016113923636862006,
0.0032917705735660847,-0.00929276852801164,
0.003341645885286783,-0.014269988097897682,
0.0033915211970074813,-0.018749912963843887,
0.0034413965087281796,0.0066250070125838355,
0.003491271820448878,0.025247097809302607,
0.003541147132169576,-0.007545550175092949,
0.0035910224438902745,-0.021321889733322746,
0.0036408977556109724,0.0008255409330582327,
0.0036907730673316707,-0.02531373979636349,
0.003740648379052369,-0.03154926805466431,
0.0037905236907730673,-0.017471795143929315,
0.0038403990024937656,-0.018776953834813814,
0.003890274314214464,-0.00418000860295219,
0.003940149625935162,-0.006620225008745885,
0.00399002493765586,-0.005755293263999494,
0.004039900249376558,-0.01828448712685899,
0.004089775561097257,-0.026757809384330575,
0.004139650872817955,0.025341145600605266,
0.004189526184538653,0.015820328868283887,
0.004239401496259352,-0.04082664387138245,
0.00428927680798005,0.015719572838887433,
0.004339152119700748,-0.007450561300821846,
0.0043890274314214465,0.015662368032402875,
0.004438902743142145,-0.029784633938588087,
0.004488778054862843,-0.004330902915532992,
0.004538653366583541,-0.033794440641613945,
0.00458852867830424,-0.032011283047746114,
0.004638403990024938,-0.014492569939207046,
0.0046882793017456355,-0.006838576067306816,
0.004738154613466334,-0.0182942403776315,
0.004788029925187032,-0.000873502819911374,
0.00483790523690773,-0.002886531770059899,
0.004887780548628429,-0.049816992920380665,
0.004937655860349127,-0.0074399788143774594,
0.004987531172069825,0.004037432616026531,
0.005037406483790524,0.007916415306021411,
0.005087281795511222,-0.0017085774098618142,
0.00513715710723192,-0.006841358905292226,
0.0051870324189526185,-0.005985035287803525,
0.005236907730673317,0.010385063601050173,
0.005286783042394015,0.008996143107870521,
0.0053366583541147134,-0.001470196407218361,
0.005386533665835412,9.076373722082507e-05,
0.00543640897755611,-0.0033536322753127557,
0.005486284289276808,-0.010727143004196412,
0.005536159600997507,0.017795639089011932,
0.005586034912718204,0.0027016414122605177,
0.005635910224438902,0.007201111525326138,
0.005685785536159601,0.003914661383541878,
0.005735660847880299,-0.02206744340189657,
0.005785536159600997,-0.002492429284675038,
0.005835411471321696,0.024697024817287288,
0.005885286783042394,0.017223161878774394,
0.005935162094763092,-0.004488352924706302,
0.0059850374064837905,-0.014172753098616118,
0.006034912718204489,-0.0031313590330011966,
0.006084788029925187,0.027920968767266158,
0.0061346633416458855,0.0032610287343118895,
0.006184538653366584,-0.0007161617584291041,
0.006234413965087282,0.042618297003403076,
0.00628428927680798,0.030578982376125337,
0.006334164588528679,-0.017687820440259346,
0.006384039900249377,-0.01969918268818135,
0.006433915211970074,0.016443722907034223,
0.006483790523690773,0.004913694084488981,
0.006533665835411471,-0.002826194277127099,
0.006583541147132169,0.03008396857922469,
0.006633416458852868,-0.0032275621939576137,
0.006683291770573566,0.004017317360507392,
0.006733167082294264,0.034756859174852696,
0.0067830423940149626,0.0029659049767547345,
0.006832917705735661,0.012070675457589605,
0.006882793017456359,-0.013434437787482868,
0.0069326683291770575,0.016138574347513417,
0.006982543640897756,0.028245246002549663,
0.007032418952618454,-0.0009075469032409893,
0.007082294264339152,0.005390688466991136,
0.007132169576059851,0.0025276186321918255,
0.007182044887780549,0.02870664624889583,
0.007231920199501247,0.030596569041674,
0.007281795511221945,0.0010467396605858513,
0.007331670822942643,0.03159735142510785,
0.007381546134663341,0.020706756924177123,
0.00743142144638404,0.021592141227855025,
0.007481296758104738,0.012667476787776275,
0.007531172069825436,0.02363816443589149,
0.007581047381546135,0.009114109289611419,
0.007630922693266833,0.042556217700138704,
0.007680798004987531,0.010241518487392423,
0.0077306733167082295,0.0120878690334677,
0.007780548628428928,0.021430464155726837,
0.007830423940149626,0.030647922831792605,
0.007880299251870324,-0.000740407558155071,
0.007930174563591023,0.027192767665424753,
0.00798004987531172,0.011671973980020995,
0.00802992518703242,0.015357007891385811,
0.008079800498753117,0.029235060996448535,
0.008129675810473816,-0.0010307761691731102,
0.008179551122194513,0.007658842827389279,
0.008229426433915213,0.019362189797501674,
0.00827930174563591,0.0070538292059260654,
0.00832917705735661,0.012837348005834245,
0.008379052369077307,0.015864919125865087,
0.008428927680798006,-0.006242055775221918,
0.008478802992518703,0.004081453507781645,
0.0085286783042394,0.0019429500781918112,
0.0085785536159601,0.03183765853805471,
0.008628428927680797,0.011518219330719268,
0.008678304239401496,0.04440716507619178,
0.008728179551122194,0.036872491054288206,
0.008778054862842893,0.0059266642484683205,
0.00882793017456359,0.017967769655480543,
0.00887780548628429,0.022881228515593162,
0.008927680798004987,0.014136636367992516,
0.008977556109725686,0.040283162662473046,
0.009027431421446384,0.038781002027747216,
0.009077306733167083,0.009949483258469742,
0.00912718204488778,0.048411222090295775,
0.00917705735660848,0.031287593947538994,
0.009226932668329177,0.030324691357114818,
0.009276807980049876,0.04742363562967014,
0.009326683291770574,0.01674125528269952,
0.009376558603491271,0.005306126306944674,
0.00942643391521197,0.018115783125846645,
0.009476309226932668,-0.00010235043272933259,
0.009526184538653367,-0.005972685065924872,
0.009576059850374064,0.023119060235056138,
0.009625935162094763,0.011632423152900506,
0.00967581047381546,0.03080532742194224,
0.00972568578553616,0.012651179376257017,
0.009775561097256857,0.0002552918761295729,
0.009825436408977557,0.011952495682279032,
0.009875311720698254,0.03016736752560456,
0.009925187032418953,0.008303582883303596,
0.00997506234413965,0.047768015011729587,
0.01002493765586035,0.025838365122380476,
0.010074812967581047,0.015747730582843487,
0.010124688279301746,0.01598828126058626,
0.010174563591022444,0.03430821134499666,
0.010224438902743141,0.008872591530756467,
0.01027431421446384,-0.0002647120102963439,
0.010324189526184538,0.02630011080183132,
0.010374064837905237,0.0101448034253169,
0.010423940149625935,-0.001522241204152102,
0.010473815461346634,0.019433674763903567,
0.010523690773067331,0.002773175392663009,
0.01057356608478803,0.02050790647087839,
0.010623441396508728,0.00463734208776119,
0.010673316708229427,0.033290956543342035,
0.010723192019950124,0.03717079815999527,
0.010773067331670824,0.014236552105499057,
0.010822942643391521,0.0013604061510517837,
0.01087281795511222,0.019912077324985872,
0.010922693266832918,0.016729862876481663,
0.010972568578553617,0.023458538647867917,
0.011022443890274314,0.009193407841906288,
0.011072319201995013,-0.008990755956885105,
0.01112219451371571,0.01652481415758912,
0.011172069825436408,0.036588332329200786,
0.011221945137157107,0.0514650791613763,
0.011271820448877805,0.004152380842947712,
0.011321695760598504,0.010806119872504513,
0.011371571072319201,0.0363783153422665,
0.0114214463840399,0.045457394149716314,
0.011471321695760598,-0.009997420756235595,
0.011521197007481297,0.021757813850604615,
0.011571072319201995,0.03563925089322181,
0.011620947630922694,0.013631374694889441,
0.011670822942643391,0.032981654278875845,
0.01172069825436409,-0.0037109776884833266,
0.011770573566084788,0.015792975319086425,
0.011820448877805487,0.04518417479507592,
0.011870324189526184,0.0087816493076284,
0.011920199501246884,0.04456846817273189,
0.011970074812967581,0.016332286546079752,
0.012019950124688279,0.007276795097573193,
0.012069825436408978,0.009504737883875701,
0.012119700748129675,0.0006962967745720791,
0.012169576059850374,-0.0031464244940137345,
0.012219451371571072,0.007112756771363676,
0.012269326683291771,0.006974123747813888,
0.012319201995012468,0.004063135655485606,
0.012369077306733168,0.010192397578268219,
0.012418952618453865,0.03767713197010644,
0.012468827930174564,0.05754074519818778,
0.012518703241895262,0.011786286209787427,
0.01256857855361596,-0.0030703752332185627,
0.012618453865336658,0.018961138691903405,
0.012668329177057357,0.005578333761414018,
0.012718204488778055,0.011078709688528431,
0.012768079800498754,0.00980525170353667,
0.012817955112219451,0.017765586306230388,
0.012867830423940149,0.028954743106101265,
0.012917705735660848,0.016644498170477272,
0.012967581047381545,0.04415661861965453,
0.013017456359102245,0.03290087746786244,
0.013067331670822942,0.026594903531032336,
0.013117206982543641,-0.003232273462491539,
0.013167082294264339,0.006478041710298878,
0.013216957605985038,0.03269618496564954,
0.013266832917705735,0.01111442447570091,
0.013316708229426434,0.026001284511239564,
0.013366583541147132,0.02981578551286232,
0.013416458852867831,0.020295701234084723,
0.013466334164588529,0.02800435508550004,
0.013516209476309228,0.028970940721389064,
0.013566084788029925,0.012079722745919003,
0.013615960099750624,0.01977156489123834,
0.013665835411471322,-0.004546951538438638,
0.01371571072319202,0.012376402907961728,
0.013765586034912718,0.006303098368139025,
0.013815461346633416,0.014899489649840898,
0.013865336658354115,0.01771446796183079,
0.013915211970074812,0.01390212300770047,
0.013965087281795512,0.007894540842485519,
0.014014962593516209,0.027155439441348562,
0.014064837905236908,0.008735381732488619,
0.014114713216957606,0.005776291462365907,
0.014164588528678305,-0.02541739087211139,
0.014214463840399002,0.0038182487868854914,
0.014264339152119701,0.017661625833104506,
0.014314214463840399,0.015764503967964704,
0.014364089775561098,0.02954264696253,
0.014413965087281795,0.002046984825955272,
0.014463840399002495,0.006981662668723068,
0.014513715710723192,-0.023283414959213468,
0.01456359102244389,0.0005238447489189467,
0.014613466334164589,-0.016678901877116806,
0.014663341645885286,0.018413817825721913,
0.014713216957605985,0.00895830877394706,
0.014763092269326683,-0.0025882549633003326,
0.014812967581047382,0.004376057152658199,
0.01486284289276808,0.0021778028480643097,
0.014912718204488778,0.015472546293366697,
0.014962593516209476,0.0023039745220576405,
0.015012468827930175,0.00957202712108943,
0.015062344139650873,-0.009973998089713844,
0.015112219451371572,0.017440077993122194,
0.01516209476309227,0.009233371845955641,
0.015211970074812968,-0.004821118034812652,
0.015261845386533666,0.02081824849039543,
0.015311720698254365,-0.013970015222366029,
0.015361596009975062,-0.015638645523161316,
0.01541147132169576,-0.005400970229117005,
0.015461346633416459,0.04700831765234039,
0.015511221945137156,-0.01039807605722508,
0.015561097256857856,0.02192899476830259,
0.015610972568578553,0.00022620644660061463,
0.015660847880299252,-0.007052477480546579,
0.01571072319201995,-0.0006208556383043081,
0.015760598503740647,-0.02021196047006816,
0.015810473815461346,-0.01783906917607036,
0.015860349127182045,0.012324843345524734,
0.015910224438902745,0.029229162428952096,
0.01596009975062344,-0.02154618450946679,
0.01600997506234414,-0.0009320342050525034,
0.01605985037406484,0.01277199527584464,
0.016109725685785538,0.02346938037203417,
0.016159600997506234,-0.006951160281277238,
0.016209476309226933,-0.02551318530520108,
0.016259351620947632,0.03309332301282986,
0.016309226932668328,-0.0024543724644921633,
0.016359102244389027,0.02947820535201786,
0.016408977556109726,0.006248698974941766,
0.016458852867830425,0.0039933979820367844,
0.01650872817955112,0.020571015371564368,
0.01655860349127182,0.0033631872099266543,
0.01660847880299252,-0.014378634499351678,
0.01665835411471322,-0.011798015599446543,
0.016708229426433914,-0.015578738482614,
0.016758104738154613,0.03967308548697793,
0.016807980049875312,-0.023797261246617837,
0.01685785536159601,-0.011629205426420462,
0.016907730673316707,-0.006985587094781479,
0.016957605985037406,-0.04134941500491458,
0.017007481296758106,-0.021586802755107534,
0.0170573566084788,-0.03126715218542333,
0.0171072319201995,0.0029213690807710236,
0.0171571072319202,-0.0038355251914444005,
0.0172069825436409,-0.017602467889251922,
0.017256857855361595,0.008359340890392215,
0.017306733167082294,-0.013385187698872906,
0.017356608478802993,0.009221254760292511,
0.017406483790523692,-0.01678593510115978,
0.017456359102244388,-0.027910369806314297,
0.017506234413965087,-0.00366152926287724,
0.017556109725685786,-0.020740572435140478,
0.017605985037406485,0.003384964417000775,
0.01765586034912718,-0.0003364357706271987,
0.01770573566084788,-0.0003793513177740987,
0.01775561097256858,-0.019935081913828374,
0.01780548628428928,0.003900375174641854,
0.017855361596009974,-0.003798790728136634,
0.017905236907730673,-0.001693794189985963,
0.017955112219451373,-0.013575854499701048,
0.018004987531172068,0.015210978639467148,
0.018054862842892767,0.002545535643179865,
0.018104738154613467,-0.004824720366301879,
0.018154613466334166,-0.0008204793265437754,
0.01820448877805486,-0.01976768073559712,
0.01825436408977556,-0.023410948906928235,
0.01830423940149626,-0.015014694112691209,
0.01835411471321696,-0.023684921567333223,
0.018403990024937655,-0.0042839340402993,
0.018453865336658354,0.0007930553671637326,
0.018503740648379053,-0.02746626333173229,
0.018553615960099752,-0.0006208234463447055,
0.018603491271820448,-0.04693420788489408,
0.018653366583541147,0.009827640391311863,
0.018703241895261846,-0.00598843389452757,
0.018753117206982542,-0.024560805845896344,
0.01880299251870324,-0.02462302148283025,
0.01885286783042394,-0.04373654602271706,
0.01890274314214464,-0.011454642918622958,
0.018952618453865335,-0.027660151379079435,
0.019002493765586034,-0.006200012573765561,
0.019052369077306733,0.003831747898644877,
0.019102244389027433,-0.00505297228883427,
0.01915211970074813,-0.009721375409175953,
0.019201995012468828,-0.01754044783280558,
0.019251870324189527,-0.022890530269245493,
0.019301745635910226,-0.0031375836312793493,
0.01935162094763092,-0.016221270423848733,
0.01940149625935162,-0.03132879328459211,
0.01945137157107232,-0.03982338627550422,
0.01950124688279302,-0.04495514605075483,
0.019551122194513715,-0.0018314736801402255,
0.019600997506234414,-0.022223583458576574,
0.019650872817955113,-0.015847037296027117,
0.01970074812967581,-0.018181725736947495,
0.019750623441396508,-0.027553003020702675,
0.019800498753117207,-0.04015197924900535,
0.019850374064837906,-0.01877052511466956,
0.019900249376558602,-0.017326516014901847,
0.0199501246882793,-0.006289309866890245,
0.02,-0.00571014580398903,
0.0200498753117207,0.005565581214228302,
0.020099750623441395,-0.023728635375890768,
0.020149625935162094,-0.032247944539841235,
0.020199501246882794,-0.04176689425068847,
0.020249376558603493,-0.0066658177442464155,
0.02029925187032419,-0.04515012021750118,
0.020349127182044888,-0.031860678487497886,
0.020399002493765587,-0.010465687965334026,
0.020448877805486283,-0.0066431633122663505,
0.02049875311720698,-0.043671308574547055,
0.02054862842892768,0.0030705088631195372,
0.02059850374064838,-0.03535376482903818,
0.020648379052369076,0.0035334636317074612,
0.020698254364089775,-0.019562823559398992,
0.020748129675810474,-0.007681051590038974,
0.020798004987531173,-0.013640701024360638,
0.02084788029925187,-0.023583202873752703,
0.020897755610972568,-0.023666431933744056,
0.020947630922693267,-0.002481119353739722,
0.020997506234413967,-0.02515581053330488,
0.021047381546134662,-0.020172784198371766,
0.02109725685785536,-0.016381170388086393,
0.02114713216957606,-0.045094680757812394,
0.02119700748129676,-0.035650877533805594,
0.021246882793017455,-0.01768922504068633,
0.021296758104738155,-0.022038295563855472,
0.021346633416458854,-0.034095224378896394,
0.02139650872817955,-0.013500247163487602,
0.02144638403990025,-0.014706182108523928,
0.021496259351620948,-0.031144850241673794,
0.021546134663341647,-0.017700810063398673,
0.021596009975062343,0.013171785485666328,
0.021645885286783042,-0.06122329883878427,
0.02169576059850374,-0.005061571805580202,
0.02174563591022444,-0.011798285732472484,
0.021795511221945136,-0.010194758544951842,
0.021845386533665835,-0.004999759068537229,
0.021895261845386534,-0.03963733572960622,
0.021945137157107233,-0.01111761895586278,
0.02199501246882793,-0.0038557120042961423,
0.02204488778054863,-0.008361058664341805,
0.022094763092269327,-0.008400209917881504,
0.022144638403990027,-0.016483188718284924,
0.022194513715710722,-0.02643802700197176,
0.02224438902743142,-0.013279381649702611,
0.02229426433915212,-0.0263004715634972,
0.022344139650872816,-0.019337607911689345,
0.022394014962593516,-0.005010061233751986,
0.022443890274314215,-0.00857275021180534,
0.022493765586034914,-0.005505869504059305,
0.02254364089775561,-0.011491877446570957,
0.02259351620947631,-0.026896586088447923,
0.022643391521197008,0.013643832747307084,
0.022693266832917707,-0.031408582775014765,
0.022743142144638403,-0.03436184845046365,
0.022793017456359102,0.01604970255009577,
0.0228428927680798,-0.013939315744986558,
0.0228927680798005,-0.011597223038529284,
0.022942643391521196,-0.031397735968747356,
0.022992518703241895,0.0008088490374895292,
0.023042394014962594,0.019003886248623723,
0.02309226932668329,-0.017998134906273555,
0.02314214463840399,-0.005052681033692065,
0.02319201995012469,-0.0040604227834851936,
0.023241895261845388,-0.0075515212048844985,
0.023291770573566083,-0.009283570631567845,
0.023341645885286783,-0.027168142985456764,
0.02339152119700748,-0.028235218023793873,
0.02344139650872818,-0.01732360135975817,
0.023491271820448877,0.007306229466927145,
0.023541147132169576,-0.0012162134415333037,
0.023591022443890275,0.0021529493203751426,
0.023640897755610974,-0.01513624532863644,
0.02369077306733167,0.00199844377247471,
0.02374064837905237,-0.03107976181533999,
0.023790523690773068,0.01178637680180751,
0.023840399002493767,-0.029738780233140506,
0.023890274314214463,-0.02456970522025238,
0.023940149625935162,-0.011254748099777452,
0.02399002493765586,0.004285203048627826,
0.024039900249376557,-0.017372002962657927,
0.024089775561097256,0.011242884406033393,
0.024139650872817955,-0.008008595800679948,
0.024189526184538655,-0.00254856782145238,
0.02423940149625935,-0.001984027151507999,
0.02428927680798005,-0.006204828660179776,
0.02433915211970075,0.0017086616392849464,
0.024389027431421448,-0.0018055486896430368,
0.024438902743142144,-0.00238002160627958,
0.024488778054862843,-0.001627153158019006,
0.024538653366583542,-0.008265672001817648,
0.02458852867830424,0.006320081377684613,
0.024638403990024937,0.0018112030776766428,
0.024688279301745636,-0.03324470651954976,
0.024738154613466335,0.0014702567855213902,
0.02478802992518703,0.012936347454920937,
0.02483790523690773,-0.0001621985435927935,
0.02488778054862843,-0.005388559592367793,
0.02493765586034913,-0.028513666821811265,
0.024987531172069824,0.012581958027768672,
0.025037406483790523,0.0037279352866986535,
0.025087281795511222,-0.004394379804618354,
0.02513715710723192,-0.008610191286221914,
0.025187032418952617,-0.013517274537612705,
0.025236907730673316,0.017432413628792977,
0.025286783042394016,-0.002663468412300419,
0.025336658354114715,0.013648324942914536,
0.02538653366583541,-0.013870296224446575,
0.02543640897755611,-0.013372336965757356,
0.02548628428927681,0.0029399554909308213,
0.025536159600997508,0.020209965478751934,
0.025586034912718204,-0.00021052675332236233,
0.025635910224438903,0.016053963767063556,
0.025685785536159602,0.00226162319761747,
0.025735660847880298,0.020273945306126584,
0.025785536159600997,0.0062181609787183185,
0.025835411471321696,0.024654373282459133,
0.025885286783042395,0.024556699218276374,
0.02593516209476309,0.028879876735111942,
0.02598503740648379,0.011022859564834172,
0.02603491271820449,-0.003562109665725193,
0.02608478802992519,-0.005127662005008022,
0.026134663341645884,-0.005432565718200621,
0.026184538653366583,-0.008524346178141622,
0.026234413965087282,0.005637487137335077,
0.02628428927680798,0.009988956495935859,
0.026334164588528677,-0.009354780539060574,
0.026384039900249377,-0.004495437032849209,
0.026433915211970076,0.006095235983138696,
0.02648379052369077,0.004719581998412849,
0.02653366583541147,0.017657649653866132,
0.02658354114713217,0.02199244213225291,
0.02663341645885287,-0.0017876996391764152,
0.026683291770573565,0.01130287279854365,
0.026733167082294264,-0.001888353548205747,
0.026783042394014963,0.010607651185049406,
0.026832917705735662,-0.011500257282666727,
0.026882793017456358,0.006073350898306639,
0.026932668329177057,-0.007368630314319249,
0.026982543640897756,-0.005730896795358251,
0.027032418952618455,0.01615093708063092,
0.02708229426433915,0.018039293327829747,
0.02713216957605985,0.01345015589983269,
0.02718204488778055,0.007952297414039002,
0.02723192019950125,0.02913076940281404,
0.027281795511221944,0.02451307078447678,
0.027331670822942643,0.018973392679730864,
0.027381546134663343,0.003594023182148241,
0.02743142144638404,0.013661583969381547,
0.027481296758104738,-0.013152733470677103,
0.027531172069825437,-0.018386512552016985,
0.027581047381546136,0.03216732276159072,
0.02763092269326683,0.01340414254612934,
0.02768079800498753,0.0044691948258445136,
0.02773067331670823,-0.006397418347626572,
0.02778054862842893,0.01967386172909653,
0.027830423940149625,0.03252473325519532,
0.027880299251870324,8.874850565786241e-05,
0.027930174563591023,0.016221005715706095,
0.027980049875311722,0.01574292303138697,
0.028029925187032418,0.05237210959928684,
0.028079800498753117,0.008988117322161638,
0.028129675810473816,0.0247978582656974,
0.028179551122194512,0.0015901493396972832,
0.02822942643391521,0.004075401663039775,
0.02827930174563591,0.02667326619155038,
0.02832917705735661,0.020464739929128013,
0.028379052369077305,0.01603713180115034,
0.028428927680798004,0.015459923280391826,
0.028478802992518704,0.013471198812745604,
0.028528678304239403,0.01984886869045038,
0.0285785536159601,0.012682199106183208,
0.028628428927680798,0.016155655652582077,
0.028678304239401497,0.0032473064703532374,
0.028728179551122196,0.0353036802067679,
0.02877805486284289,0.018470721058714404,
0.02882793017456359,0.03890799208132498,
0.02887780548628429,0.00759944871500802,
0.02892768079800499,0.01873944681590168,
0.028977556109725685,-0.012785080739556962,
0.029027431421446384,0.019480340025001455,
0.029077306733167083,0.04301744583142862,
0.02912718204488778,0.013135933900020765,
0.029177057356608478,0.04055762447818847,
0.029226932668329177,-0.003293873705926053,
0.029276807980049877,0.010018000403044555,
0.029326683291770572,0.00617189504588456,
0.02937655860349127,0.003853637471490142,
0.02942643391521197,0.004589062602500804,
0.02947630922693267,0.0032701242415421675,
0.029526184538653365,0.015496122674798163,
0.029576059850374065,0.02370141957730002,
0.029625935162094764,0.03043050246593973,
0.029675810473815463,0.027552049234168017,
0.02972568578553616,0.007492382396620973,
0.029775561097256858,0.017617102753408314,
0.029825436408977557,0.014488274791989504,
0.029875311720698253,0.0294520218759999,
0.029925187032418952,0.028969235506467267,
0.02997506234413965,0.018485537897687067,
0.03002493765586035,0.026288902579361756,
0.030074812967581046,0.013884148669085753,
0.030124688279301745,0.016858611584405783,
0.030174563591022444,0.005635783377799866,
0.030224438902743143,0.013523613100218703,
0.03027431421446384,0.0022995430788743804,
0.03032418952618454,-0.0014527915483906542,
0.030374064837905237,0.04480948764059023,
0.030423940149625937,0.01038068817801894,
0.030473815461346632,0.020156172442304048,
0.03052369077306733,-0.004769303499519567,
0.03057356608478803,0.015154727057143498,
0.03062344139650873,0.005719588398777124,
0.030673316708229426,0.033319380674185856,
0.030723192019950125,0.0006194113606189273,
0.030773067331670824,-0.002372996336756302,
0.03082294264339152,0.024306613662885602,
0.03087281795511222,0.00955753622374144,
0.030922693266832918,0.0027092936125691115,
0.030972568578553617,0.02017896577890702,
0.031022443890274313,0.010804888350141246,
0.031072319201995012,0.04467589922752606,
0.03112219451371571,0.02412363313891617,
0.03117206982543641,0.046077201773999675,
0.031221945137157106,0.02149297444938368,
0.03127182044887781,0.03384721446035697,
0.031321695760598504,0.021741900968072513,
0.0313715710723192,0.0012803578367350209,
0.0314214463840399,0.024540026304729897,
0.0314713216957606,0.010485617473678795,
0.031521197007481294,0.014208819181873273,
0.031571072319202,0.028289368280593086,
0.03162094763092269,0.025436101227112255,
0.03167082294264339,0.023809554467194426,
0.03172069825436409,0.015243153492774057,
0.03177057356608479,0.014163881852588097,
0.03182044887780549,0.016632076023970425,
0.031870324189526185,0.009007894979717108,
0.03192019950124688,-0.0025421494353629927,
0.03197007481296758,0.0165383553288736,
0.03201995012468828,0.025741816544562764,
0.032069825436408975,0.0427777645580109,
0.03211970074812968,0.03725259366937452,
0.03216957605985037,0.03783415934399115,
0.032219451371571076,0.014058185804287839,
0.03226932668329177,0.01703014816520606,
0.03231920199501247,0.021183815659779063,
0.03236907730673317,0.008281268638294845,
0.032418952618453865,0.03378921778139911,
0.03246882793017456,-0.00013343076916355265,
0.032518703241895264,0.026944276183800946,
0.03256857855361596,-0.01151715541402867,
0.032618453865336655,0.016693578214641982,
0.03266832917705736,-0.02380506062039282,
0.032718204488778053,0.0399479324343474,
0.032768079800498756,0.008210517347445693,
0.03281795511221945,0.029956695789111365,
0.03286783042394015,0.04460824393902166,
0.03291770573566085,0.012056903112798577,
0.032967581047381546,0.01697073617547699,
0.03301745635910224,0.03077651453036406,
0.033067331670822944,0.010474977837689414,
0.03311720698254364,0.013676072666713342,
0.03316708229426434,0.007014783156690687,
0.03321695760598504,0.020107848264418693,
0.033266832917705734,0.024316270367809742,
0.03331670822942644,0.023158395743428456,
0.03336658354114713,0.023058879055118955,
0.03341645885286783,-0.009785082138997177,
0.03346633416458853,0.0012446715267785784,
0.033516209476309226,0.023884170959539097,
0.03356608478802992,0.011433100988826564,
0.033615960099750625,0.02001841916907869,
0.03366583541147132,-0.0018096003450360047,
0.03371571072319202,-0.004893382148344035,
0.03376558603491272,0.006549063999479793,
0.033815461346633414,-0.016127193706527817,
0.03386533665835412,0.030855114761265248,
0.03391521197007481,0.007245261370790756,
0.03396508728179551,0.002040560562526026,
0.03401496259351621,0.013400217672555255,
0.03406483790523691,0.0003918455841810664,
0.0341147132169576,0.016093507903627433,
0.034164588528678305,0.0035945751907930966,
0.034214463840399,-0.0016154200580053828,
0.034264339152119704,0.010420856101561312,
0.0343142144638404,0.005271406647381225,
0.034364089775561095,0.00717614664250542,
0.0344139650872818,-0.021162003010533736,
0.03446384039900249,0.002165944012788059,
0.03451371571072319,0.008050455560474006,
0.03456359102244389,0.007625462692795561,
0.03461346633416459,0.013055524830722302,
0.03466334164588529,-0.0040791544447252095,
0.034713216957605986,0.007107015223966472,
0.03476309226932668,-0.006302235353434832,
0.034812967581047384,0.007847572107876328,
0.03486284289276808,0.005774124518697967,
0.034912718204488775,0.021658377029124865,
0.03496259351620948,-0.006835074802727947,
0.035012468827930174,0.02523143216222631,
0.03506234413965087,0.000191057211095246,
0.03511221945137157,0.017709072797271234,
0.03516209476309227,0.0019479425145574264,
0.03521197007481297,0.001946627837940535,
0.035261845386533666,0.009487163662144296,
0.03531172069825436,-0.008783950133372865,
0.035361596009975065,0.010225975977593784,
0.03541147132169576,0.028065130864249065,
0.035461346633416456,0.021365015857002408,
0.03551122194513716,0.005348231674200874,
0.035561097256857854,0.012828317188139843,
0.03561097256857856,0.013598648327508683,
0.03566084788029925,0.010186523191565822,
0.03571072319201995,-0.02153337868731604,
0.03576059850374065,0.007133395304053139,
0.03581047381546135,0.006504555165562314,
0.03586034912718204,-0.009719862748334768,
0.035910224438902745,-0.00037319854574348744,
0.03596009975062344,-0.0018953835381104647,
0.036009975062344136,-0.009545804198427573,
0.03605985037406484,0.0070461355904308035,
0.036109725685785535,-0.018941407318386182,
0.03615960099750624,0.012835497676420952,
0.03620947630922693,-0.008343930493386425,
0.03625935162094763,0.03711261843839444,
0.03630922693266833,0.0014697052229188938,
0.03635910224438903,0.01094387668357313,
0.03640897755610972,0.0016185029882543837,
0.036458852867830426,0.012258436892606316,
0.03650872817955112,0.011483603918528016,
0.036558603491271824,-0.012883695231539118,
0.03660847880299252,-0.0007485567355376629,
0.036658354114713215,0.004264244361957751,
0.03670822942643392,-0.03214504737969805,
0.036758104738154614,-0.019717943674377566,
0.03680798004987531,0.0072284060570130485,
0.03685785536159601,0.011914301428493597,
0.03690773067331671,-0.0148223347757621,
0.0369576059850374,0.0115889306013638,
0.037007481296758106,-0.0015321417102492577,
0.0370573566084788,-0.02240196333199415,
0.037107231920199504,0.0046389477360975935,
0.0371571072319202,-0.00028431845314366624,
0.037206982543640896,0.022426368031603108,
0.0372568578553616,0.008147585503991918,
0.037306733167082294,0.002091774932672397,
0.03735660847880299,0.00498340280263268,
0.03740648379052369,-0.0060350854479825095,
0.03745635910224439,0.0007400038753138313,
0.037506234413965084,-0.004168693687774124,
0.037556109725685786,-0.01451894896376686,
0.03760598503740648,-0.008768788167463236,
0.037655860349127185,-0.0027776516128390676,
0.03770573566084788,0.01883963156771743,
0.037755610972568576,-0.02223703875304886,
0.03780548628428928,-0.017383895770262496,
0.037855361596009975,-0.019457350550432517,
0.03790523690773067,-0.013245244721677457,
0.03795511221945137,-0.0009991843129344338,
0.03800498753117207,0.0005146265794176968,
0.03805486284289277,-0.0024118667314164174,
0.03810473815461347,-0.01476023173849003,
0.03815461346633416,-0.02796193887183053,
0.038204488778054865,-0.018243381138230808,
0.03825436408977556,0.007858371223675616,
0.03830423940149626,-0.02515175432362072,
0.03835411471321696,-0.02340002638811424,
0.038403990024937655,-0.008688037789027929,
0.03845386533665835,-0.010772888215002416,
0.03850374064837905,-0.006410419029010097,
0.03855361596009975,-0.029965383219692557,
0.03860349127182045,-0.02179617255932848,
0.03865336658354115,0.0035870243380874064,
0.03870324189526184,-0.0056576333471113766,
0.038753117206982546,-0.02242054266894923,
0.03880299251870324,0.011530079247639451,
0.03885286783042394,-0.015351548144964458,
0.03890274314214464,0.007411653857160975,
0.038952618453865336,-0.04078820130586179,
0.03900249376558604,0.010220906126106427,
0.039052369077306734,-0.02318828699649783,
0.03910224438902743,-0.01533867486615693,
0.03915211970074813,-0.011851439741131453,
0.03920199501246883,-0.007964223728057333,
0.039251870324189524,-0.014562671927523791,
0.039301745635910226,-0.003178787048889983,
0.03935162094763092,0.004549559876633132,
0.03940149625935162,0.002474773557966676,
0.03945137157107232,-0.0159582031130569,
0.039501246882793016,0.01184859605809481,
0.03955112219451372,-0.03253429801874709,
0.039600997506234414,-0.027708540534011804,
0.03965087281795511,-0.019797696508073635,
0.03970074812967581,-0.017361879927649145,
0.03975062344139651,-0.008341307787171695,
0.039800498753117204,-0.001593758757683401,
0.03985037406483791,-0.030815281446067547,
0.0399002493765586,-0.014744442636457276,
0.039950124688279305,-0.023687249941101912,
0.04,-0.03342377507616743,
0.0400498753117207,-0.008344909176388447,
0.0400997506234414,-0.007747173987575325,
0.040149625935162095,0.0015229607182396937,
0.04019950124688279,0.023503719982677633,
0.04024937655860349,-0.009993458372063982,
0.04029925187032419,-0.003083142370656801,
0.040349127182044885,-0.012171693843504583,
0.04039900249376559,-0.01944369444287322,
0.04044887780548628,-0.032308141787891556,
0.040498753117206986,-0.006532016223198531,
0.04054862842892768,-0.021410883680150806,
0.04059850374064838,-0.008965577484330457,
0.04064837905236908,-0.014735818289037812,
0.040698254364089775,-0.026840555555076466,
0.04074812967581047,-0.018184016782891773,
0.040798004987531174,-0.02354119319404814,
0.04084788029925187,-0.021157827718023076,
0.040897755610972565,-0.03338705353036148,
0.04094763092269327,0.0001663760725103547,
0.04099750623441396,-0.026411646172330903,
0.041047381546134666,-0.019659133679016637,
0.04109725685785536,-0.014225416911054164,
0.04114713216957606,-0.055825369630639186,
0.04119700748129676,-0.018982141418131773,
0.041246882793017456,0.007560108210252391,
0.04129675810473815,-0.02692190093939651,
0.041346633416458854,-0.02998560279551501,
0.04139650872817955,-0.020375389771502196,
0.04144638403990025,-0.005400456296807158,
0.04149625935162095,-0.009789329074509297,
0.041546134663341644,-0.006623135562035826,
0.04159600997506235,0.00934886908863147,
0.04164588528678304,-0.037878985159900104,
0.04169576059850374,-0.014601453078105031,
0.04174563591022444,-0.018320374572712662,
0.041795511221945136,-0.010901600080050172,
0.04184538653366583,-0.013523180751703608,
0.041895261845386535,-0.025727311661638115,
0.04194513715710723,-0.017242396212638143,
0.04199501246882793,-0.025392780456576343,
0.04204488778054863,0.011470196735123119,
0.042094763092269324,-0.000873852052298835,
0.04214463840399003,-0.019455862258646147,
0.04219451371571072,-0.00876712209931621,
0.04224438902743142,-0.018593115270315708,
0.04229426433915212,-0.0033471369870127776,
0.04234413965087282,0.023982436276771324,
0.04239401496259352,-0.019583725462069837,
0.042443890274314215,-0.010872896365299317,
0.04249376558603491,-0.016360186973726057,
0.042543640897755614,-0.01810069500222121,
0.04259351620947631,-0.006991814949924765,
0.042643391521197005,-0.006286232598428687,
0.04269326683291771,-0.01782505266867598,
0.0427431421446384,-0.000618504710019941,
0.0427930174563591,-0.01676400338901144,
0.0428428927680798,-0.03719560291146888,
0.0428927680798005,-0.011947025944238857,
0.0429426433915212,-0.025087651505728052,
0.042992518703241896,-0.03361868708101179,
0.04304239401496259,0.008146392923265543,
0.043092269326683294,0.0008256110556742018,
0.04314214463840399,0.001954942241386714,
0.043192019950124685,-0.0082274591463285,
0.04324189526184539,-0.018147868240577743,
0.043291770573566084,-0.015000951233542711,
0.043341645885286786,-0.014075574249447758,
0.04339152119700748,-0.0064248228694211065,
0.04344139650872818,-0.006475965351139675,
0.04349127182044888,0.0029474853433497043,
0.043541147132169576,-0.036775026555881114,
0.04359102244389027,-0.01362418432108273,
0.043640897755610975,0.005024326002317706,
0.04369077306733167,-0.031670253513605404,
0.043740648379052366,-0.021338241981424706,
0.04379052369077307,-0.016303866362366647,
0.043840399002493764,-0.011158739302742686,
0.04389027431421447,0.0017175749777612716,
0.04394014962593516,0.010284232178168842,
0.04399002493765586,-0.000861064162962168,
0.04403990024937656,-0.0008057587879539696,
0.04408977556109726,-0.0015064039324041239,
0.04413965087281795,-0.012629702922075717,
0.044189526184538655,-0.008544859575170639,
0.04423940149625935,-0.009778940394936824,
0.04428927680798005,-0.003909219143521847,
0.04433915211970075,0.004030171450532825,
0.044389027431421445,-0.026534966798404485,
0.04443890274314215,-5.156572991810767e-05,
0.04448877805486284,-0.004680005819494481,
0.04453865336658354,-0.007978341081545163,
0.04458852867830424,-0.010189340377252477,
0.04463840399002494,0.01748491319422806,
0.04468827930174563,0.005888809704351766,
0.044738154613466335,0.0028646729817056525,
0.04478802992518703,0.002574030617581027,
0.044837905236907734,0.003903485892180512,
0.04488778054862843,-0.0012853080060194922,
0.044937655860349125,0.01514132943616223,
0.04498753117206983,-0.00471594378185308,
0.045037406483790524,0.007637069095693985,
0.04508728179551122,0.0011126102119728585,
0.04513715710723192,-0.0016868587192150567,
0.04518703241895262,0.004447338658440127,
0.04523690773067331,-0.011142200119911946,
0.045286783042394016,-0.011375657341070022,
0.04533665835411471,0.00197580220999213,
0.045386533665835414,0.012921810202465175,
0.04543640897755611,0.028491461361115897,
0.045486284289276806,-0.005671548852754983,
0.04553615960099751,-0.010413139804500933,
0.045586034912718204,-0.010346967472196175,
0.0456359102244389,-0.016090019491672762,
0.0456857855361596,0.006184985851897951,
0.0457356608478803,-0.004179757675272433,
0.045785536159601,0.004028855410761513,
0.045835411471321696,0.012397548868385603,
0.04588528678304239,0.01271176220754594,
0.045935162094763095,0.02057685894333856,
0.04598503740648379,0.03486963967273561,
0.046034912718204486,-0.01559281643380322,
0.04608478802992519,-0.00551985171235388,
0.046134663341645885,0.024030489231044155,
0.04618453865336658,0.027379818869556895,
0.04623441396508728,-0.017436547289937755,
0.04628428927680798,-0.021090083758766778,
0.04633416458852868,0.011452085661250668,
0.04638403990024938,-0.02180185765137563,
0.04643391521197007,0.008661835076021508,
0.046483790523690775,0.00742479325753438,
0.04653366583541147,0.0018364533169245665,
0.04658354114713217,0.02433957614755522,
0.04663341645885287,0.009423737713286582,
0.046683291770573565,0.025291388242242537,
0.04673316708229427,0.012964287050462531,
0.04678304239401496,-0.007899445426421339,
0.04683291770573566,0.016636402051691895,
0.04688279301745636,0.013618385671068645,
0.04693266832917706,0.008875219531339455,
0.04698254364089775,0.01503123137710866,
0.047032418952618456,-0.0037220539052115753,
0.04708229426433915,0.00018500746653907912,
0.04713216957605985,0.010610786233381271,
0.04718204488778055,-0.021353888223092123,
0.047231920199501246,0.021482590682066486,
0.04728179551122195,0.03245904181812164,
0.047331670822942644,0.018144479571253827,
0.04738154613466334,0.011739332364520374,
0.04743142144638404,-0.003957316435941119,
0.04748129675810474,0.00910553686674449,
0.047531172069825434,0.036943298076443434,
0.047581047381546136,0.013883604665603462,
0.04763092269326683,0.03290639096985768,
0.047680798004987535,0.001182545502188704,
0.04773067331670823,0.03483190659916065,
0.047780548628428926,0.03282874323016279,
0.04783042394014963,0.018926388938725502,
0.047880299251870324,0.020408036930295075,
0.04793017456359102,0.006928874349554548,
0.04798004987531172,0.006365850968338896,
0.04802992518703242,0.0182269107304065,
0.048079800498753114,0.010247003429028264,
0.04812967581047382,0.0036119864319931194,
0.04817955112219451,0.025664696887964487,
0.048229426433915215,0.01964270065814736,
0.04827930174563591,0.0061942979681219625,
0.048329177057356607,0.004459273956226518,
0.04837905236907731,0.0016741307021756122,
0.048428927680798005,0.015231113606407772,
0.0484788029925187,0.005188375293501822,
0.0485286783042394,0.016583964062491054,
0.0485785536159601,0.007670431022040283,
0.048628428927680795,-0.0005984149972366216,
0.0486783042394015,0.013259114420951526,
0.04872817955112219,0.02108579678790005,
0.048778054862842896,0.02245151666999803,
0.04882793017456359,0.031944987139471095,
0.04887780548628429,0.03192018234378567,
0.04892768079800499,0.03184749412600493,
0.048977556109725685,0.0072216808228691,
0.04902743142144638,0.044149586754483265,
0.049077306733167084,0.020644251567675912,
0.04912718204488778,0.004225267849263015,
0.04917705735660848,0.016638378039886347,
0.04922693266832918,0.004012210980297647,
0.04927680798004987,0.027966405435290657,
0.049326683291770576,0.03775079876657326,
0.04937655860349127,0.020470317239369873,
0.04942643391521197,0.030275821269672504,
0.04947630922693267,0.01764622930517092,
0.049526184538653366,0.0556438390797125,
0.04957605985037406,0.04552555680200779,
0.049625935162094764,0.011534490099095854,
0.04967581047381546,0.021020076158323964,
0.04972568578553616,0.0224882655852822,
0.04977556109725686,0.008164857543182372,
0.049825436408977554,0.024665531752036042,
0.04987531172069826,-0.0004069990200723378,
0.04992518703241895,0.03552293421871855,
0.04997506234413965,0.020188271122953644,
0.05002493765586035,0.043840152255659,
0.050074812967581046,-0.0005158132969213698,
0.05012468827930175,0.02948366534348487,
0.050174563591022445,0.0076315893387890535,
0.05022443890274314,-0.0006951068931694525,
0.05027431421446384,0.026386597223330463,
0.05032418952618454,0.024651360891085113,
0.050374064837905234,0.030071322346091042,
0.05042394014962594,0.02617213416958,
0.05047381546134663,0.0072566492831294405,
0.05052369077306733,0.05824677852145395,
0.05057356608478803,0.023123977708375827,
0.05062344139650873,0.04304186807883145,
0.05067331670822943,0.027950550123494983,
0.050723192019950125,0.037952625030547346,
0.05077306733167082,0.005935068375641492,
0.050822942643391524,0.01812931439701923,
0.05087281795511222,0.017240568688228656,
0.050922693266832915,0.026703549551246694,
0.05097256857855362,0.008696761678520104,
0.05102244389027431,0.027265424911812407,
0.051072319201995016,0.043492408249425386,
0.05112219451371571,0.035276025573641526,
0.05117206982543641,0.025562863274686688,
0.05122194513715711,0.024334910736117824,
0.051271820448877806,0.05501459890932099,
0.0513216957605985,0.04414160208005826,
0.051371571072319204,0.02275831776028688,
0.0514214463840399,0.03939339233419151,
0.051471321695760595,0.02950507000319852,
0.0515211970074813,-1.0399959625092409e-05,
0.051571072319201994,0.023926120163781157,
0.051620947630922696,0.009310766537368476,
0.05167082294264339,-0.007270120862145034,
0.05172069825436409,0.042294836775286816,
0.05177057356608479,0.030922674632896278,
0.051820448877805486,0.034615155385949344,
0.05187032418952618,-0.004573229850783178,
0.051920199501246884,0.03772863956581078,
0.05197007481296758,0.012749835459151884,
0.052019950124688276,-0.002176854921435635,
0.05206982543640898,0.04692001398198266,
0.052119700748129674,0.014231319022253337,
0.05216957605985038,0.014626288231885852,
0.05221945137157107,0.02648907093885694,
0.05226932668329177,0.024822501704995364,
0.05231920199501247,0.027672760394707046,
0.05236907730673317,0.028435946416908296,
0.05241895261845386,0.014783567719000697,
0.052468827930174565,-0.0041166600221870485,
0.05251870324189526,0.01734623934605926,
0.05256857855361596,0.021739908325063374,
0.05261845386533666,0.024210147762288754,
0.052668329177057355,-0.006116042241260524,
0.05271820448877806,0.017950368514885753,
0.05276807980049875,0.032659624076365024,
0.05281795511221945,0.024745244298858354,
0.05286783042394015,0.0009976677310759678,
0.05291770573566085,0.013722348877490506,
0.05296758104738154,0.027239679222911893,
0.053017456359102245,0.01455930838258876,
0.05306733167082294,0.0008939746891334435,
0.053117206982543644,0.013544632553031113,
0.05316708229426434,0.0252414866903347,
0.053216957605985035,0.04277917446769919,
0.05326683291770574,0.014603384358271795,
0.053316708229426434,0.02653750562332459,
0.05336658354114713,0.015266480565130778,
0.05341645885286783,0.03842293912402826,
0.05346633416458853,0.01533574926973356,
0.05351620947630923,-0.004052243391031633,
0.053566084788029926,0.021188576150303052,
0.05361596009975062,-0.004946606639929544,
0.053665835411471324,0.021268562428822607,
0.05371571072319202,0.03616002714173108,
0.053765586034912716,0.018980607327126076,
0.05381546134663342,0.01136944290587701,
0.053865336658354114,0.02461654552108611,
0.05391521197007481,0.023348319925275415,
0.05396508728179551,0.018194150139548684,
0.05401496259351621,0.014764448321541609,
0.05406483790523691,0.03781694570296304,
0.054114713216957606,0.021570561616811278,
0.0541645885286783,0.018430166628737036,
0.054214463840399005,0.019498963775061755,
0.0542643391521197,-0.0114211083644656,
0.054314214463840396,0.015267117780213491,
0.0543640897755611,0.01684227776573302,
0.054413965087281795,-0.003997481238737081,
0.0544638403990025,0.0027286727193248208,
0.05451371571072319,0.015779575631990953,
0.05456359102244389,0.003665992139008919,
0.05461346633416459,-0.01191570067037789,
0.05466334164588529,-0.0007479270017881831,
0.05471321695760598,0.004946255001995244,
0.054763092269326685,0.012123318385416288,
0.05481296758104738,-0.02565309730493485,
0.05486284289276808,0.008155422781803999,
0.05491271820448878,0.03232640082209956,
0.054962593516209475,0.04017172190328934,
0.05501246882793018,-0.004289383222424132,
0.05506234413965087,0.006508284031755041,
0.05511221945137157,0.0016730436860138455,
0.05516209476309227,0.013277305181515108,
0.05521197007481297,0.01707059662330545,
0.05526184538653366,-0.015308427568034088,
0.055311720698254366,-0.006465693852384597,
0.05536159600997506,-0.002549623168601063,
0.05541147132169576,0.004404604906013544,
0.05546134663341646,0.023930567081069377,
0.055511221945137156,-0.005650480622122347,
0.05556109725685786,0.016420393154023105,
0.055610972568578554,-0.007242353205148181,
0.05566084788029925,0.009948759026619548,
0.05571072319201995,-0.025626418917866475,
0.05576059850374065,-0.011826133725487704,
0.055810473815461344,0.010685337210215569,
0.055860349127182046,-0.006850096172979717,
0.05591022443890274,-0.02379472097153782,
0.055960099750623445,-0.0006872996486496385,
0.05600997506234414,0.03343094577892828,
0.056059850374064836,-0.016331923215773526,
0.05610972568578554,0.0054281636146928935,
0.056159600997506234,0.0036616152927188127,
0.05620947630922693,-0.005746698271987236,
0.05625935162094763,0.0020196226418601735,
0.05630922693266833,0.01677987948340111,
0.056359102244389024,-0.014457194375860238,
0.05640897755610973,0.009902656905924422,
0.05645885286783042,0.011874507321615756,
0.056508728179551125,-0.005987099038214972,
0.05655860349127182,-0.0286537075434378,
0.056608478802992516,-0.027477947303179883,
0.05665835411471322,-0.006896351286092636,
0.056708229426433915,-0.012498723999877382,
0.05675810473815461,0.01229186196231512,
0.05680798004987531,0.018845720900707234,
0.05685785536159601,0.0002204571453173071,
0.05690773067331671,0.00044348815019027484,
0.05695760598503741,0.0015521492294444886,
0.0570074812967581,-0.0016424024451501653,
0.057057356608478806,-0.010699644407347022,
0.0571072319201995,-0.013770649074752736,
0.0571571072319202,0.0206464990843405,
0.0572069825436409,-0.0003868808616557841,
0.057256857855361595,-0.023824112983701164,
0.05730673316708229,-0.02599579587355836,
0.057356608478802994,-0.03057568942927287,
0.05740648379052369,-0.014973601320748537,
0.05745635910224439,-0.006495264245559025,
0.05750623441396509,7.521204201428253e-06,
0.05755610972568578,-0.0089185406165218,
0.057605985037406486,-0.007408393748258892,
0.05765586034912718,-0.004920901138429784,
0.05770573566084788,-0.02855819695240257,
0.05775561097256858,-0.019547775946328567,
0.057805486284289276,0.0008636425566482184,
0.05785536159600998,-0.0028691055677506063,
0.057905236907730674,-0.03080572823860534,
0.05795511221945137,-0.0042545971051300025,
0.05800498753117207,-0.0063289173192063635,
0.05805486284289277,-0.0070314704380796,
0.058104738154613464,-0.011017303591988188,
0.05815461346633417,0.0010255630789241781,
0.05820448877805486,-0.02219514616205555,
0.05825436408977556,0.0024839514365197577,
0.05830423940149626,-0.008584698194160616,
0.058354114713216956,-0.018361107814715436,
0.05840399002493766,-0.01006881732639894,
0.058453865336658355,-0.012888421358792857,
0.05850374064837905,-0.020770136859435413,
0.05855361596009975,-0.008507952384260395,
0.05860349127182045,-0.04620049541026252,
0.058653366583541144,-0.02717415639337515,
0.05870324189526185,-0.015373414399968784,
0.05875311720698254,0.0009779956957759947,
0.05880299251870324,-0.015378122143150614,
0.05885286783042394,-0.023550996231748816,
0.05890274314214464,-0.019495267216252964,
0.05895261845386534,0.016843117782891624,
0.059002493765586035,-0.023690184773466884,
0.05905236907730673,-0.05791530599788457,
0.059102244389027433,0.004373686716108965,
0.05915211970074813,-0.011206538425077288,
0.059201995012468825,-0.026191271620269147,
0.05925187032418953,0.007666256235297,
0.05930174563591022,-0.016372339574745008,
0.059351620947630926,-0.02906673891696578,
0.05940149625935162,-0.0011100995109174575,
0.05945137157107232,-0.027992407468054745,
0.05950124688279302,-0.01834667530637295,
0.059551122194513716,-0.0014900637019808344,
0.05960099750623441,-0.02397607728333292,
0.059650872817955114,-0.023648718902954533,
0.05970074812967581,-0.0240383578140411,
0.059750623441396505,-0.04373684533270003,
0.05980049875311721,0.001574511787059604,
0.059850374064837904,-0.00988379676631267,
0.059900249376558606,-0.037289266072310076,
0.0599501246882793,-0.01788959930927678,
0.06,-0.02694599621849645,
0.0600498753117207,-0.031028053727248144,
0.060099750623441396,-0.029639201584851314,
0.06014962593516209,-0.026143648426190623,
0.060199501246882794,-0.04175587125111366,
0.06024937655860349,-0.0010610197951774793,
0.06029925187032419,-0.030275931460363677,
0.06034912718204489,-0.03229413562066306,
0.060399002493765584,0.01650142377228017,
0.06044887780548629,-0.010149603523796177,
0.06049875311720698,-0.0087001979182019,
0.06054862842892768,-0.00315853076455898,
0.06059850374064838,-0.032851397280436435,
0.06064837905236908,0.009452631088994506,
0.06069825436408977,-0.022550248016492455,
0.060748129675810475,-0.02263124213183394,
0.06079800498753117,-0.03517781166211546,
0.06084788029925187,-0.02489664208637014,
0.06089775561097257,-0.021098336603524274,
0.060947630922693265,-0.040856657280258,
0.06099750623441397,0.005645935734216701,
0.06104738154613466,-0.02404011876197002,
0.06109725685785536,-0.02930943384367462,
0.06114713216957606,-0.02175546223100442,
0.06119700748129676,-0.023153079945029294,
0.06124688279301746,-0.020573910857647516,
0.061296758104738155,-0.03807347994904092,
0.06134663341645885,-0.0041575114003432195,
0.061396508728179554,-0.0023892994131266138,
0.06144638403990025,-0.012323900870218075,
0.061496259351620945,-0.010228398376070306,
0.06154613466334165,-0.0016204371270434684,
0.061596009975062344,-0.028111678793196107,
0.06164588528678304,0.003847310984620442,
0.06169576059850374,-0.010762061182797534,
0.06174563591022444,-0.035539973812974204,
0.06179551122194514,-0.03166448264633756,
0.061845386533665836,-0.037691837704135166,
0.06189526184538653,-0.023227687970295417,
0.061945137157107234,-0.016038254775968257,
0.06199501246882793,-0.005426705655762387,
0.062044887780548626,-0.003156421521461731,
0.06209476309226933,-0.012872402573094188,
0.062144638403990024,-0.012957217919285353,
0.06219451371571072,-0.04693470690945943,
0.06224438902743142,0.005506830523572412,
0.06229426433915212,0.0010272402285095,
0.06234413965087282,-0.01049434837546288,
0.062394014962593516,-0.008552264519088281,
0.06244389027431421,-0.014684952233977224,
0.062493765586034915,-0.0372775803217795,
0.06254364089775562,-0.020427982556774013,
0.06259351620947631,0.0029093376587416443,
0.06264339152119701,0.01329353018736585,
0.0626932668329177,0.0133524935593538,
0.0627431421446384,-0.011721068229076863,
0.0627930174563591,0.005357715178915345,
0.0628428927680798,-0.01928096192115531,
0.0628927680798005,-0.010837982703086162,
0.0629426433915212,-0.0038068235816298398,
0.06299251870324189,-0.003762882302769984,
0.06304239401496259,-0.015127788578799714,
0.0630922693266833,-0.02872560991422211,
0.063142144638404,0.003029104644532767,
0.06319201995012469,-0.005395538530180431,
0.06324189526184539,0.009144722326471663,
0.06329177057356608,-0.02078549099950252,
0.06334164588528678,-0.022336930478232278,
0.06339152119700749,-0.008187197886988132,
0.06344139650872818,-0.018047579773314563,
0.06349127182044888,-0.002287315759753131,
0.06354114713216957,0.002123958521159601,
0.06359102244389027,0.03195466742424925,
0.06364089775561098,-0.010762441712135903,
0.06369077306733167,-0.033356038121402795,
0.06374064837905237,-0.02408213685331606,
0.06379052369077307,0.003763038690715749,
0.06384039900249376,-0.027371101521829595,
0.06389027431421446,-0.01139193797459697,
0.06394014962593517,-0.0033470799240936065,
0.06399002493765586,-0.008062737739149294,
0.06403990024937656,-0.024321164732515287,
0.06408977556109725,-0.004851033827185508,
0.06413965087281795,-0.03283028996130443,
0.06418952618453866,0.004327170604200087,
0.06423940149625935,0.001357609438031621,
0.06428927680798005,0.007040102548007063,
0.06433915211970075,-0.005725132538459278,
0.06438902743142144,-0.01573701427362278,
0.06443890274314215,-0.004952784760239467,
0.06448877805486285,-0.009499029280883153,
0.06453865336658354,0.002903450202454116,
0.06458852867830424,-0.01952035811778805,
0.06463840399002493,0.001196861308647114,
0.06468827930174563,0.0026012544867527183,
0.06473815461346634,0.012919452529517147,
0.06478802992518704,0.004070607283420546,
0.06483790523690773,0.014791672349415835,
0.06488778054862843,-0.00018574832733316785,
0.06493765586034912,0.009025733914766541,
0.06498753117206983,0.024962750639059374,
0.06503740648379053,0.00036072012516496403,
0.06508728179551122,-0.00035678528928304596,
0.06513715710723192,-0.0006640342273536307,
0.06518703241895261,0.006587366522351994,
0.06523690773067331,0.0038080751482123323,
0.06528678304239402,-0.012046334955700833,
0.06533665835411472,0.008816187859344269,
0.06538653366583541,0.025409160134753746,
0.06543640897755611,0.012569935148270279,
0.0654862842892768,0.00990048141737342,
0.06553615960099751,0.01650024657761052,
0.06558603491271821,0.003718073235760371,
0.0656359102244389,-0.006175595615048846,
0.0656857855361596,0.015695111792897468,
0.0657356608478803,-0.0016897122525218588,
0.06578553615960099,0.029644031055272437,
0.0658354114713217,0.0177684313524139,
0.0658852867830424,0.017632905267325548,
0.06593516209476309,-0.009027587637429321,
0.06598503740648379,0.006670426140134061,
0.06603491271820448,0.018966311523664847,
0.06608478802992519,0.002605514990717597,
0.06613466334164589,-0.003681409419501217,
0.06618453865336658,0.009689066926869477,
0.06623441396508728,-0.011597552467887014,
0.06628428927680798,-0.0071402777254690394,
0.06633416458852869,0.00993928451607534,
0.06638403990024938,0.0077306719861095635,
0.06643391521197008,0.012717320716106428,
0.06648379052369077,0.012129159798783293,
0.06653366583541147,-0.007818471217746875,
0.06658354114713216,0.0077058552906606485,
0.06663341645885287,0.038588783700115335,
0.06668329177057357,0.006601261749206495,
0.06673316708229426,0.02253709756047299,
0.06678304239401496,0.006445251296180263,
0.06683291770573566,0.026304996628118887,
0.06688279301745637,0.0006321587901901207,
0.06693266832917706,0.009880912399772932,
0.06698254364089776,0.007015165429752449,
0.06703241895261845,0.04517387782329876,
0.06708229426433915,0.024516475961358968,
0.06713216957605984,0.02411720164356225,
0.06718204488778055,0.009287010751068006,
0.06723192019950125,0.016150887025519346,
0.06728179551122195,4.280015581813179e-05,
0.06733167082294264,0.02906499844743976,
0.06738154613466334,-0.013594772345582946,
0.06743142144638405,0.023026426552110315,
0.06748129675810474,0.018823449387385137,
0.06753117206982544,0.02645754313905041,
0.06758104738154613,0.027547139274612255,
0.06763092269326683,0.004358661884393943,
0.06768079800498752,0.04305685588716508,
0.06773067331670823,-0.014452028474522805,
0.06778054862842893,0.03436946720525169,
0.06783042394014963,0.023090416919704742,
0.06788029925187032,0.006574255693632002,
0.06793017456359102,0.005116208327917175,
0.06798004987531173,0.05458389834008892,
0.06802992518703242,-0.0006270737362961999,
0.06807980049875312,0.01896725014567081,
0.06812967581047381,-0.0006526419039773294,
0.06817955112219451,0.01827288062196026,
0.0682294264339152,0.018647534092102427,
0.06827930174563591,0.055325126697429915,
0.06832917705735661,0.05379463560316901,
0.0683790523690773,0.03970563222550558,
0.068428927680798,0.030531509182168223,
0.0684788029925187,0.01448750817485328,
0.06852867830423941,0.029862948718183506,
0.0685785536159601,0.015772664373209677,
0.0686284289276808,0.030222526149871407,
0.0686783042394015,0.0245829691938289,
0.06872817955112219,0.02748688937562833,
0.0687780548628429,0.015270254302296296,
0.0688279301745636,0.009297023970998384,
0.06887780548628429,0.01828658585645997,
0.06892768079800499,0.0064501233259656315,
0.06897755610972568,0.022394923835062922,
0.06902743142144638,0.01882309628429103,
0.06907730673316709,0.01477617833802121,
0.06912718204488778,0.062379597740467266,
0.06917705735660848,0.019837728472546952,
0.06922693266832917,0.010404475834439866,
0.06927680798004987,0.008976448609822725,
0.06932668329177058,0.00846556247354063,
0.06937655860349128,0.04134117506953887,
0.06942643391521197,0.008704278922061739,
0.06947630922693267,0.003581359639826358,
0.06952618453865336,0.0182517513423094,
0.06957605985037406,0.022279741961378302,
0.06962593516209477,0.046229272643984,
0.06967581047381546,0.021161163758715032,
0.06972568578553616,0.027519777381248386,
0.06977556109725686,0.04624753920445881,
0.06982543640897755,0.026837371239882155,
0.06987531172069826,0.0342750020524746,
0.06992518703241896,-0.02096756767821024,
0.06997506234413965,-0.00826510467739678,
0.07002493765586035,0.034442250488757625,
0.07007481296758104,0.0055578731853850975,
0.07012468827930174,0.02916344664752127,
0.07017456359102245,0.03435582936574374,
0.07022443890274314,0.027651838307447045,
0.07027431421446384,0.04258038696779709,
0.07032418952618454,0.02056712067036999,
0.07037406483790523,0.02893159683647627,
0.07042394014962594,0.024145341028493375,
0.07047381546134664,0.05504704335774325,
0.07052369077306733,0.030792789363840806,
0.07057356608478803,0.034281049410867764,
0.07062344139650872,0.027249006294681008,
0.07067331670822943,0.02490807455221639,
0.07072319201995013,0.055843087053389105,
0.07077306733167082,0.022498015825670684,
0.07082294264339152,0.023473081489627186,
0.07087281795511222,-0.01999820207836398,
0.07092269326683291,0.049355728967772655,
0.07097256857855362,0.027736347963738698,
0.07102244389027432,0.03130110219511255,
0.07107231920199501,0.023342339249724356,
0.07112219451371571,0.009152308770265884,
0.0711720698254364,0.012873531427588718,
0.07122194513715711,0.03336504127094534,
0.07127182044887781,0.05262123926692129,
0.0713216957605985,0.023833060933278503,
0.0713715710723192,0.031603276681556915,
0.0714214463840399,0.0376470591092003,
0.07147132169576059,0.02303114182511839,
0.0715211970074813,0.03887243114367871,
0.071571072319202,-0.0006690417765447543,
0.0716209476309227,0.003001570398190368,
0.07167082294264339,0.023775112850111572,
0.07172069825436408,0.005974652214153071,
0.0717705735660848,0.04462754967895617,
0.07182044887780549,0.022740308429241213,
0.07187032418952619,0.01627115978737338,
0.07192019950124688,0.03196988383149289,
0.07197007481296758,0.002189202125389412,
0.07201995012468827,0.01725858954291945,
0.07206982543640898,0.019868558023799696,
0.07211970074812968,0.012219568904767114,
0.07216957605985037,0.022230355598237786,
0.07221945137157107,0.032981397686730335,
0.07226932668329177,0.013551400954389595,
0.07231920199501247,0.014211077154750198,
0.07236907730673317,0.027387748960690093,
0.07241895261845387,0.0164085839346986,
0.07246882793017456,0.021025839416264312,
0.07251870324189526,0.03366732679773404,
0.07256857855361595,0.016724673360920626,
0.07261845386533666,0.028150275287071314,
0.07266832917705736,0.0075898487528487935,
0.07271820448877805,0.042765620401649856,
0.07276807980049875,0.028722932167565884,
0.07281795511221945,0.03786725240025987,
0.07286783042394016,0.047533100252773186,
0.07291770573566085,0.0031396050364183234,
0.07296758104738155,0.01991263163999403,
0.07301745635910224,0.022572436324489447,
0.07306733167082294,0.020387514964475297,
0.07311720698254365,0.016182341487693062,
0.07316708229426434,0.024814815375063304,
0.07321695760598504,0.011481603324012532,
0.07326683291770573,0.009704066987333334,
0.07331670822942643,0.030802555878799362,
0.07336658354114713,0.0445650201874062,
0.07341645885286784,0.039023930116440925,
0.07346633416458853,0.0388381123216683,
0.07351620947630923,0.0012190304631882476,
0.07356608478802992,0.02451223827723582,
0.07361596009975062,0.02030575870684746,
0.07366583541147133,-0.0072750176217498685,
0.07371571072319202,0.04165236263303913,
0.07376558603491272,0.027717256964179537,
0.07381546134663342,0.013489363403734158,
0.07386533665835411,0.011541863270750387,
0.0739152119700748,0.012674389578273604,
0.07396508728179552,0.045028629878739054,
0.07401496259351621,0.022342995282646126,
0.07406483790523691,0.03535168009032613,
0.0741147132169576,-0.004206379946263647,
0.0741645885286783,0.025676685669429655,
0.07421446384039901,-0.02706051681810213,
0.0742643391521197,0.010670551867714175,
0.0743142144638404,-0.012388994217744587,
0.0743640897755611,0.004417908462270604,
0.07441396508728179,0.004148115094023916,
0.07446384039900249,0.0004627548426280742,
0.0745137157107232,0.026253320265876505,
0.07456359102244389,-0.005717451953796943,
0.07461346633416459,0.004615958987078011,
0.07466334164588528,0.021367401336116226,
0.07471321695760598,-0.008144414848917394,
0.07476309226932669,0.009673225073036968,
0.07481296758104738,0.0038773286287063433,
0.07486284289276808,0.006423639200907176,
0.07491271820448878,0.0040671484993804905,
0.07496259351620947,0.03204220656080896,
0.07501246882793017,0.003603151348346119,
0.07506234413965088,0.01821192540476675,
0.07511221945137157,-0.012597340272520016,
0.07516209476309227,0.00637659749001515,
0.07521197007481296,0.026633787513944535,
0.07526184538653366,0.013664290739236147,
0.07531172069825437,0.018193900244318485,
0.07536159600997507,0.01152429032606307,
0.07541147132169576,0.002803785148246446,
0.07546134663341646,-0.006164545167184502,
0.07551122194513715,-0.02206445832302799,
0.07556109725685786,0.012697805591725609,
0.07561097256857856,0.0024831693382205066,
0.07566084788029925,0.009771214910419736,
0.07571072319201995,0.003116423899583063,
0.07576059850374064,0.006290940833272006,
0.07581047381546134,0.007984810836853956,
0.07586034912718205,0.0006007780811543013,
0.07591022443890275,-0.00535327089713605,
0.07596009975062344,-0.00576357788015062,
0.07600997506234414,-0.009514285824741796,
0.07605985037406483,0.01967707029788536,
0.07610972568578554,0.004352195993128076,
0.07615960099750624,0.0049902309958887005,
0.07620947630922693,0.016927549788059323,
0.07625935162094763,0.02184431083630637,
0.07630922693266833,0.031337581884332645,
0.07635910224438902,-0.0166175823002168,
0.07640897755610973,0.007837675081293346,
0.07645885286783043,-0.021579864398594148,
0.07650872817955112,0.009405863712082897,
0.07655860349127182,0.008399928861384378,
0.07660847880299251,-0.03439844044575468,
0.07665835411471322,-0.017301960398936053,
0.07670822942643392,-0.022351326032638594,
0.07675810473815461,0.011576547683120234,
0.07680798004987531,-0.004477691429445058,
0.076857855361596,0.010870540089661339,
0.0769077306733167,-0.013177426976278751,
0.07695760598503741,0.01887255195332896,
0.0770074812967581,0.008611351239911472,
0.0770573566084788,-0.006614946152616753,
0.0771072319201995,-0.004260331372269759,
0.0771571072319202,-0.002525374721103751,
0.0772069825436409,0.0018305312195889224,
0.0772568578553616,0.0021552983474898042,
0.0773067331670823,-0.005551162455436755,
0.07735660847880299,-0.01839582403844546,
0.07740648379052369,0.006089171276127839,
0.0774563591022444,0.012719911252633907,
0.07750623441396509,-0.00670192018955554,
0.07755610972568579,-0.004207290215548061,
0.07760598503740648,-0.0022238102138343215,
0.07765586034912718,0.00960950250333527,
0.07770573566084787,0.0058780663880850376,
0.07775561097256858,-0.02144956826666294,
0.07780548628428928,-0.0047461224394232185,
0.07785536159600998,0.007254233924854676,
0.07790523690773067,-0.010632336891287269,
0.07795511221945137,-0.010520622825417256,
0.07800498753117208,-0.015654428379508662,
0.07805486284289277,-0.012546294298491856,
0.07810473815461347,-0.03173971330501568,
0.07815461346633416,-0.004461483655280444,
0.07820448877805486,-0.023435980237108626,
0.07825436408977555,0.005733791705647872,
0.07830423940149626,-0.022734410394027495,
0.07835411471321696,-0.017393360790252735,
0.07840399002493766,-0.0031187557815516177,
0.07845386533665835,-0.022682860078631947,
0.07850374064837905,7.922091034124126e-05,
0.07855361596009976,-0.004433884826734915,
0.07860349127182045,-0.023369342118252416,
0.07865336658354115,-0.0024956952477466487,
0.07870324189526184,-0.010215829896008409,
0.07875311720698254,-0.027580408988231744,
0.07880299251870324,-0.013897446794722743,
0.07885286783042394,-0.020289759244827767,
0.07890274314214464,-0.04221799273204814,
0.07895261845386534,-0.002207057188797811,
0.07900249376558603,-0.01763165639277356,
0.07905236907730673,-0.002552666372629306,
0.07910224438902744,-0.02080281907205548,
0.07915211970074813,0.006523013983906032,
0.07920199501246883,-0.01380577096721576,
0.07925187032418952,-0.014668486365597307,
0.07930174563591022,-0.025530018634556364,
0.07935162094763092,-0.005679661234652114,
0.07940149625935163,-0.04206925058956187,
0.07945137157107232,-0.002051859102646731,
0.07950124688279302,-0.028633516567825854,
0.07955112219451371,-0.013731195831220558,
0.07960099750623441,-0.025417188533173568,
0.07965087281795512,-0.020078805152525973,
0.07970074812967581,-0.033134682441703554,
0.07975062344139651,-0.012361100141447933,
0.0798004987531172,-0.027077819668640764,
0.0798503740648379,-0.004224663369972948,
0.07990024937655861,0.003681919851230125,
0.0799501246882793,0.01174650894544775,
0.08,0.00012341544622916124,
0.0800498753117207,-0.015154971079742266,
0.0800997506234414,-0.015765850832937925,
0.08014962593516209,-0.004505396332892646,
0.0801995012468828,-0.008239041333426015,
0.0802493765586035,-0.012841749127697678,
0.08029925187032419,-0.0171883118807339,
0.08034912718204489,0.004094634872470783,
0.08039900249376558,-0.02109260213289336,
0.08044887780548629,-0.02769496959997257,
0.08049875311720699,-0.02631060934565691,
0.08054862842892768,-0.009449338320821444,
0.08059850374064838,0.021960195945857682,
0.08064837905236907,0.006327878170489543,
0.08069825436408977,-0.018174551543839755,
0.08074812967581048,-0.023975312288306985,
0.08079800498753117,-0.02536239814261418,
0.08084788029925187,-0.02837409508806615,
0.08089775561097257,-0.004062032074890871,
0.08094763092269326,-0.008414127112029863,
0.08099750623441397,-0.008659743410209118,
0.08104738154613467,-0.016392044051923144,
0.08109725685785536,-0.019940048345278003,
0.08114713216957606,-0.026779803207581117,
0.08119700748129675,0.013746944570212688,
0.08124688279301745,0.025418379512057523,
0.08129675810473816,-0.04193268768682673,
0.08134663341645886,0.0030923881384087477,
0.08139650872817955,-0.008426616847714587,
0.08144638403990025,-0.0379016377144802,
0.08149625935162094,-0.023722765429309327,
0.08154613466334165,0.005459141812294052,
0.08159600997506235,-0.0364819056603814,
0.08164588528678304,0.0018433367663250426,
0.08169576059850374,-0.010227585237485933,
0.08174563591022443,0.01081701265238169,
0.08179551122194513,0.009167686619464922,
0.08184538653366584,-0.016937808588704365,
0.08189526184538654,-0.029786820298097306,
0.08194513715710723,-0.014451078827371242,
0.08199501246882793,-0.025811986581110224,
0.08204488778054862,-0.0189761923466223,
0.08209476309226933,-0.00763840557098296,
0.08214463840399003,0.005925295157447941,
0.08219451371571072,-0.01351471315519115,
0.08224438902743142,-0.0284400515645838,
0.08229426433915212,-0.01318782218924768,
0.08234413965087282,0.0016540197586181575,
0.08239401496259352,0.0007684504549101516,
0.08244389027431422,-0.017269465685879008,
0.08249376558603491,-0.005088651714805078,
0.08254364089775561,0.015477666760701718,
0.0825935162094763,-0.029209539047984782,
0.08264339152119701,-0.023694120445681092,
0.08269326683291771,-0.011020266212386085,
0.0827431421446384,-0.00887249479599734,
0.0827930174563591,-0.024394915103413232,
0.0828428927680798,-0.015401422700049364,
0.0828927680798005,-0.0041845731466420835,
0.0829426433915212,-0.004560148108484015,
0.0829925187032419,-0.009133020922425879,
0.08304239401496259,-0.01605872412691986,
0.08309226932668329,-0.02833134330677175,
0.08314214463840398,-0.015028480387098754,
0.0831920199501247,0.002699282524249287,
0.08324189526184539,-0.051949369907130956,
0.08329177057356608,-0.015261341593224679,
0.08334164588528678,-0.017929925852184954,
0.08339152119700748,-0.0010799352874485855,
0.08344139650872819,0.013329958135611466,
0.08349127182044888,-0.01083293135041157,
0.08354114713216958,-0.0030083257673945065,
0.08359102244389027,-0.0019539822624270137,
0.08364089775561097,-0.01249884497597993,
0.08369077306733166,-0.013163691433284417,
0.08374064837905237,-0.01203501924143537,
0.08379052369077307,-0.028181192603316293,
0.08384039900249377,0.011291272573721934,
0.08389027431421446,-0.006609242394730295,
0.08394014962593516,0.016165186073464385,
0.08399002493765587,0.004453217928573975,
0.08403990024937656,-0.010820084609093488,
0.08408977556109726,0.005515081541998493,
0.08413965087281795,0.014789408770301833,
0.08418952618453865,0.0230821616819754,
0.08423940149625936,-0.00982241395841086,
0.08428927680798005,0.008851753506848744,
0.08433915211970075,-0.012266350705788718,
0.08438902743142145,-0.008400272722740798,
0.08443890274314214,-0.013244117875920587,
0.08448877805486284,0.002678523989010922,
0.08453865336658355,-0.0015459337535990427,
0.08458852867830424,0.017052703141967857,
0.08463840399002494,0.018330719325113626,
0.08468827930174563,0.016522971839230988,
0.08473815461346633,-0.002026805541107993,
0.08478802992518704,-0.005866804301685473,
0.08483790523690773,0.002294108859470108,
0.08488778054862843,0.009623810829835662,
0.08493765586034913,-0.015493900577212156,
0.08498753117206982,0.015179925714487117,
0.08503740648379052,0.003975877248956156,
0.08508728179551123,0.00884424931032355,
0.08513715710723192,-0.0006451401492323502,
0.08518703241895262,0.010562313783196182,
0.08523690773067331,-0.01301229491654579,
0.08528678304239401,-0.002434183777887459,
0.08533665835411472,-0.0036012901908093545,
0.08538653366583542,0.0033214965204993365,
0.08543640897755611,-0.002872459683504287,
0.0854862842892768,-0.011800329117014612,
0.0855361596009975,0.022952907910119565,
0.0855860349127182,-0.0009832716374029308,
0.08563591022443891,-0.003632976001663733,
0.0856857855361596,0.024206020643420895,
0.0857356608478803,-0.002981594406733349,
0.085785536159601,0.003953209757736983,
0.08583541147132169,0.018560300424885753,
0.0858852867830424,-0.024513450330043603,
0.0859351620947631,-0.0009700848049921645,
0.08598503740648379,0.012718047787729595,
0.08603491271820449,0.003982463007428766,
0.08608478802992518,-0.026697444953424996,
0.08613466334164588,0.007464333674567721,
0.08618453865336659,0.011193790640107532,
0.08623441396508728,0.009434549305909624,
0.08628428927680798,-0.010391975141079254,
0.08633416458852868,0.0029209215377779766,
0.08638403990024937,-0.0016851849693121004,
0.08643391521197008,-0.002438790937411112,
0.08648379052369078,0.03622806135365325,
0.08653366583541147,0.015776042068900195,
0.08658354114713217,0.015135310225107609,
0.08663341645885286,0.0022234783920948107,
0.08668329177057357,0.06142807271764775,
0.08673316708229427,0.0133341021337205,
0.08678304239401496,0.008202736998951767,
0.08683291770573566,0.005448457047121746,
0.08688279301745636,0.014860571547241581,
0.08693266832917705,0.01736024065565019,
0.08698254364089776,0.02109123338719083,
0.08703241895261846,0.020395695334051753,
0.08708229426433915,0.01841792609355014,
0.08713216957605985,0.00900015310682833,
0.08718204488778054,0.015501197509459583,
0.08723192019950125,0.035244487513050066,
0.08728179551122195,0.020307216937345402,
0.08733167082294264,0.0332072154632254,
0.08738154613466334,0.021045013922308176,
0.08743142144638404,-0.011813661471069454,
0.08748129675810473,0.037093794659216146,
0.08753117206982544,0.015853574952641183,
0.08758104738154614,0.019613311603572877,
0.08763092269326683,0.015115203779210305,
0.08768079800498753,0.010272310570099627,
0.08773067331670822,0.012042678300491862,
0.08778054862842893,0.013155964402036823,
0.08783042394014963,0.02042649209891005,
0.08788029925187033,0.02434896845327453,
0.08793017456359102,0.013243214005262146,
0.08798004987531172,0.0230697618902753,
0.08802992518703241,0.011510732197258013,
0.08807980049875312,0.04133143088635231,
0.08812967581047382,0.01769326490357679,
0.08817955112219451,0.0474423325470851,
0.08822942643391521,0.02126859651027705,
0.0882793017456359,0.033400574012136246,
0.08832917705735661,0.018799745224542,
0.08837905236907731,0.03949574568833714,
0.088428927680798,0.03363477677664711,
0.0884788029925187,0.028022307466932166,
0.0885286783042394,0.03489212960305248,
0.0885785536159601,0.012221552830587337,
0.0886284289276808,0.012669148498748697,
0.0886783042394015,0.017074334803528757,
0.0887281795511222,0.04408719292899198,
0.08877805486284289,0.01532627019593511,
0.08882793017456359,0.036442474154840004,
0.0888778054862843,0.051513182406926594,
0.08892768079800499,0.0056359860638345236,
0.08897755610972569,0.032338822782827965,
0.08902743142144638,0.04884721295373588,
0.08907730673316708,0.01902147542567625,
0.08912718204488779,0.014980853666384594,
0.08917705735660848,0.028974753346966822,
0.08922693266832918,0.033161665138767685,
0.08927680798004987,0.03612109833280294,
0.08932668329177057,-0.0002745800113474299,
0.08937655860349127,0.0240810041346246,
0.08942643391521198,0.006408268595125676,
0.08947630922693267,0.026501234558776857,
0.08952618453865337,0.0029554059461856207,
0.08957605985037406,0.020583565604201257,
0.08962593516209476,0.052965614248179804,
0.08967581047381547,0.029842409425248025,
0.08972568578553616,0.03073872650870539,
0.08977556109725686,0.026132088494973015,
0.08982543640897755,0.012375290679936344,
0.08987531172069825,0.018192085811133116,
0.08992518703241895,0.04023631146380603,
0.08997506234413966,0.030910234757390083,
0.09002493765586035,-0.0010404533846903527,
0.09007481296758105,0.04035331037843102,
0.09012468827930174,0.038053644200130146,
0.09017456359102244,0.0293652208745836,
0.09022443890274315,0.025744684223733386,
0.09027431421446384,0.01776273091487638,
0.09032418952618454,-0.009317368074585091,
0.09037406483790524,0.019061893113008637,
0.09042394014962593,0.018421043438782925,
0.09047381546134663,0.03426242033297247,
0.09052369077306734,0.019550616180523128,
0.09057356608478803,0.03902607888461377,
0.09062344139650873,0.036587773453398836,
0.09067331670822942,0.04047944922227005,
0.09072319201995012,0.016985200818473867,
0.09077306733167083,0.02842632359326911,
0.09082294264339152,0.027982657995046182,
0.09087281795511222,0.002338942984066228,
0.09092269326683292,0.018709143683668165,
0.09097256857855361,0.04016809614282289,
0.09102244389027432,0.007374043942550545,
0.09107231920199502,0.028749636768359545,
0.09112219451371571,0.020107995730010587,
0.09117206982543641,0.020417287149794273,
0.0912219451371571,0.022790971817414605,
0.0912718204488778,0.015749549645449418,
0.09132169576059851,0.015780158321662907,
0.0913715710723192,0.03019069907495868,
0.0914214463840399,0.037179994133430275,
0.0914713216957606,0.03821575056905711,
0.09152119700748129,0.033461438461924564,
0.091571072319202,0.03360272922903158,
0.0916209476309227,0.017138757542261383,
0.09167082294264339,0.020232521456402367,
0.09172069825436409,0.03099407930718895,
0.09177057356608478,0.017955978173409253,
0.09182044887780548,0.018336830105743173,
0.09187032418952619,0.018534483185201223,
0.09192019950124689,0.030449347782381973,
0.09197007481296758,0.0020607827609180757,
0.09201995012468828,0.0238378841550847,
0.09206982543640897,0.0461556975809017,
0.09211970074812968,0.016260231279461346,
0.09216957605985038,0.036794289662151536,
0.09221945137157107,0.04954809347439598,
0.09226932668329177,0.012021505538734682,
0.09231920199501246,0.026397433504938762,
0.09236907730673316,0.0425822400425169,
0.09241895261845387,-0.0010414536683537902,
0.09246882793017457,0.015866523968211622,
0.09251870324189526,0.03811688810614353,
0.09256857855361596,0.013096578485778552,
0.09261845386533665,0.005641732053863816,
0.09266832917705736,0.0388657420625262,
0.09271820448877806,0.025448299528423632,
0.09276807980049875,0.01563697982284549,
0.09281795511221945,0.016896059362616123,
0.09286783042394015,0.026989601050151153,
0.09291770573566084,0.011919303642313908,
0.09296758104738155,0.001744862957902292,
0.09301745635910225,0.02566270159333109,
0.09306733167082294,0.016430742887256676,
0.09311720698254364,0.04245612356702287,
0.09316708229426433,0.006649852012104674,
0.09321695760598504,0.02738871010208347,
0.09326683291770574,0.00944221611685742,
0.09331670822942643,0.029559870277736777,
0.09336658354114713,0.006709676102602013,
0.09341645885286783,0.019267407259681207,
0.09346633416458854,0.0149523365793407,
0.09351620947630923,0.0036875517894339113,
0.09356608478802993,0.013925947530135168,
0.09361596009975062,0.023605432574527893,
0.09366583541147132,0.015783734396165327,
0.09371571072319201,0.010850047079397301,
0.09376558603491272,0.02173314415897869,
0.09381546134663342,0.017473951293266943,
0.09386533665835411,0.022084200660209812,
0.09391521197007481,0.031552107791409816,
0.0939650872817955,0.02370563228762039,
0.09401496259351622,0.020425111449382905,
0.09406483790523691,0.03368927014988074,
0.09411471321695761,0.03249893180921026,
0.0941645885286783,-0.0007053330399737889,
0.094214463840399,0.022984503192194146,
0.0942643391521197,0.015007769216183344,
0.0943142144638404,0.006080426649486508,
0.0943640897755611,0.014498690390808673,
0.0944139650872818,0.02996915965886978,
0.09446384039900249,0.02356984747401842,
0.09451371571072319,0.023746938684995944,
0.0945635910224439,0.022632932106607925,
0.09461346633416459,0.05236404408091064,
0.09466334164588529,-0.007613421535343546,
0.09471321695760598,0.011308813286012463,
0.09476309226932668,-0.010245385135748268,
0.09481296758104737,0.0014851810226206505,
0.09486284289276808,0.020593740277021242,
0.09491271820448878,-0.007007357085796043,
0.09496259351620948,0.02235999769661074,
0.09501246882793017,-0.011570318928167322,
0.09506234413965087,0.017786562968235324,
0.09511221945137158,-0.004679576407465457,
0.09516209476309227,-0.010709874898751253,
0.09521197007481297,0.0016321247110011108,
0.09526184538653366,0.030997315149386553,
0.09531172069825436,-0.011232219139766304,
0.09536159600997507,0.02178111327466705,
0.09541147132169576,-0.01189696115244689,
0.09546134663341646,0.01773314160367028,
0.09551122194513716,0.03569177685130744,
0.09556109725685785,0.019758623933704797,
0.09561097256857855,0.009663473992898311,
0.09566084788029926,-0.004548736507557551,
0.09571072319201995,0.004642501195945421,
0.09576059850374065,-0.011327282450758445,
0.09581047381546134,-0.002326631007986197,
0.09586034912718204,-0.009765911000285806,
0.09591022443890275,0.0033917599257677483,
0.09596009975062345,-0.011408097679286588,
0.09600997506234414,0.009806204531026066,
0.09605985037406484,0.017881980636495057,
0.09610972568578553,-0.014482873042208128,
0.09615960099750623,-0.0063732064940951365,
0.09620947630922694,-0.011013019999027492,
0.09625935162094763,0.03308974423711877,
0.09630922693266833,0.01479488255385069,
0.09635910224438902,-0.005385447517750991,
0.09640897755610972,0.0024651391800913688,
0.09645885286783043,0.01624549505075571,
0.09650872817955113,-0.010359353808144706,
0.09655860349127182,0.02008684033503343,
0.09660847880299252,-0.023184107613133664,
0.09665835411471321,0.009626674460057955,
0.09670822942643391,-0.0029943206508777002,
0.09675810473815462,0.004442934149796412,
0.09680798004987531,0.017937805267801532,
0.09685785536159601,-0.0001672433490533178,
0.0969077306733167,-0.01105769038406992,
0.0969576059850374,0.007274065444320066,
0.09700748129675811,-0.032105846940354996,
0.0970573566084788,0.03476906488085184,
0.0971072319201995,-0.00902170823827962,
0.0971571072319202,-0.0063720991572338796,
0.0972069825436409,0.024025354378140733,
0.09725685785536159,0.016692234739941792,
0.0973067331670823,0.000379825799763916,
0.097356608478803,-0.021515915523033592,
0.09740648379052369,0.00714079720803289,
0.09745635910224439,-0.006869577449152889,
0.09750623441396508,0.009474827935081347,
0.09755610972568579,-0.020653844701714656,
0.09760598503740649,0.0011811955987258062,
0.09765586034912718,0.015931491290693954,
0.09770573566084788,0.043132225947918414,
0.09775561097256857,-0.02524401688646627,
0.09780548628428928,-0.005784410023831767,
0.09785536159600998,-0.01436900985506763,
0.09790523690773068,-0.011938212309405508,
0.09795511221945137,-0.017756877191905274,
0.09800498753117207,-0.014088371114230086,
0.09805486284289276,0.00010218829803762888,
0.09810473815461347,-0.0015119095345296025,
0.09815461346633417,-0.01851890900466018,
0.09820448877805486,0.012952033047779594,
0.09825436408977556,0.002524747572986522,
0.09830423940149625,-0.009780776211337064,
0.09835411471321696,-0.02360020296039208,
0.09840399002493766,-0.012403796134433346,
0.09845386533665836,-0.01870145977386687,
0.09850374064837905,-0.011625888200813856,
0.09855361596009975,-0.03754193198624094,
0.09860349127182044,-0.06141188948282388,
0.09865336658354115,-0.016461646151140243,
0.09870324189526185,0.004906787091300676,
0.09875311720698254,-0.011922376902852281,
0.09880299251870324,-0.0044245713743061845,
0.09885286783042393,-0.016291639347644476,
0.09890274314214464,-0.024909662028852718,
0.09895261845386534,-0.03502008510252785,
0.09900249376558604,0.01065500067107293,
0.09905236907730673,-0.034454855875191176,
0.09910224438902743,-0.029957140838804738,
0.09915211970074812,-0.022366073761922366,
0.09920199501246883,-0.0061844540734567075,
0.09925187032418953,-0.022451497132169006,
0.09930174563591022,0.001946933070173254,
0.09935162094763092,-0.01640248505915317,
0.09940149625935162,-0.029722609771525348,
0.09945137157107233,-0.03350483711850633,
0.09950124688279302,-0.01276065900664473,
0.09955112219451372,-0.03859058201041015,
0.09960099750623441,-0.024493074383753442,
0.09965087281795511,-0.03370853286336295,
0.0997007481296758,-0.01150752310085593,
0.09975062344139651,-0.009268417573548137,
0.09980049875311721,-0.016386917516285897,
0.0998503740648379,0.004676846568491242,
0.0999002493765586,-0.0008007900122171032,
0.0999501246882793,-0.01787199915369875,
0.1,-0.02386939376002498,
0.1000498753117207,-0.027715127170637132,
0.1000997506234414,-0.022030838970972612,
0.10014962593516209,-0.003810523210528924,
0.10019950124688279,-0.0326275287724622,
0.1002493765586035,-0.0392685822000665,
0.1002992518703242,-0.028148375349113526,
0.10034912718204489,-0.007926948085622453,
0.10039900249376559,-0.0200723604752854,
0.10044887780548628,-0.027761602064491936,
0.10049875311720698,-0.017777539151918913,
0.10054862842892769,-0.027784845068108036,
0.10059850374064838,-0.0279130563185462,
0.10064837905236908,-0.02587345806228579,
0.10069825436408977,0.01868551550493051,
0.10074812967581047,-0.0057781295424736406,
0.10079800498753118,-0.021093084674778502,
0.10084788029925187,-0.013500942638253369,
0.10089775561097257,-0.03018511375376049,
0.10094763092269327,-0.00020483288993246307,
0.10099750623441396,-0.004997005252231701,
0.10104738154613466,-0.01363845124262016,
0.10109725685785537,-0.03797660994045143,
0.10114713216957606,-0.008955164600003672,
0.10119700748129676,-0.021935661696801112,
0.10124688279301745,-0.024392103068252447,
0.10129675810473815,-0.0133491393324136,
0.10134663341645886,-0.012430654446092253,
0.10139650872817955,-0.016781771254815576,
0.10144638403990025,-0.02544537571387682,
0.10149625935162095,-0.02905098556516563,
0.10154613466334164,-0.010987236698871954,
0.10159600997506234,-0.0159216357312833,
0.10164588528678305,-0.0060398901880186805,
0.10169576059850374,0.013069383545030627,
0.10174563591022444,0.0009087166631323428,
0.10179551122194513,-0.01291131429389251,
0.10184538653366583,-0.02636964079509332,
0.10189526184538654,-0.023586376664877097,
0.10194513715710724,0.0075196450066964335,
0.10199501246882793,-0.01563605501601148,
0.10204488778054863,0.0322931658671437,
0.10209476309226932,-0.02772354600631644,
0.10214463840399003,-0.0051829924395315015,
0.10219451371571073,-0.020966259414360533,
0.10224438902743142,0.004704931448120482,
0.10229426433915212,0.01073018828923748,
0.10234413965087281,-0.01147493940211576,
0.10239401496259351,-0.014369812986537089,
0.10244389027431422,0.011096291242899528,
0.10249376558603492,0.014588394025057978,
0.10254364089775561,-0.012166598027147743,
0.10259351620947631,-0.030092976908443224,
0.102643391521197,-0.013232044864576097,
0.10269326683291771,-0.005169506312213167,
0.10274314214463841,0.020745819219133037,
0.1027930174563591,-0.0083928936795568,
0.1028428927680798,-0.027667016000656665,
0.1028927680798005,0.005983693142934464,
0.10294264339152119,-0.0033878194395542145,
0.1029925187032419,-0.000375912096804115,
0.1030423940149626,-0.004685204314341739,
0.10309226932668329,-0.01824907945439537,
0.10314214463840399,-0.01780967084897422,
0.10319201995012468,-0.023532460681063627,
0.10324189526184539,-0.011449433326642087,
0.10329177057356609,0.006644865607944997,
0.10334164588528678,0.01961999800810732,
0.10339152119700748,-0.0038175627422021474,
0.10344139650872818,-0.006595201743302507,
0.10349127182044887,-0.009634883631363892,
0.10354114713216958,-0.013016232624494032,
0.10359102244389028,0.005230807605972827,
0.10364089775561097,-0.02548646677281754,
0.10369077306733167,-0.02815942319031593,
0.10374064837905236,-0.015065559997459722,
0.10379052369077307,-0.03038065320578917,
0.10384039900249377,0.00952560391241266,
0.10389027431421446,0.028329498969416583,
0.10394014962593516,-0.00853301344915236,
0.10399002493765586,0.01723773033240042,
0.10403990024937655,0.004395855045731404,
0.10408977556109726,0.009882295545578162,
0.10413965087281796,0.0029139462310332296,
0.10418952618453865,0.019198544035029692,
0.10423940149625935,-0.012730936314514517,
0.10428927680798004,0.005956211563241783,
0.10433915211970075,0.01801582214513567,
0.10438902743142145,-0.027372600020842165,
0.10443890274314215,0.012455108249128531,
0.10448877805486284,0.016133476114863377,
0.10453865336658354,0.00618826348440323,
0.10458852867830425,-0.020161324212140577,
0.10463840399002494,0.0007372718504459488,
0.10468827930174564,0.006204782374454758,
0.10473815461346633,0.002498824588241932,
0.10478802992518703,0.02326992398067291,
0.10483790523690772,0.017580512168957996,
0.10488778054862843,0.011192982682485524,
0.10493765586034913,-0.006421347479935672,
0.10498753117206983,0.05096586901777827,
0.10503740648379052,-0.002577797457290818,
0.10508728179551122,0.0181039394693597,
0.10513715710723193,0.008215123226868317,
0.10518703241895262,-0.01882880358451278,
0.10523690773067332,0.035895551580435545,
0.10528678304239401,-0.0071845490274986745,
0.10533665835411471,0.015047842946065669,
0.1053865336658354,0.009202364398384011,
0.10543640897755611,-0.0011119678102387703,
0.10548628428927681,0.019259358432141903,
0.1055361596009975,0.0006593888604525238,
0.1055860349127182,0.007875755859605817,
0.1056359102244389,0.02337107027048929,
0.10568578553615961,0.03893917814058954,
0.1057356608478803,6.46118577093003e-05,
0.105785536159601,0.02223008464132437,
0.1058354114713217,0.023784807053572797,
0.10588528678304239,0.013557330168280661,
0.10593516209476309,0.015728508666762717,
0.1059850374064838,0.002580454928930838,
0.10603491271820449,0.03284367743768337,
0.10608478802992519,0.05600019018446413,
0.10613466334164588,0.015548883124329966,
0.10618453865336658,-0.0008230171978110788,
0.10623441396508729,0.010201128814973875,
0.10628428927680798,-0.0031131387476261672,
0.10633416458852868,0.013359079992347502,
0.10638403990024937,0.013494003120036319,
0.10643391521197007,0.024134692964678135,
0.10648379052369077,0.007985457388139409,
0.10653366583541148,0.012380416930486074,
0.10658354114713217,0.015450236202712632,
0.10663341645885287,0.03776846411180282,
0.10668329177057356,0.01093223960942345,
0.10673316708229426,0.020968000659533553,
0.10678304239401497,0.003784399412513649,
0.10683291770573566,0.02653041530179894,
0.10688279301745636,0.006804288474960901,
0.10693266832917706,0.012293699510153024,
0.10698254364089775,0.034461217689515405,
0.10703241895261846,0.004520123131047242,
0.10708229426433916,0.012841479764656986,
0.10713216957605985,-0.0015607987765017955,
0.10718204488778055,0.02958195486403321,
0.10723192019950124,0.014780630190816085,
0.10728179551122194,-0.01889226900816477,
0.10733167082294265,0.044132105846682756,
0.10738154613466334,0.014931113944738048,
0.10743142144638404,0.03780854546508187,
0.10748129675810474,0.026900607492009787,
0.10753117206982543,-0.008812349006513925,
0.10758104738154614,0.016461813234662052,
0.10763092269326684,0.010524880976236354,
0.10768079800498753,0.033919072409790293,
0.10773067331670823,0.013447418794635103,
0.10778054862842892,0.013211497883151877,
0.10783042394014962,0.011795339440462953,
0.10788029925187033,0.017247622186692558,
0.10793017456359102,0.012929561221994896,
0.10798004987531172,0.009875575410861788,
0.10802992518703242,0.017366441507931422,
0.10807980049875311,0.0024752213474158596,
0.10812967581047382,0.039073317169403494,
0.10817955112219452,0.03050741524185459,
0.10822942643391521,0.044589932507915486,
0.10827930174563591,0.011325361958946947,
0.1083291770573566,0.018150571431094414,
0.1083790523690773,-0.0064334295617973145,
0.10842892768079801,0.02754904388986164,
0.1084788029925187,0.023266196738221737,
0.1085286783042394,0.010192532582328164,
0.1085785536159601,0.021231208603021218,
0.10862842892768079,0.03845835224447845,
0.1086783042394015,0.011469740778585823,
0.1087281795511222,0.016298909986335573,
0.1087780548628429,0.025695579701668914,
0.10882793017456359,0.05271562040182279,
0.10887780548628428,0.03378624074414055,
0.108927680798005,0.01605805093824432,
0.10897755610972569,0.035672044010897914,
0.10902743142144639,0.02767910401281538,
0.10907730673316708,0.02377524677694368,
0.10912718204488778,0.04466030715098168,
0.10917705735660847,0.017325602075214063,
0.10922693266832918,0.05649374711747849,
0.10927680798004988,0.021484519986392267,
0.10932668329177057,0.03909799661761158,
0.10937655860349127,0.03667725646436612,
0.10942643391521197,0.03233727465333021,
0.10947630922693267,0.0468437165147834,
0.10952618453865337,0.034953490907585545,
0.10957605985037407,0.005228376231445186,
0.10962593516209476,0.03821187401194397,
0.10967581047381546,0.02242629408149398,
0.10972568578553615,0.02958718333098375,
0.10977556109725686,0.014111009425015229,
0.10982543640897756,0.04110905648680719,
0.10987531172069825,0.023057181127974828,
0.10992518703241895,0.029638895892923282,
0.10997506234413965,0.017568088882530263,
0.11002493765586036,0.010459592467575683,
0.11007481296758105,0.024530426507426276,
0.11012468827930175,0.027271013056782593,
0.11017456359102244,0.025412814706714956,
0.11022443890274314,0.035013619784857265,
0.11027431421446383,0.03758922485876054,
0.11032418952618454,0.054133247309476155,
0.11037406483790524,0.015027124345642441,
0.11042394014962593,0.011656260022329463,
0.11047381546134663,0.04554098195118332,
0.11052369077306733,0.03454902703697688,
0.11057356608478804,0.04273182251543651,
0.11062344139650873,0.04001090749049373,
0.11067331670822943,0.049786727690042,
0.11072319201995012,0.017475991292293915,
0.11077306733167082,0.022999620938957625,
0.11082294264339151,0.014362017292265397,
0.11087281795511222,0.009547036181269102,
0.11092269326683292,0.011143216272145769,
0.11097256857855362,0.022599161153201854,
0.11102244389027431,0.049286523226155524,
0.111072319201995,0.04279988818467262,
0.11112219451371572,0.0459347799458526,
0.11117206982543641,0.042167769361935906,
0.11122194513715711,0.006396004103539302,
0.1112718204488778,0.043635418841014836,
0.1113216957605985,0.014805959099314743,
0.11137157107231921,0.009097025216987013,
0.1114214463840399,0.029168489114015102,
0.1114713216957606,0.06123872005652602,
0.1115211970074813,0.029764152366223075,
0.11157107231920199,0.029018847310661594,
0.11162094763092269,0.03941497864445603,
0.1116708229426434,0.0355891730325783,
0.11172069825436409,0.03118027250610059,
0.11177057356608479,0.05859019440007668,
0.11182044887780548,0.017892832118069038,
0.11187032418952618,0.03245519944545853,
0.11192019950124689,0.03393605447873627,
0.11197007481296758,0.03050606192822204,
0.11201995012468828,0.02795620272359244,
0.11206982543640898,0.042691828843275825,
0.11211970074812967,0.008843982260101114,
0.11216957605985037,0.027271753537874154,
0.11221945137157108,0.007934784627619262,
0.11226932668329177,0.02046212434384946,
0.11231920199501247,0.027516471330576272,
0.11236907730673316,0.011885018265785221,
0.11241895261845386,0.005842364630792459,
0.11246882793017457,0.0270590498796681,
0.11251870324189527,0.01825473713687738,
0.11256857855361596,0.0173042238930857,
0.11261845386533666,0.03744883269846091,
0.11266832917705735,0.030526146866040514,
0.11271820448877805,0.02075772717889396,
0.11276807980049876,0.0038107518645821847,
0.11281795511221945,0.04420171539399238,
0.11286783042394015,0.02829026482166518,
0.11291770573566084,0.026458067149362205,
0.11296758104738154,0.006326544125014953,
0.11301745635910225,0.02054689256261309,
0.11306733167082295,-0.008061112840823698,
0.11311720698254364,0.009365149969961907,
0.11316708229426434,-0.004397752486602874,
0.11321695760598503,0.02807822137994361,
0.11326683291770574,0.00800859365599097,
0.11331670822942644,0.027495396248532734,
0.11336658354114713,0.028657113799567667,
0.11341645885286783,0.020410058749141778,
0.11346633416458853,0.019893041152995478,
0.11351620947630922,0.028607887804491854,
0.11356608478802993,0.019737891557682467,
0.11361596009975063,0.031532206057258184,
0.11366583541147132,0.014375625911554285,
0.11371571072319202,0.038119143981169654,
0.11376558603491271,0.01696385380128748,
0.11381546134663342,0.04749238473907463,
0.11386533665835412,0.006619141493463971,
0.11391521197007481,0.015361806711366425,
0.11396508728179551,0.010949765205196079,
0.1140149625935162,-0.008309230625406658,
0.1140648379052369,0.018085745291742863,
0.11411471321695761,0.02463927906083455,
0.1141645885286783,0.013354533926321605,
0.114214463840399,0.04671862582723214,
0.1142643391521197,0.033991955538780774,
0.1143142144638404,0.07395359573324572,
0.1143640897755611,0.006506815307564933,
0.1144139650872818,-0.008715141657473044,
0.1144638403990025,0.020376121237837785,
0.11451371571072319,0.0047195106397877,
0.11456359102244389,0.033788230233857096,
0.11461346633416458,-0.013879000547612486,
0.11466334164588529,0.0035191719827600224,
0.11471321695760599,0.01686327138354389,
0.11476309226932668,-0.02343848126134325,
0.11481296758104738,0.014303294074643959,
0.11486284289276807,0.03790597285140274,
0.11491271820448878,0.008947063588887874,
0.11496259351620948,0.024831057441090855,
0.11501246882793018,0.016692904350100814,
0.11506234413965087,-0.008865082344479852,
0.11511221945137157,0.025902827485382834,
0.11516209476309226,0.009404790141596599,
0.11521197007481297,0.026717802482792007,
0.11526184538653367,0.01849073871284153,
0.11531172069825436,0.01620644196895433,
0.11536159600997506,0.0037323472906537532,
0.11541147132169575,0.019684556914882974,
0.11546134663341646,0.04136648595486781,
0.11551122194513716,-0.0023323325818697237,
0.11556109725685786,0.02297611533022373,
0.11561097256857855,-0.005310109445738013,
0.11566084788029925,0.0033376304887891154,
0.11571072319201996,0.0052283688453061685,
0.11576059850374065,-0.023184952969988855,
0.11581047381546135,0.00480271624990645,
0.11586034912718204,-0.007604322784332283,
0.11591022443890274,0.02383089751399855,
0.11596009975062344,0.01894154576503707,
0.11600997506234415,-0.010941326963114346,
0.11605985037406484,0.008533656790760978,
0.11610972568578554,0.06665818765092246,
0.11615960099750623,-0.00371112217550806,
0.11620947630922693,-0.018878023558317466,
0.11625935162094764,0.02895871216767996,
0.11630922693266833,0.010694368795354615,
0.11635910224438903,0.010558055210248538,
0.11640897755610972,0.02218749735068369,
0.11645885286783042,-0.022873217150914747,
0.11650872817955112,-0.014083774726156498,
0.11655860349127183,-0.010918655186366744,
0.11660847880299252,-0.018904228980271814,
0.11665835411471322,-0.00874910922580625,
0.11670822942643391,0.010997274506875127,
0.11675810473815461,-0.014311618896603042,
0.11680798004987532,0.0008334306532510394,
0.11685785536159601,0.0026227534648407573,
0.11690773067331671,0.009100716318576745,
0.1169576059850374,-0.007202374938511068,
0.1170074812967581,0.012521454731569013,
0.1170573566084788,0.02156152797197065,
0.1171072319201995,-0.0015835669835897255,
0.1171571072319202,-0.012675984085824966,
0.1172069825436409,-0.026941873033746518,
0.1172568578553616,0.01349088075255899,
0.11730673316708229,0.011552988523843183,
0.117356608478803,-0.014957409142090577,
0.1174064837905237,0.014366443231729576,
0.11745635910224439,0.01226914031627196,
0.11750623441396509,0.023577481624786834,
0.11755610972568578,0.010256002207265748,
0.11760598503740648,-0.0024613368403316425,
0.11765586034912719,-0.021447773277816787,
0.11770573566084788,-0.018771456809117164,
0.11775561097256858,-0.028176014887536367,
0.11780548628428927,0.02629755069428947,
0.11785536159600997,0.017083610091930948,
0.11790523690773068,0.007852978592532754,
0.11795511221945137,0.006712696414771013,
0.11800498753117207,-0.022941186118777095,
0.11805486284289277,0.011187574184102402,
0.11810473815461346,-0.023169850840215583,
0.11815461346633417,0.003928609682607996,
0.11820448877805487,-0.004731116951086122,
0.11825436408977556,-0.011982220664053893,
0.11830423940149626,0.0030880228489491516,
0.11835411471321695,0.002633494251862276,
0.11840399002493765,0.00025289706084732477,
0.11845386533665836,-0.017449490171086282,
0.11850374064837906,-0.013430439376156803,
0.11855361596009975,-0.015173226935915603,
0.11860349127182045,-0.0029054252436918147,
0.11865336658354114,-0.007524180150363529,
0.11870324189526185,-0.008981593152847482,
0.11875311720698255,0.00021388622515196298,
0.11880299251870324,-0.0024243711878232594,
0.11885286783042394,-0.00787247569905236,
0.11890274314214463,-0.004394945755367306,
0.11895261845386533,-0.017314824475307737,
0.11900249376558604,0.016255424459071625,
0.11905236907730674,-0.013525896541013717,
0.11910224438902743,-0.0018256362439552695,
0.11915211970074813,-0.003329402211006114,
0.11920199501246882,-0.010749254415884674,
0.11925187032418953,-0.005255722468481865,
0.11930174563591023,-0.015675650635392592,
0.11935162094763092,-0.033302139383692975,
0.11940149625935162,-0.022797894840556478,
0.11945137157107232,-0.01470930882259246,
0.11950124688279301,-0.011975796108657611,
0.11955112219451372,-0.030740049957712238,
0.11960099750623442,0.0016275648634558743,
0.11965087281795511,-0.001740380199793631,
0.11970074812967581,-0.007309883028896487,
0.1197506234413965,-0.011176703680291408,
0.11980049875311721,-0.023864162761897754,
0.11985037406483791,0.01092717007675102,
0.1199002493765586,-0.0009039258903294784,
0.1199501246882793,-0.0031277641156878524,
0.12,-0.016760465186506833,
0.1200498753117207,-0.008137377882047773,
0.1200997506234414,-0.020732494777363657,
0.1201496259351621,0.0004944327664527497,
0.12019950124688279,-0.03149877911252711,
0.12024937655860349,0.0011935805491213296,
0.12029925187032418,-0.028360913301342158,
0.1203491271820449,0.012753321734257864,
0.12039900249376559,-0.053772732835758286,
0.12044887780548628,-0.0038404966841659267,
0.12049875311720698,-0.02660260694545139,
0.12054862842892768,-0.013950656523360914,
0.12059850374064839,0.0006197091034584861,
0.12064837905236908,-0.019422227121843057,
0.12069825436408978,-0.0240773194435736,
0.12074812967581047,0.010199031029807045,
0.12079800498753117,-0.00264910441189563,
0.12084788029925186,-0.002662166322920134,
0.12089775561097257,-0.00702344028697472,
0.12094763092269327,-0.014860310587193438,
0.12099750623441397,-0.014005170973246519,
0.12104738154613466,-0.024665499955354525,
0.12109725685785536,0.014078955557401825,
0.12114713216957607,0.001138155213256947,
0.12119700748129676,-0.020675260754229884,
0.12124688279301746,-0.027130186990564617,
0.12129675810473815,-0.013956937639133356,
0.12134663341645885,-0.007531903484155479,
0.12139650872817954,-0.010651158580997466,
0.12144638403990025,-0.009317901482594948,
0.12149625935162095,0.0056381814928846575,
0.12154613466334165,-0.018472326508822603,
0.12159600997506234,-0.011964883285382488,
0.12164588528678304,-0.0027919307765424273,
0.12169576059850375,-0.02819411241475296,
0.12174563591022444,-0.019391373381985384,
0.12179551122194514,0.004915474163261666,
0.12184538653366583,0.01444253922028569,
0.12189526184538653,-0.030609796364219295,
0.12194513715710723,0.01682205070656588,
0.12199501246882793,-0.0007561969126998669,
0.12204488778054863,0.008760103881248028,
0.12209476309226933,0.027006024955429055,
0.12214463840399002,0.023541641961584023,
0.12219451371571072,-0.030432327282767714,
0.12224438902743143,-0.012228079782380417,
0.12229426433915212,-0.00572459741188645,
0.12234413965087282,0.023323152534807597,
0.12239401496259351,-0.012133502595841209,
0.12244389027431421,-0.006719789874800079,
0.12249376558603492,0.016512520637768167,
0.12254364089775562,-0.01831978235343351,
0.12259351620947631,-0.013179437331407435,
0.122643391521197,-0.012173326936851449,
0.1226932668329177,-0.01413990960717607,
0.1227431421446384,0.013629462116889318,
0.12279301745635911,-0.014749569001069641,
0.1228428927680798,-0.003308331908967105,
0.1228927680798005,-0.010945671606743175,
0.1229426433915212,0.027162159389881924,
0.12299251870324189,-0.007337951635136033,
0.1230423940149626,-0.010738518425582221,
0.1230922693266833,0.0031375341022059364,
0.12314214463840399,0.021419837716087492,
0.12319201995012469,0.00988033874262532,
0.12324189526184538,-0.030525593547028808,
0.12329177057356608,0.005410545337333176,
0.12334164588528679,-0.012082151884548002,
0.12339152119700748,-0.007149710056918037,
0.12344139650872818,0.03596820507854722,
0.12349127182044888,-0.01615658500168169,
0.12354114713216957,-0.001485015602274432,
0.12359102244389028,-0.004240332129138895,
0.12364089775561098,0.017280092340625365,
0.12369077306733167,0.030550455771174906,
0.12374064837905237,-0.0008391170008572251,
0.12379052369077306,0.0113647058532858,
0.12384039900249376,0.015382861585402278,
0.12389027431421447,-0.006266202012671277,
0.12394014962593516,-0.012324872924356862,
0.12399002493765586,0.012186883318346994,
0.12403990024937656,-0.0030652145764144623,
0.12408977556109725,-0.0035841481685465037,
0.12413965087281796,0.026091849914418243,
0.12418952618453866,-0.016915855679692945,
0.12423940149625935,-0.0042786808833339,
0.12428927680798005,0.0015316636039072286,
0.12433915211970074,0.005737429323766918,
0.12438902743142144,0.024276015291381875,
0.12443890274314215,-0.03673878494470433,
0.12448877805486284,-0.004590859413414201,
0.12453865336658354,-0.004795976502653507,
0.12458852867830424,0.012560793566815921,
0.12463840399002493,-0.004432936406502541,
0.12468827930174564,0.010557852190407068,
0.12473815461346634,-0.005827887296692638,
0.12478802992518703,0.00579079700497634,
0.12483790523690773,0.004812544046980239,
0.12488778054862842,-0.006085999655542377,
0.12493765586034913,0.0316222446648409,
0.12498753117206983,0.0408069120564131,
0.12503740648379053,0.0225233382210891,
0.12508728179551123,0.010660323802558644,
0.12513715710723192,-0.0007568456963983538,
0.12518703241895263,0.024308686837703895,
0.1252369077306733,0.0028542702964608722,
0.12528678304239402,0.019073606770671665,
0.1253366583541147,0.0023081698243095456,
0.1253865336658354,0.0062213197285033725,
0.12543640897755612,0.007276311435184346,
0.1254862842892768,-0.004770272369717223,
0.1255361596009975,0.029289689942824083,
0.1255860349127182,0.0021500803425897434,
0.1256359102244389,0.0020325934578857476,
0.1256857855361596,-0.017553472916256134,
0.1257356608478803,0.005433386189700067,
0.125785536159601,0.04824862721355305,
0.12583541147132168,-0.002640237897896601,
0.1258852867830424,0.015873079227567054,
0.1259351620947631,-0.003256678015358734,
0.12598503740648379,-0.03538503560568341,
0.1260349127182045,0.013487556559545233,
0.12608478802992518,0.01861877277239206,
0.1261346633416459,0.011254863664497145,
0.1261845386533666,0.006822842385405561,
0.12623441396508728,0.01858249432303722,
0.126284289276808,0.015378666905230503,
0.12633416458852867,0.026734846997582176,
0.12638403990024938,0.007183381087087489,
0.1264339152119701,0.017712629067430197,
0.12648379052369077,0.025143429134079114,
0.12653366583541148,0.019302123687477822,
0.12658354114713216,0.023753422817233142,
0.12663341645885287,0.01045070285789141,
0.12668329177057355,0.021921641657826056,
0.12673316708229426,0.010084227451223345,
0.12678304239401497,0.03484759919005124,
0.12683291770573565,0.01649316706432736,
0.12688279301745636,0.008444137781011928,
0.12693266832917705,0.006767428356195317,
0.12698254364089775,0.026460735818032294,
0.12703241895261846,0.017141957603588436,
0.12708229426433915,0.03109571657770383,
0.12713216957605986,0.00904903328789638,
0.12718204488778054,0.011936656832333048,
0.12723192019950125,0.005982691576799877,
0.12728179551122196,0.008887793093370889,
0.12733167082294264,0.020359596838129917,
0.12738154613466335,0.01783493446961059,
0.12743142144638403,0.015684154037763458,
0.12748129675810474,-0.005362880599949795,
0.12753117206982545,0.014947974695579402,
0.12758104738154613,0.020965836834673714,
0.12763092269326684,0.02027932217279723,
0.12768079800498752,0.01836599951500654,
0.12773067331670823,0.03412125693603546,
0.1277805486284289,0.03656408264784084,
0.12783042394014962,0.05880924215371712,
0.12788029925187033,0.043727950716030535,
0.12793017456359101,0.007102227560254585,
0.12798004987531172,0.015698746112280393,
0.1280299251870324,0.023231087430943837,
0.12807980049875312,0.00993180203052824,
0.12812967581047383,0.05015007030032244,
0.1281795511221945,0.018382043328210775,
0.12822942643391522,0.020880001346348417,
0.1282793017456359,-0.004069599750501085,
0.1283291770573566,-0.002355040545609973,
0.12837905236907732,0.04213533442852891,
0.128428927680798,0.029792809419802127,
0.1284788029925187,0.005041879124030445,
0.1285286783042394,0.008250817793119855,
0.1285785536159601,0.025960704915810824,
0.1286284289276808,0.013054720106327878,
0.1286783042394015,0.009266613415789219,
0.1287281795511222,0.03974374729294925,
0.12877805486284288,0.013195084690322862,
0.1288279301745636,0.012311399485574054,
0.1288778054862843,0.05146917990758248,
0.12892768079800498,0.027131837808531893,
0.1289775561097257,0.04708273653512775,
0.12902743142144638,0.039481167241967825,
0.12907730673316709,0.05224939678391237,
0.12912718204488777,0.03839499703622816,
0.12917705735660848,0.00789916948199497,
0.1292269326683292,0.021076544583536118,
0.12927680798004987,0.027245868759589488,
0.12932668329177058,0.014360992167963833,
0.12937655860349126,0.0357037386425931,
0.12942643391521197,-0.0075023161916235315,
0.12947630922693268,0.06070792319041486,
0.12952618453865336,0.016980720106586657,
0.12957605985037407,0.043030845477162065,
0.12962593516209475,0.02164933311996338,
0.12967581047381546,0.017423542303695715,
0.12972568578553617,0.022535208157266378,
0.12977556109725685,0.02895469061480902,
0.12982543640897756,0.018262891172013074,
0.12987531172069824,0.01747213505177874,
0.12992518703241895,0.03519311458627975,
0.12997506234413966,0.008357819513794346,
0.13002493765586035,0.01142450594226711,
0.13007481296758105,0.019018410570822538,
0.13012468827930174,0.04916764393244617,
0.13017456359102245,0.027842582912747334,
0.13022443890274316,0.033474255064903556,
0.13027431421446384,0.03356664428387368,
0.13032418952618455,0.03452474467830563,
0.13037406483790523,0.01891557189683861,
0.13042394014962594,0.035211456325803706,
0.13047381546134662,0.040649446543573345,
0.13052369077306733,0.05463388260428512,
0.13057356608478804,0.0184415392403218,
0.13062344139650872,0.007968775283577516,
0.13067331670822943,0.05131786653778881,
0.1307231920199501,0.0537056899959473,
0.13077306733167082,0.0284778789712593,
0.13082294264339153,0.051216640642246965,
0.13087281795511221,0.0032142793935474694,
0.13092269326683292,0.0436836335489032,
0.1309725685785536,0.029406347523944904,
0.13102244389027431,0.05503479505281124,
0.13107231920199502,0.03640369544853615,
0.1311221945137157,0.010249880127293352,
0.13117206982543642,0.018166631461875436,
0.1312219451371571,0.02061271448733868,
0.1312718204488778,0.03269447043994732,
0.13132169576059852,0.03346752574666921,
0.1313715710723192,0.042871849612335075,
0.1314214463840399,0.021775057318314396,
0.1314713216957606,0.01910533985416984,
0.1315211970074813,0.0450827563017128,
0.13157107231920198,0.020023444817321132,
0.1316209476309227,0.04982377000319561,
0.1316708229426434,0.05093919235658386,
0.13172069825436408,0.04198054358228492,
0.1317705735660848,0.02917604442300244,
0.13182044887780547,0.03459450258549911,
0.13187032418952618,0.02696219307604877,
0.1319201995012469,0.03077908738554993,
0.13197007481296757,0.023300465506967395,
0.13201995012468828,0.031641726474630545,
0.13206982543640897,0.027521489970926367,
0.13211970074812968,0.013550786078182936,
0.13216957605985039,0.03338323273318618,
0.13221945137157107,0.013598711357200971,
0.13226932668329178,0.03902367308077037,
0.13231920199501246,0.06925571809535949,
0.13236907730673317,0.004361523763380993,
0.13241895261845388,0.023236371339171932,
0.13246882793017456,0.02614675480319543,
0.13251870324189527,0.020500907225774734,
0.13256857855361595,0.022407338252981957,
0.13261845386533666,0.022636673318377713,
0.13266832917705737,0.00815303184911052,
0.13271820448877805,0.02429355732333487,
0.13276807980049876,0.032244491348022465,
0.13281795511221944,0.010680473777016395,
0.13286783042394015,0.04136812935326119,
0.13291770573566083,0.018662962037369682,
0.13296758104738154,0.028583054360938477,
0.13301745635910225,0.018569881237574516,
0.13306733167082294,0.02261758991432187,
0.13311720698254365,0.020734769594438776,
0.13316708229426433,0.021067861134573488,
0.13321695760598504,0.03220733753564034,
0.13326683291770575,0.02653067229082834,
0.13331670822942643,0.03326338412681672,
0.13336658354114714,0.03545458896671134,
0.13341645885286782,0.008713270012535794,
0.13346633416458853,0.025471889604846455,
0.13351620947630924,0.006795220863019764,
0.13356608478802992,0.04680328481921718,
0.13361596009975063,0.020323984476223623,
0.1336658354114713,0.014342602508049317,
0.13371571072319202,0.02529381970516322,
0.13376558603491273,0.011000594636712697,
0.1338154613466334,0.04551715061854324,
0.13386533665835412,0.03459191313752733,
0.1339152119700748,0.033327702863124184,
0.13396508728179551,0.041256565773564215,
0.1340149625935162,0.04063172694169945,
0.1340648379052369,-0.005922593371090214,
0.13411471321695762,0.006632867593002327,
0.1341645885286783,0.027091489928501022,
0.134214463840399,0.007950823932326776,
0.1342643391521197,0.027241716966913368,
0.1343142144638404,0.007080124780661983,
0.1343640897755611,0.027250213770096246,
0.1344139650872818,0.012237174194303313,
0.1344638403990025,0.02175968491188515,
0.13451371571072318,0.019662095975485464,
0.1345635910224439,-0.0058437913889164105,
0.1346134663341646,0.02333932598286155,
0.13466334164588528,0.018234889412864334,
0.134713216957606,0.002209283640074831,
0.13476309226932667,0.03392914221867824,
0.13481296758104738,0.029341509830770662,
0.1348628428927681,0.012086474292518712,
0.13491271820448877,0.005463758307408038,
0.13496259351620948,0.02501557741241544,
0.13501246882793017,0.044971599907220015,
0.13506234413965088,0.0140575469143317,
0.13511221945137158,0.01413417157671256,
0.13516209476309227,0.04195262455633373,
0.13521197007481298,-0.006539050520932996,
0.13526184538653366,-0.019945843260283598,
0.13531172069825437,0.020722464332150525,
0.13536159600997505,-0.0011337550221427236,
0.13541147132169576,-0.005787181120671234,
0.13546134663341647,0.011847443840314751,
0.13551122194513715,0.02615502537688915,
0.13556109725685786,0.02683031992007228,
0.13561097256857854,0.022455584164204304,
0.13566084788029925,0.008271347538379784,
0.13571072319201996,0.026120325708345347,
0.13576059850374064,0.0007487948849827161,
0.13581047381546135,-0.0017981467944768788,
0.13586034912718203,-0.017639248926755984,
0.13591022443890274,0.012501858495364702,
0.13596009975062345,0.0073720467506277615,
0.13600997506234414,0.00410410432826843,
0.13605985037406484,0.002249097761005594,
0.13610972568578553,0.005945445411042182,
0.13615960099750624,-0.014099280021715425,
0.13620947630922695,-0.031504423752350894,
0.13625935162094763,0.01757487270989791,
0.13630922693266834,0.007208571449069926,
0.13635910224438902,-0.0262119414857055,
0.13640897755610973,-0.010949834652469657,
0.1364588528678304,0.012347579751411836,
0.13650872817955112,0.016883627052994225,
0.13655860349127183,0.004032379080707926,
0.1366084788029925,-0.006756864742618726,
0.13665835411471322,-0.01211274655212855,
0.1367082294264339,0.006569402679943941,
0.1367581047381546,-0.006521249561731848,
0.13680798004987532,-0.021141901603093365,
0.136857855361596,-0.004454180430207663,
0.1369077306733167,0.02960777380617724,
0.1369576059850374,0.006227712178456861,
0.1370074812967581,0.005786854972424093,
0.13705735660847881,0.013721145346763768,
0.1371072319201995,0.0024817951428744416,
0.1371571072319202,-0.019191821816698054,
0.1372069825436409,-0.009772113565899226,
0.1372568578553616,0.004934496650838394,
0.1373067331670823,-0.0029998794198603067,
0.137356608478803,0.0011775003933203487,
0.1374064837905237,-0.01945240623186382,
0.13745635910224438,0.006232443809937141,
0.1375062344139651,-0.01806743190662251,
0.1375561097256858,0.0028335877924275284,
0.13760598503740648,-0.03169405577122515,
0.1376558603491272,-0.010519525769397232,
0.13770573566084787,-0.0242152389494093,
0.13775561097256858,0.012157014354337164,
0.13780548628428926,0.0022562537168428175,
0.13785536159600997,-0.0068899630699089,
0.13790523690773068,-0.014049960159428325,
0.13795511221945136,-0.004236521219929051,
0.13800498753117207,0.0012501699702311088,
0.13805486284289276,-0.007604903399629624,
0.13810473815461347,0.0042429745400399226,
0.13815461346633418,0.001914822974284365,
0.13820448877805486,-0.010419035771201068,
0.13825436408977557,-0.00478703836703964,
0.13830423940149625,-0.01705220305691056,
0.13835411471321696,0.015291044772749517,
0.13840399002493767,-0.003936581527136775,
0.13845386533665835,0.010727200680432767,
0.13850374064837906,-0.00428250974811378,
0.13855361596009974,-0.00022705559842661673,
0.13860349127182045,-0.011231578441161235,
0.13865336658354116,-0.01953206083230781,
0.13870324189526184,0.002946838395744847,
0.13875311720698255,-0.0025679769208872627,
0.13880299251870323,-0.013690442942227186,
0.13885286783042394,-0.020604363006870404,
0.13890274314214462,-0.019875063295083907,
0.13895261845386533,-0.00209703748466922,
0.13900249376558604,0.005282383435512249,
0.13905236907730673,0.010598814759705068,
0.13910224438902744,0.008892628168400972,
0.13915211970074812,-0.015036218179010592,
0.13920199501246883,0.006958239453640186,
0.13925187032418954,-0.025288302876567102,
0.13930174563591022,-0.014257002326915246,
0.13935162094763093,-0.01608175644253195,
0.1394014962593516,-0.020149945790660432,
0.13945137157107232,0.01659220427434567,
0.13950124688279303,0.009940388529026808,
0.1395511221945137,0.03082567066054656,
0.13960099750623442,0.007984940524849906,
0.1396508728179551,0.01832882544702635,
0.1397007481296758,-0.02231865474756036,
0.13975062344139652,0.012733661078152932,
0.1398004987531172,-0.0019212148451063678,
0.1398503740648379,0.011661803484195212,
0.1399002493765586,-0.00199477116543944,
0.1399501246882793,-0.0008995427973229244,
0.14,-0.006227715831430924,
0.1400498753117207,-0.0056243853847432294,
0.1400997506234414,-0.0065938221000496535,
0.1401496259351621,-0.0029797952386139085,
0.1401995012468828,0.0002443039477688508,
0.14024937655860348,-0.007593491560545288,
0.1402992518703242,-0.013743947731085348,
0.1403491271820449,-0.012374880302132607,
0.14039900249376558,-0.0040085780392317485,
0.1404488778054863,0.009655718415541041,
0.14049875311720697,-0.006621996255785362,
0.14054862842892768,-0.034735216401334784,
0.1405985037406484,0.002045612836332828,
0.14064837905236907,-0.03644013642135434,
0.14069825436408978,-0.0661145183148892,
0.14074812967581046,-0.014789396675352744,
0.14079800498753117,-0.01990021982517722,
0.14084788029925188,-0.007387072674244646,
0.14089775561097256,-0.007511391510318107,
0.14094763092269327,0.009398708176641702,
0.14099750623441396,0.015217431898628286,
0.14104738154613466,-0.019321536787172917,
0.14109725685785537,0.008036755971489081,
0.14114713216957606,0.004951362008516123,
0.14119700748129677,-0.005105805311446394,
0.14124688279301745,0.0184879237731591,
0.14129675810473816,-0.0346367777083949,
0.14134663341645887,-0.023823568004713573,
0.14139650872817955,-0.009475930435000673,
