time,amplitude,label
0.0,0.016517163462728468,
4.987531172069826e-05,0.008547183885121415,
9.975062344139652e-05,0.017571090901836735,
0.00014962593516209475,-0.003764473661865898,
0.00019950124688279303,-0.012387074789251962,
0.00024937655860349125,0.0071758138903627875,
0.0002992518703241895,-0.007835673992471823,
0.00034912718204488776,0.020917903520053696,
0.00039900249376558606,0.005914184942614564,
0.0004488778054862843,0.0034760128838260303,
0.0004987531172069825,0.014350964586599815,
0.0005486284289276808,0.007498236478496719,
0.000598503740648379,-0.003241707511207774,
0.0006483790523690773,-0.019957732699751946,
0.0006982543640897755,-0.007486531800246951,
0.0007481296758104738,0.03045910405877419,
0.0007980049875311721,0.0053534387636852785,
0.0008478802992518703,0.026383605948050157,
0.0008977556109725686,-0.02023305636675579,
0.0009476309226932668,0.009072984182293131,
0.000997506234413965,0.011283454498736533,
0.0010473815461346633,0.0217185160185458,
0.0010972568578553616,0.022870932949309537,
0.00114713216957606,0.02444048909389635,
0.001197007481296758,-0.013021690326355433,
0.0012468827930174563,0.012935741539330279,
0.0012967581047381546,0.010073673440189902,
0.001346633416458853,0.002343871469228157,
0.001396508728179551,0.014283911615318244,
0.0014463840399002493,0.02167537405233274,
0.0014962593516209476,0.03714533071209972,
0.001546134663341646,0.04358477008521858,
0.0015960099750623442,0.03436422556207383,
0.0016458852867830423,0.04637222328781067,
0.0016957605985037406,-0.011955243436900215,
0.001745635910224439,0.01734749677008756,
0.0017955112219451373,0.007520340033022401,
0.0018453865336658353,0.01662946260404701,
0.0018952618453865336,0.004588890426434783,
0.001945137157107232,0.02181381250014355,
0.00199501246882793,0.02889622499048108,
0.0020448877805486283,0.03927110326880488,
0.0020947630922693266,-0.006897676510279487,
0.002144638403990025,0.019746811104980173,
0.0021945137157107233,0.018531822358379243,
0.0022443890274314216,0.0010457712699451956,
0.00229426433915212,0.01411787451600735,
0.0023441396508728177,-0.00044653492173669235,
0.002394014962593516,0.018837349301541975,
0.0024438902743142144,0.02395624582414927,
0.0024937655860349127,0.005045633903942713,
0.002543640897755611,0.01981452384807019,
0.0025935162094763093,0.011692343937302768,
0.0026433915211970076,0.010983425347916383,
0.002693266832917706,0.04145392333334995,
0.002743142144638404,0.01319433356396037,
0.002793017456359102,0.03461663214191453,
0.0028428927680798004,0.014226474843361904,
0.0028927680798004987,0.05649325713404624,
0.002942643391521197,-0.0031817346257384596,
0.0029925187032418953,0.024568098353579145,
0.0030423940149625936,0.0288152142098931,
0.003092269326683292,0.04434305016854991,
0.00314214463840399,-0.014036705768204198,
0.0031920199501246885,0.046842281998545385,
0.0032418952618453864,0.005331634307448487,
0.0032917705735660847,0.017598790515393828,
0.003341645885286783,0.013634903376909169,
0.0033915211970074813,0.001129088253507736,
0.0034413965087281796,0.01997536941571265,
0.003491271820448878,0.013475173392841534,
0.003541147132169576,0.0028718355321793905,
0.0035910224438902745,0.003419142144191055,
0.0036408977556109724,0.012104709836996427,
0.0036907730673316707,0.017972035915443337,
0.003740648379052369,0.019355056934438186,
0.0037905236907730673,0.034800750392118183,
0.0038403990024937656,0.04003627342582137,
0.003890274314214464,-0.006750425279763359,
0.003940149625935162,0.014695540626277563,
0.00399002493765586,0.004830767343719089,
0.004039900249376558,0.020231385192284176,
0.004089775561097257,0.020265488269404455,
0.004139650872817955,-0.023438882685574137,
0.004189526184538653,0.02560673794866435,
0.004239401496259352,0.015025354829144215,
0.00428927680798005,0.02389360590631609,
0.004339152119700748,0.029168645612443332,
0.0043890274314214465,0.014903818846640451,
0.004438902743142145,0.05175184501574481,
0.004488778054862843,0.03003796004664114,
0.004538653366583541,0.034108458561544076,
0.00458852867830424,0.02093290171777065,
0.004638403990024938,0.030134627380210208,
0.0046882793017456355,0.01626422250177221,
0.004738154613466334,0.020890544227930095,
0.004788029925187032,0.0031658837311066,
0.00483790523690773,0.029444788799479468,
0.004887780548628429,0.0033975170268251125,
0.004937655860349127,0.007788509170077959,
0.004987531172069825,0.02517631377377777,
0.005037406483790524,-0.003224371676994641,
0.005087281795511222,0.018861954770362958,
0.00513715710723192,0.00022190828652858194,
0.0051870324189526185,0.020669639327207823,
0.005236907730673317,0.013763888589339081,
0.005286783042394015,0.026244525781347686,
0.0053366583541147134,0.011158775765931366,
0.005386533665835412,0.03364901355749299,
0.00543640897755611,0.01711430067389319,
0.005486284289276808,0.007636616249242197,
0.005536159600997507,0.03870810806663833,
0.005586034912718204,0.014584433595635469,
0.005635910224438902,0.02509937852145256,
0.005685785536159601,0.016872414599462156,
0.005735660847880299,-0.015790345619254367,
0.005785536159600997,0.030517745557141495,
0.005835411471321696,0.033768105702713054,
0.005885286783042394,0.008665688521102409,
0.005935162094763092,-0.0030935592755795705,
0.0059850374064837905,0.003966941287741469,
0.006034912718204489,0.0023549459886380367,
0.006084788029925187,0.002563761200022014,
0.0061346633416458855,0.015921391982845916,
0.006184538653366584,0.0012680827059794435,
0.006234413965087282,0.009142168220157211,
0.00628428927680798,-0.01585780998052381,
0.006334164588528679,0.031434470217794726,
0.006384039900249377,0.03668556419366483,
0.006433915211970074,0.003703755100589531,
0.006483790523690773,-0.008796752964099375,
0.006533665835411471,0.018858087314438,
0.006583541147132169,0.022561458554783143,
0.006633416458852868,-0.0011511471388036022,
0.006683291770573566,0.02844829943998496,
0.006733167082294264,0.02693240230063342,
0.0067830423940149626,0.000471062107210974,
0.006832917705735661,-0.014745512256582896,
0.006882793017456359,-0.007203027435915209,
0.0069326683291770575,-0.011647182634382375,
0.006982543640897756,0.013361681216790176,
0.007032418952618454,0.032068821632805514,
0.007082294264339152,-0.005904252011684187,
0.007132169576059851,0.01575811247067225,
0.007182044887780549,0.0026951123275938396,
0.007231920199501247,-0.001790209588061772,
0.007281795511221945,0.021646299271107627,
0.007331670822942643,0.034266619566879535,
0.007381546134663341,0.0039643617790446305,
0.00743142144638404,0.022183751009481254,
0.007481296758104738,0.025819595009603666,
0.007531172069825436,0.030612501118473846,
0.007581047381546135,-0.017809968135825378,
0.007630922693266833,0.003348547190374359,
0.007680798004987531,0.0006232518876992067,
0.0077306733167082295,-0.021993787679461804,
0.007780548628428928,0.011493489348161655,
0.007830423940149626,0.018275329255043354,
0.007880299251870324,0.0017712029969954978,
0.007930174563591023,0.011401358560376489,
0.00798004987531172,0.011725660183926458,
0.00802992518703242,-0.004947190621012934,
0.008079800498753117,-0.026417216133677462,
0.008129675810473816,0.0030533893978141094,
0.008179551122194513,0.01808740693342498,
0.008229426433915213,-0.0034482499547894762,
0.00827930174563591,0.015114440519129633,
0.00832917705735661,0.001830165584000724,
0.008379052369077307,0.03518214196794436,
0.008428927680798006,-0.007830261715756258,
0.008478802992518703,0.003763437147403141,
0.0085286783042394,-0.007852709014817829,
0.0085785536159601,0.0033158552125874888,
0.008628428927680797,0.0141278210925917,
0.008678304239401496,0.04602432946437088,
0.008728179551122194,-0.0017112785719046201,
0.008778054862842893,-0.007743689213035336,
0.00882793017456359,0.005815318567939954,
0.00887780548628429,-0.0163218039025472,
0.008927680798004987,0.007025786285673264,
0.008977556109725686,0.0007688320448219609,
0.009027431421446384,0.01748416546871923,
0.009077306733167083,-0.0189055025224259,
0.00912718204488778,-0.011690004601300711,
0.00917705735660848,0.0002138286391135816,
0.009226932668329177,-0.008609310276222672,
0.009276807980049876,0.009353257977386962,
0.009326683291770574,-0.004093568816171433,
0.009376558603491271,0.014328869487129421,
0.00942643391521197,-0.01858764731083289,
0.009476309226932668,0.015924851893196423,
0.009526184538653367,-0.008356502023554388,
0.009576059850374064,-0.023604092145677713,
0.009625935162094763,-0.00556308657057673,
0.00967581047381546,-0.005063970404745807,
0.00972568578553616,0.010732332047386843,
0.009775561097256857,-0.005852449887280663,
0.009825436408977557,-0.018704851804622277,
0.009875311720698254,-0.01727130337296218,
0.009925187032418953,0.011812876602346752,
0.00997506234413965,0.0062854694564133985,
0.01002493765586035,-0.01577691405054708,
0.010074812967581047,0.017083405147027036,
0.010124688279301746,-0.022198607312398796,
0.010174563591022444,0.027958120565754224,
0.010224438902743141,-0.02066779465063434,
0.01027431421446384,0.01657958529598462,
0.010324189526184538,-0.010348489162039788,
0.010374064837905237,-0.017251260022250456,
0.010423940149625935,-0.020119138424256326,
0.010473815461346634,0.00021696209208037914,
0.010523690773067331,-0.027320827833451432,
0.01057356608478803,-0.02541301483620058,
0.010623441396508728,0.011977706306936271,
0.010673316708229427,-0.03667048842585134,
0.010723192019950124,-0.01087091722462614,
0.010773067331670824,-0.005975016141782914,
0.010822942643391521,-0.016162070767409623,
0.01087281795511222,-0.008431394421666528,
0.010922693266832918,-0.02389154688308276,
0.010972568578553617,-0.009825289167783784,
0.011022443890274314,-0.00334770854246803,
0.011072319201995013,-0.007650304975869201,
0.01112219451371571,-0.02404933094425506,
0.011172069825436408,-0.01011306262666923,
0.011221945137157107,0.014526591384567576,
0.011271820448877805,-0.04516845254338242,
0.011321695760598504,-0.006152628336742563,
0.011371571072319201,-0.02150836473195026,
0.0114214463840399,0.024647736161370448,
0.011471321695760598,-0.015568817529745505,
0.011521197007481297,-0.01131926180631274,
0.011571072319201995,-0.01608427802219887,
0.011620947630922694,-0.014988531087641829,
0.011670822942643391,-0.02404576399006622,
0.01172069825436409,-0.008765761990229791,
0.011770573566084788,-0.01788710234135545,
0.011820448877805487,-0.03236542983047245,
0.011870324189526184,-0.011864001438382225,
0.011920199501246884,-0.027655696863907134,
0.011970074812967581,-0.017904578346304094,
0.012019950124688279,-0.026945139772055277,
0.012069825436408978,-0.03205819438819876,
0.012119700748129675,-0.06157672519746728,
0.012169576059850374,-0.04088976616518343,
0.012219451371571072,0.008620980490545452,
0.012269326683291771,-0.0130768424964698,
0.012319201995012468,-0.029644164014409398,
0.012369077306733168,-0.029336998622269114,
0.012418952618453865,-0.035176523986805854,
0.012468827930174564,-0.02201451215866554,
0.012518703241895262,0.007975752589577462,
0.01256857855361596,-0.006784278839894783,
0.012618453865336658,-0.029627766267250118,
0.012668329177057357,-0.032574850068135625,
0.012718204488778055,-0.012586964524606272,
0.012768079800498754,-0.008950304299875545,
0.012817955112219451,-0.02896418162287024,
0.012867830423940149,-0.029048711121570977,
0.012917705735660848,-0.03374197108300898,
0.012967581047381545,-0.032327198325764715,
0.013017456359102245,-0.038024371632380774,
0.013067331670822942,-0.009525277004873055,
0.013117206982543641,-0.0024434774344218244,
0.013167082294264339,-0.020871364877366693,
0.013216957605985038,-0.024575797479128594,
0.013266832917705735,-0.005418280897234545,
0.013316708229426434,-0.034555467337746136,
0.013366583541147132,-0.008197139344575492,
0.013416458852867831,-0.012132248069227403,
0.013466334164588529,-0.034463521381749525,
0.013516209476309228,-0.029617775562718746,
0.013566084788029925,-0.01985515832026342,
0.013615960099750624,-0.01882855233736765,
0.013665835411471322,-0.025187817449129384,
0.01371571072319202,-0.03561236466667639,
0.013765586034912718,-0.016053777913363716,
0.013815461346633416,-0.005229026868866232,
0.013865336658354115,-0.017865523891335524,
0.013915211970074812,-0.029640288218456594,
0.013965087281795512,-0.029852268553359436,
0.014014962593516209,-0.025260025648265218,
0.014064837905236908,-0.006550594088119387,
0.014114713216957606,-0.029424116580932053,
0.014164588528678305,-0.01677277750842714,
0.014214463840399002,-0.03260633874309079,
0.014264339152119701,-0.01766837746980649,
0.014314214463840399,-0.0223310591156956,
0.014364089775561098,-0.027832768023109515,
0.014413965087281795,-0.06554308111856942,
0.014463840399002495,-0.03860132936145126,
0.014513715710723192,-0.010163138890074665,
0.01456359102244389,-0.019815638430737074,
0.014613466334164589,0.010508221799432081,
0.014663341645885286,-0.025446414726656,
0.014713216957605985,0.0019253857646275366,
0.014763092269326683,-0.03784209472946064,
0.014812967581047382,-0.0382170223980608,
0.01486284289276808,-0.0011555325819164568,
0.014912718204488778,-0.015390340563181884,
0.014962593516209476,-0.014078062720860105,
0.015012468827930175,-0.002446812568397922,
0.015062344139650873,0.011201523990484748,
0.015112219451371572,-0.009885564747177025,
0.01516209476309227,0.0007019133404439146,
0.015211970074812968,-0.014657562535215704,
0.015261845386533666,-0.01814620638217395,
0.015311720698254365,-0.01887688353455622,
0.015361596009975062,-0.013132394705707208,
0.01541147132169576,-0.04680818868620308,
0.015461346633416459,-0.005809328029666775,
0.015511221945137156,-0.03416571185433705,
0.015561097256857856,-0.02486308004773214,
0.015610972568578553,-0.035588650767963546,
0.015660847880299252,-0.00968532773890082,
0.01571072319201995,-0.004147307281099763,
0.015760598503740647,-0.03138113826887549,
0.015810473815461346,0.005240381221165375,
0.015860349127182045,-0.01910039494682194,
0.015910224438902745,-0.010263206368280032,
0.01596009975062344,-0.011782659164864793,
0.01600997506234414,-0.013752427621286537,
0.01605985037406484,-0.0047344886094599055,
0.016109725685785538,0.0037305170959727896,
0.016159600997506234,-0.05431848472350286,
0.016209476309226933,0.0019251926634869954,
0.016259351620947632,-0.01629204125902247,
0.016309226932668328,0.0016806394618644107,
0.016359102244389027,-0.017166010701859663,
0.016408977556109726,-0.029093881082481093,
0.016458852867830425,-0.0038071309542173975,
0.01650872817955112,-0.01686187957888189,
0.01655860349127182,-0.005174503761104406,
0.01660847880299252,-0.01104681921896949,
0.01665835411471322,0.008891944356252752,
0.016708229426433914,0.009318728738525106,
0.016758104738154613,-0.012350272923529998,
0.016807980049875312,0.004980032143409162,
0.01685785536159601,-0.009003877677674622,
0.016907730673316707,0.012485412972373789,
0.016957605985037406,-0.03094767697789711,
0.017007481296758106,-0.021509503279704877,
0.0170573566084788,0.001097702762526129,
0.0171072319201995,-0.01945824735422249,
0.0171571072319202,-0.03430578391848049,
0.0172069825436409,-0.0030596031330443357,
0.017256857855361595,0.011900286549029169,
0.017306733167082294,-0.00734293373078095,
0.017356608478802993,-0.013700888384351276,
0.017406483790523692,-0.005967302137606021,
0.017456359102244388,0.0049557836775466135,
0.017506234413965087,0.004983514860036127,
0.017556109725685786,-0.009190372134001097,
0.017605985037406485,-0.0013554922462061642,
0.01765586034912718,0.027719672670474038,
0.01770573566084788,-0.006459966986938034,
0.01775561097256858,-0.008334306198426084,
0.01780548628428928,-0.015124777036700966,
0.017855361596009974,-0.020464738995806964,
0.017905236907730673,-0.006178878737586256,
0.017955112219451373,0.00725863681490509,
0.018004987531172068,-0.012104647465492127,
0.018054862842892767,0.00110106220860992,
0.018104738154613467,-0.021007709633654538,
0.018154613466334166,-0.003750889822513024,
0.01820448877805486,0.01780713407888962,
0.01825436408977556,-0.013175539867490104,
0.01830423940149626,-0.0009167101819256419,
0.01835411471321696,0.005915213345136565,
0.018403990024937655,0.019835510088151927,
0.018453865336658354,-0.0044213464749213146,
0.018503740648379053,-0.001327574522118688,
0.018553615960099752,0.002504677775861935,
0.018603491271820448,0.008834648035032183,
0.018653366583541147,0.006267971473664986,
0.018703241895261846,-0.003686651497457086,
0.018753117206982542,0.018635474608917717,
0.01880299251870324,-0.0037293877763366857,
0.01885286783042394,0.013278204604933515,
0.01890274314214464,-0.0027135006454606014,
0.018952618453865335,-0.005543711359416208,
0.019002493765586034,0.031298512145233895,
0.019052369077306733,0.014425856126206178,
0.019102244389027433,0.024220028972542017,
0.01915211970074813,-0.0017440482364910071,
0.019201995012468828,-0.017085445490506182,
0.019251870324189527,0.010757470126665409,
0.019301745635910226,0.0073417653104808946,
0.01935162094763092,-0.00873680589014347,
0.01940149625935162,0.014647374145931764,
0.01945137157107232,0.0012093209383872835,
0.01950124688279302,0.02500394810472974,
0.019551122194513715,0.009859696785192941,
0.019600997506234414,-0.001123870548316492,
0.019650872817955113,-0.007409684251080548,
0.01970074812967581,0.0042565864640749795,
0.019750623441396508,0.03313890978851344,
0.019800498753117207,0.010357286506489835,
0.019850374064837906,0.024098202852146408,
0.019900249376558602,0.00313471937221913,
0.0199501246882793,-0.014159164591599688,
0.02,-0.014744951842250106,
0.0200498753117207,0.016211011915500548,
0.020099750623441395,0.01991319108694023,
0.020149625935162094,-0.00897076402435791,
0.020199501246882794,0.03310825997734272,
0.020249376558603493,-0.015484383069163605,
0.02029925187032419,0.01823831955982176,
0.020349127182044888,0.002633632467477538,
0.020399002493765587,0.03825577130634776,
0.020448877805486283,-0.018588288858534505,
0.02049875311720698,0.015878179448736048,
0.02054862842892768,0.021034906265429597,
0.02059850374064838,0.00020157010585952415,
0.020648379052369076,0.012551695475903022,
0.020698254364089775,0.024282139839058053,
0.020748129675810474,0.009739206418711243,
0.020798004987531173,0.01623022789642623,
0.02084788029925187,0.018217451400992256,
0.020897755610972568,0.036630222250809495,
0.020947630922693267,0.016420781447303655,
0.020997506234413967,0.027119167235268932,
0.021047381546134662,0.017814743687060017,
0.02109725685785536,0.018724431185460282,
0.02114713216957606,0.011959098927077234,
0.02119700748129676,0.025565893262211672,
0.021246882793017455,0.033837958516173286,
0.021296758104738155,0.016290132759808455,
0.021346633416458854,0.0245900778673674,
0.02139650872817955,0.016255973892702173,
0.02144638403990025,-0.00185358133429106,
0.021496259351620948,0.022609233552233106,
0.021546134663341647,0.0292954780020485,
0.021596009975062343,0.02223957629412309,
0.021645885286783042,0.011150329269695402,
0.02169576059850374,0.018763857607464605,
0.02174563591022444,0.0248434396826347,
0.021795511221945136,0.03667696350834544,
0.021845386533665835,0.0053529161710246815,
0.021895261845386534,0.027034328113487313,
0.021945137157107233,0.02596993223957946,
0.02199501246882793,0.04736736671823072,
0.02204488778054863,0.013761932598294455,
0.022094763092269327,0.00844489278841673,
0.022144638403990027,0.01679778735711953,
0.022194513715710722,0.01869669194624431,
0.02224438902743142,0.025859702301951493,
0.02229426433915212,0.012488726896555306,
0.022344139650872816,0.044642008152434576,
0.022394014962593516,0.019469702636973535,
0.022443890274314215,0.04284018910003961,
0.022493765586034914,0.04525088977277013,
0.02254364089775561,0.05294971451479541,
0.02259351620947631,0.015976258819657183,
0.022643391521197008,0.0140250277466228,
0.022693266832917707,0.018966139214650457,
0.022743142144638403,0.029181711963523177,
0.022793017456359102,0.021134673493438554,
0.0228428927680798,0.02418353625078964,
0.0228927680798005,0.046864699428283044,
0.022942643391521196,0.012885921078470237,
0.022992518703241895,0.027393021262155915,
0.023042394014962594,0.04409802702770994,
0.02309226932668329,0.0636264103413242,
0.02314214463840399,0.006417077286426468,
0.02319201995012469,0.026566992626771254,
0.023241895261845388,0.026831760612996823,
0.023291770573566083,0.022116151887556532,
0.023341645885286783,0.019278125463032016,
0.02339152119700748,0.03971738150868073,
0.02344139650872818,0.040700750729221344,
0.023491271820448877,0.036412922601426354,
0.023541147132169576,0.039465346481021735,
0.023591022443890275,-0.0038975849789922266,
0.023640897755610974,0.0017056229913264137,
0.02369077306733167,0.013885904115841919,
0.02374064837905237,0.0007179769287750312,
0.023790523690773068,0.018433680843735756,
0.023840399002493767,0.02085702903891139,
0.023890274314214463,0.004877347600353792,
0.023940149625935162,0.019895344485431968,
0.02399002493765586,0.02841311727101642,
0.024039900249376557,0.014853841792875317,
0.024089775561097256,0.019405697376381554,
0.024139650872817955,0.011596291605033377,
0.024189526184538655,0.02692836853904062,
0.02423940149625935,0.03558339326413213,
0.02428927680798005,0.019946674057499506,
0.02433915211970075,0.025857081437460412,
0.024389027431421448,0.027464906104703084,
0.024438902743142144,0.00010108606777435233,
0.024488778054862843,0.02484260080903339,
0.024538653366583542,-0.008546241419026629,
0.02458852867830424,0.008636188570614385,
0.024638403990024937,0.022201524451746238,
0.024688279301745636,0.030980798911973747,
0.024738154613466335,0.011817401591390723,
0.02478802992518703,0.02263438978606194,
0.02483790523690773,0.041197157144183476,
0.02488778054862843,0.02700444160156588,
0.02493765586034913,0.03419910066462564,
0.024987531172069824,0.018084895343387218,
0.025037406483790523,0.02769931945558343,
0.025087281795511222,0.0273785493088445,
0.02513715710723192,0.0042632750011281344,
0.025187032418952617,0.013831391573283315,
0.025236907730673316,0.003352871587575971,
0.025286783042394016,0.017005545144631342,
0.025336658354114715,0.021721533261640308,
0.02538653366583541,0.02562302896141902,
0.02543640897755611,0.02682812141400135,
0.02548628428927681,0.01607394660069922,
0.025536159600997508,0.02042021654245387,
0.025586034912718204,0.034268694894712806,
0.025635910224438903,0.017873789309974155,
0.025685785536159602,0.03996128669832475,
0.025735660847880298,0.03288525272920413,
0.025785536159600997,0.0008828534017183177,
0.025835411471321696,0.034278956223019005,
0.025885286783042395,-1.5076834419688878e-05,
0.02593516209476309,0.005520052030447789,
0.02598503740648379,-0.0028767803936720487,
0.02603491271820449,0.015697620473255364,
0.02608478802992519,0.040051733031878825,
0.026134663341645884,0.008849818050767271,
0.026184538653366583,0.03881698451584305,
0.026234413965087282,0.015029104022515555,
0.02628428927680798,-0.009479800275192884,
0.026334164588528677,0.020941142044328686,
0.026384039900249377,-0.011930199730857804,
0.026433915211970076,-0.020558166247228678,
0.02648379052369077,0.011246423700213325,
0.02653366583541147,-0.0020601868418736735,
0.02658354114713217,0.03358220313175234,
0.02663341645885287,0.012989955506477026,
0.026683291770573565,-0.008072386099669157,
0.026733167082294264,0.017385046406854864,
0.026783042394014963,0.0004343286643029749,
0.026832917705735662,-0.016546912958838252,
0.026882793017456358,-0.0005717644949149794,
0.026932668329177057,0.011855101705139252,
0.026982543640897756,-0.006673428505100467,
0.027032418952618455,-0.00494077151970411,
0.02708229426433915,0.04851853081938756,
0.02713216957605985,0.03144206232644828,
0.02718204488778055,0.029731138366582692,
0.02723192019950125,0.009505452749046118,
0.027281795511221944,-0.012714469928336775,
0.027331670822942643,-0.00699827098032915,
0.027381546134663343,-0.024786628485396305,
0.02743142144638404,-0.0012854268375318625,
0.027481296758104738,0.0033934525126270354,
0.027531172069825437,0.008960903057706205,
0.027581047381546136,0.0026805122971825506,
0.02763092269326683,0.022581301580093728,
0.02768079800498753,0.007509494765686751,
0.02773067331670823,-0.02222363782521536,
0.02778054862842893,0.023368761764392353,
0.027830423940149625,0.004016668971230188,
0.027880299251870324,-0.005788698956076931,
0.027930174563591023,0.019920011142900484,
0.027980049875311722,0.013337302448525691,
0.028029925187032418,0.009672812170083651,
0.028079800498753117,0.009273264286373588,
0.028129675810473816,-0.007652140747435231,
0.028179551122194512,0.019231201773600177,
0.02822942643391521,0.029428171999111165,
0.02827930174563591,0.02475145866554053,
0.02832917705735661,-0.0050546065278471814,
0.028379052369077305,-0.027394453591742432,
0.028428927680798004,0.030583652329961433,
0.028478802992518704,0.0008931045864909689,
0.028528678304239403,-0.007504191203118421,
0.0285785536159601,0.0287848645840625,
0.028628428927680798,0.0011454047780434255,
0.028678304239401497,0.022390221857240388,
0.028728179551122196,0.01925072454014409,
0.02877805486284289,0.012644166575437234,
0.02882793017456359,0.009187725245095268,
0.02887780548628429,-0.02811590469185638,
0.02892768079800499,-0.028309108615330487,
0.028977556109725685,0.013702227231653884,
0.029027431421446384,0.003934025258267212,
0.029077306733167083,0.01644430110064704,
0.02912718204488778,-0.01275625604714094,
0.029177057356608478,-0.02060471292412286,
0.029226932668329177,-0.012579882962177586,
0.029276807980049877,0.00160094913981287,
0.029326683291770572,0.029247290244354008,
0.02937655860349127,-0.009599763312948786,
0.02942643391521197,-0.0037625707685629045,
0.02947630922693267,-0.025291262044549616,
0.029526184538653365,-0.017110736104519023,
0.029576059850374065,-0.025110198324025817,
0.029625935162094764,-0.00949434621421668,
0.029675810473815463,-0.006728359195561972,
0.02972568578553616,-0.006952595266467319,
0.029775561097256858,-0.003964557409149571,
0.029825436408977557,-0.029233024987372166,
0.029875311720698253,-0.0007381952250304366,
0.029925187032418952,-0.00789449531848186,
0.02997506234413965,-0.031895993416038486,
0.03002493765586035,-0.01322908241997146,
0.030074812967581046,0.007569117166676252,
0.030124688279301745,-0.004022760051530012,
0.030174563591022444,-0.018482550467127917,
0.030224438902743143,0.0038684468612542027,
0.03027431421446384,-0.04026596957232166,
0.03032418952618454,-0.0036829090185313057,
0.030374064837905237,-0.011881663579215872,
0.030423940149625937,0.009605634586217184,
0.030473815461346632,0.005137709686955646,
0.03052369077306733,0.013428647698458324,
0.03057356608478803,0.0012825182243805192,
0.03062344139650873,-0.009371691504767849,
0.030673316708229426,-0.014464612888194176,
0.030723192019950125,-0.005215544694803514,
0.030773067331670824,-0.012201566005537593,
0.03082294264339152,-0.027982899815395493,
0.03087281795511222,-0.0014354810642651528,
0.030922693266832918,-0.027242640455408446,
0.030972568578553617,-0.005220584772982038,
0.031022443890274313,-0.010551844907350333,
0.031072319201995012,-0.029721328656606802,
0.03112219451371571,-0.02472792221455697,
0.03117206982543641,0.0073706599665437685,
0.031221945137157106,-0.003276279748994788,
0.03127182044887781,-0.02126070648938674,
0.031321695760598504,-0.020171255809653905,
0.0313715710723192,0.019039625973459637,
0.0314214463840399,-0.020599000635770456,
0.0314713216957606,-0.011105282110896265,
0.031521197007481294,-0.013211689371750065,
0.031571072319202,-0.011209577349795823,
0.03162094763092269,-0.005562955620316067,
0.03167082294264339,0.011819531857517643,
0.03172069825436409,-0.000313597639080853,
0.03177057356608479,-0.02511594575578848,
0.03182044887780549,-0.010683503226467208,
0.031870324189526185,-0.011719521620643571,
0.03192019950124688,-0.021953690020452367,
0.03197007481296758,-0.019508916882609827,
0.03201995012468828,-0.008963032969179028,
0.032069825436408975,-0.03200220371391063,
0.03211970074812968,-0.013035469768822342,
0.03216957605985037,-0.016419894478176874,
0.032219451371571076,-0.028902371026663057,
0.03226932668329177,-0.025322915609618152,
0.03231920199501247,-0.005186504449214011,
0.03236907730673317,0.0019671802719879034,
0.032418952618453865,-0.04505892636068916,
0.03246882793017456,-0.02878821571581336,
0.032518703241895264,-0.019833908587627007,
0.03256857855361596,-0.015409695881778202,
0.032618453865336655,-0.01583664244756742,
0.03266832917705736,-0.028226412442529214,
0.032718204488778053,-0.03399107137817392,
0.032768079800498756,-0.04041201200296089,
0.03281795511221945,0.014681227903674852,
0.03286783042394015,-0.011263937162424268,
0.03291770573566085,-0.0315755461605324,
0.032967581047381546,0.007278329842093933,
0.03301745635910224,-0.033799945247047325,
0.033067331670822944,-0.0103216250861711,
0.03311720698254364,-0.028111614673226655,
0.03316708229426434,-0.025016913489738578,
0.03321695760598504,-0.00011071642152905153,
0.033266832917705734,-0.020358400446528292,
0.03331670822942644,-0.0341668697059768,
0.03336658354114713,-0.003858546946747154,
0.03341645885286783,-0.020168458298328827,
0.03346633416458853,-0.01799429810685503,
0.033516209476309226,-0.02346290548178915,
0.03356608478802992,-0.015645923676802023,
0.033615960099750625,-0.03745295359449233,
0.03366583541147132,-0.02376405846577076,
0.03371571072319202,-0.02801238603437291,
0.03376558603491272,-0.006378729349801328,
0.033815461346633414,-0.0018784038753651977,
0.03386533665835412,-0.0256529684394831,
0.03391521197007481,0.009282698479282484,
0.03396508728179551,-0.0061139260939897695,
0.03401496259351621,-0.04535044575098174,
0.03406483790523691,-0.02548452656049836,
0.0341147132169576,-0.013967727527068135,
0.034164588528678305,-0.020515146826503218,
0.034214463840399,-0.011438836888854373,
0.034264339152119704,-0.011342674622931655,
0.0343142144638404,-0.02397822735199411,
0.034364089775561095,-0.02334861862250268,
0.0344139650872818,-0.02804293128405053,
0.03446384039900249,-0.018488484415181496,
0.03451371571072319,-0.03292892420090269,
0.03456359102244389,-0.01732009468682249,
0.03461346633416459,0.0005879813858539161,
0.03466334164588529,-0.025856463736935426,
0.034713216957605986,-0.02281740627008218,
0.03476309226932668,-0.01918559955355267,
0.034812967581047384,-0.029386471573188962,
0.03486284289276808,-0.03011541133539599,
0.034912718204488775,-0.005553555406001467,
0.03496259351620948,-0.027434496019566094,
0.035012468827930174,0.005357188731479022,
0.03506234413965087,-0.02339581574977714,
0.03511221945137157,-0.01311638936033298,
0.03516209476309227,-0.00934539582773622,
0.03521197007481297,-0.01148131687276601,
0.035261845386533666,0.014799344388075996,
0.03531172069825436,0.0006522880889249186,
0.035361596009975065,-0.02943291607258253,
0.03541147132169576,-0.002362515985326852,
0.035461346633416456,-0.014440485907950315,
0.03551122194513716,-0.010126156900562764,
0.035561097256857854,-0.0053728845216329466,
0.03561097256857856,-0.027386558555236237,
0.03566084788029925,-0.010303120640459353,
0.03571072319201995,-0.021619105172375495,
0.03576059850374065,0.0005814659188510176,
0.03581047381546135,0.000842591715408042,
0.03586034912718204,-0.007547756824123931,
0.035910224438902745,-0.008333218103402247,
0.03596009975062344,0.005250495271561998,
0.036009975062344136,-0.021300541164916052,
0.03605985037406484,-0.030448184833512658,
0.036109725685785535,-0.02254395910031634,
0.03615960099750624,-0.01584803250871644,
0.03620947630922693,-0.024166724544739802,
0.03625935162094763,-0.00486463124841077,
0.03630922693266833,-0.03712279800199315,
0.03635910224438903,0.030486710704247997,
0.03640897755610972,-0.0039997056019188786,
0.036458852867830426,0.01506969123684267,
0.03650872817955112,-0.021603079981891288,
0.036558603491271824,-0.03648412218133047,
0.03660847880299252,-0.008076158733546682,
0.036658354114713215,-0.020775067822875515,
0.03670822942643392,-0.011700705555635592,
0.036758104738154614,-0.021778769379016877,
0.03680798004987531,-0.013305954672549376,
0.03685785536159601,0.006312043348401284,
0.03690773067331671,0.005743538247991763,
0.0369576059850374,0.007785207838466243,
0.037007481296758106,0.006541848397227749,
0.0370573566084788,0.006031463758824544,
0.037107231920199504,0.006920033212977416,
0.0371571072319202,-0.006579698682349337,
0.037206982543640896,-0.004534436365696133,
0.0372568578553616,0.007310039432554238,
0.037306733167082294,0.009105273462813151,
0.03735660847880299,-0.002456513744658836,
0.03740648379052369,-0.008186730566021285,
0.03745635910224439,-0.007810497274233984,
0.037506234413965084,-0.000996865500178524,
0.037556109725685786,0.001950176212218374,
0.03760598503740648,-0.008580230471999507,
0.037655860349127185,0.0031431728968895787,
0.03770573566084788,-0.007041417813885727,
0.037755610972568576,0.027465652493639654,
0.03780548628428928,0.006879361408171532,
0.037855361596009975,0.015384189719374965,
0.03790523690773067,-0.013423959763362773,
0.03795511221945137,-0.002317960773455617,
0.03800498753117207,-0.009081377756426442,
0.03805486284289277,-0.01507443094902795,
0.03810473815461347,-0.02099818062695918,
0.03815461346633416,0.02919050025650438,
0.038204488778054865,-0.019549215313032546,
0.03825436408977556,0.020009081771611318,
0.03830423940149626,0.006495642320148164,
0.03835411471321696,-0.0015597364555279096,
0.038403990024937655,-0.010190143638447068,
0.03845386533665835,-0.020930883925191164,
0.03850374064837905,0.010534261688300019,
0.03855361596009975,0.010782214556331094,
0.03860349127182045,-0.005287860940153604,
0.03865336658354115,0.011343914216659489,
0.03870324189526184,-0.01921936574800047,
0.038753117206982546,-0.03182178421258477,
0.03880299251870324,-0.004003803667799065,
0.03885286783042394,0.014759796049938299,
0.03890274314214464,0.0034093374082290505,
0.038952618453865336,-0.007885180393553515,
0.03900249376558604,-0.013095413399918545,
0.039052369077306734,0.008502731549595898,
0.03910224438902743,0.016487938069115818,
0.03915211970074813,-0.015583931314671774,
0.03920199501246883,-0.005413548130850395,
0.039251870324189524,0.02017601629861651,
0.039301745635910226,-0.008813323478392152,
0.03935162094763092,0.012308577171864279,
0.03940149625935162,-0.011623775317746667,
0.03945137157107232,0.0012731239257607035,
0.039501246882793016,0.020056183819889856,
0.03955112219451372,-0.018553819892897803,
0.039600997506234414,0.003471857665987413,
0.03965087281795511,0.01648617145194285,
0.03970074812967581,-0.00499634007282781,
0.03975062344139651,0.020306997009041566,
0.039800498753117204,0.0076838520911535375,
0.03985037406483791,0.009160665581468932,
0.0399002493765586,0.009393740836141494,
0.039950124688279305,0.01691940744303991,
0.04,-0.00234871930645506,
0.0400498753117207,-0.0039937366124354855,
0.0400997506234414,-0.019048572561745455,
0.040149625935162095,0.02967877694061446,
0.04019950124688279,0.028201723411323036,
0.04024937655860349,0.006023757751359688,
0.04029925187032419,0.004157317608340788,
0.040349127182044885,0.0007400161420429013,
0.04039900249376559,0.03291994852214271,
0.04044887780548628,0.0032060731759482094,
0.040498753117206986,-0.008143209020388505,
0.04054862842892768,0.027118439503258932,
0.04059850374064838,0.03364308874164195,
0.04064837905236908,0.028320535946343473,
0.040698254364089775,0.035013951866064416,
0.04074812967581047,0.021508688131638226,
0.040798004987531174,-0.0055465775342491905,
0.04084788029925187,0.012753935748544477,
0.040897755610972565,-0.009878878673049894,
0.04094763092269327,0.03727883729977431,
0.04099750623441396,0.004391852434813364,
0.041047381546134666,0.02454143066516422,
0.04109725685785536,0.0017586583189221662,
0.04114713216957606,0.019782657448847926,
0.04119700748129676,0.03680313058995513,
0.041246882793017456,0.03445690603582666,
0.04129675810473815,-0.00043727100595890994,
0.041346633416458854,0.008624634308776056,
0.04139650872817955,0.02890189526211767,
0.04144638403990025,-0.009755757716837215,
0.04149625935162095,0.0422546273406759,
0.041546134663341644,-0.0026642088595948583,
0.04159600997506235,0.03555307379633194,
0.04164588528678304,0.044957919987814676,
0.04169576059850374,0.021362349123669345,
0.04174563591022444,0.030490659158986785,
0.041795511221945136,0.034062242943788484,
0.04184538653366583,0.017033733153389567,
0.041895261845386535,0.013673444740790582,
0.04194513715710723,0.01910199870452892,
0.04199501246882793,0.039768744254364656,
0.04204488778054863,0.00813415105554688,
0.042094763092269324,0.011169178070164428,
0.04214463840399003,0.010284740396542588,
0.04219451371571072,0.019175526849703212,
0.04224438902743142,0.009684525876987485,
0.04229426433915212,0.015424913623940054,
0.04234413965087282,0.03277940879592368,
0.04239401496259352,0.02321261371303475,
0.042443890274314215,0.01244766377808012,
0.04249376558603491,0.01803448525552973,
0.042543640897755614,0.021021225458198976,
0.04259351620947631,0.011470678551509449,
0.042643391521197005,0.022765668165124344,
0.04269326683291771,0.024295850624016752,
0.0427431421446384,0.025009193014196667,
0.0427930174563591,-0.015695452633713525,
0.0428428927680798,-0.007792770049496807,
0.0428927680798005,0.003802341962044632,
0.0429426433915212,0.007193027450036936,
0.042992518703241896,0.027227566438661012,
0.04304239401496259,0.03572403745627241,
0.043092269326683294,0.03371336811048142,
0.04314214463840399,0.029837327180761805,
0.043192019950124685,0.02131423989853439,
0.04324189526184539,0.008963422990633482,
0.043291770573566084,0.00561335974656987,
0.043341645885286786,0.028603066119704413,
0.04339152119700748,0.0037731581186251813,
0.04344139650872818,0.010153249184114881,
0.04349127182044888,0.022650213187239053,
0.043541147132169576,0.02974421139966136,
0.04359102244389027,-0.006623842117892218,
0.043640897755610975,0.03968147224472865,
0.04369077306733167,0.02395990812149443,
0.043740648379052366,0.02441448505204849,
0.04379052369077307,0.034585074614558925,
0.043840399002493764,0.030139162508736998,
0.04389027431421447,0.026559210009566563,
0.04394014962593516,0.025710371392727912,
0.04399002493765586,0.019769200364426195,
0.04403990024937656,0.006857442286806018,
0.04408977556109726,0.005203844879538181,
0.04413965087281795,-0.022232796606897157,
0.044189526184538655,0.0017480369214446165,
0.04423940149625935,0.011004793369636614,
0.04428927680798005,0.05222516236849459,
0.04433915211970075,0.022483687682933455,
0.044389027431421445,0.00582488575637375,
0.04443890274314215,0.002017151467290472,
0.04448877805486284,0.020405611526602425,
0.04453865336658354,0.022753530125186425,
0.04458852867830424,-0.000377683580188401,
0.04463840399002494,0.02583354688986652,
0.04468827930174563,0.007868480262841053,
0.044738154613466335,0.02707964897363213,
0.04478802992518703,-0.003995703576326656,
0.044837905236907734,0.02225806800417018,
0.04488778054862843,0.028392264558685792,
0.044937655860349125,0.03541362301045031,
0.04498753117206983,0.0592236613549805,
0.045037406483790524,0.006161646564692227,
0.04508728179551122,0.003454467066939037,
0.04513715710723192,0.020965458321741928,
0.04518703241895262,-0.010669793810632565,
0.04523690773067331,0.02970171834288092,
0.045286783042394016,-0.0008461446025955256,
0.04533665835411471,-0.001253043176676072,
0.045386533665835414,0.036384108582762205,
0.04543640897755611,0.018578131274675534,
0.045486284289276806,0.021912006258254346,
0.04553615960099751,0.009519078972971898,
0.045586034912718204,0.011998786505717531,
0.0456359102244389,0.01851047347559084,
0.0456857855361596,0.015190894549689922,
0.0457356608478803,-0.0014269062346154333,
0.045785536159601,0.01983663133009682,
0.045835411471321696,-0.004677704244111014,
0.04588528678304239,0.045483234042645676,
0.045935162094763095,0.016454207462804432,
0.04598503740648379,0.035401157870077235,
0.046034912718204486,0.041854645498439494,
0.04608478802992519,0.05427536528039276,
0.046134663341645885,0.022624782289969822,
0.04618453865336658,0.029142071345089112,
0.04623441396508728,0.01384435752945428,
0.04628428927680798,-0.015571972177739157,
0.04633416458852868,0.01969342608346611,
0.04638403990024938,0.006534928234858368,
0.04643391521197007,0.006901619775473589,
0.046483790523690775,0.0035598720875124976,
0.04653366583541147,-0.013370502677446898,
0.04658354114713217,0.0028070293388115612,
0.04663341645885287,0.025590453929164543,
0.046683291770573565,0.006495236673369802,
0.04673316708229427,0.015122802411645387,
0.04678304239401496,0.0007529763364778775,
0.04683291770573566,0.02743469665233774,
0.04688279301745636,-0.004629926927539498,
0.04693266832917706,0.04953896665035304,
0.04698254364089775,0.037941461082937084,
0.047032418952618456,0.020039117455303013,
0.04708229426433915,0.0012202695411482386,
0.04713216957605985,0.007086493466221182,
0.04718204488778055,0.004177120408948647,
0.047231920199501246,-0.021643288255719803,
0.04728179551122195,0.011517240164298798,
0.047331670822942644,-0.025051094096419424,
0.04738154613466334,0.014783857895176436,
0.04743142144638404,0.01865314064152432,
0.04748129675810474,0.03778362562205529,
0.047531172069825434,-0.01887955284795831,
0.047581047381546136,0.01468480611646176,
0.04763092269326683,0.022754097744493006,
0.047680798004987535,0.020126063366638903,
0.04773067331670823,0.010619991960511105,
0.047780548628428926,0.026561073870530968,
0.04783042394014963,0.0054307682553032125,
0.047880299251870324,0.011770149796165898,
0.04793017456359102,0.0030079324312091214,
0.04798004987531172,0.04719107510211905,
0.04802992518703242,0.009785755752086638,
0.048079800498753114,0.03493660486704177,
0.04812967581047382,-0.00994493170564335,
0.04817955112219451,-0.001399845034911252,
0.048229426433915215,0.0013348689422189547,
0.04827930174563591,0.017713181409133756,
0.048329177057356607,-0.005825169292930193,
0.04837905236907731,-0.006366947386916124,
0.048428927680798005,0.012489349849119166,
0.0484788029925187,0.004391049989918209,
0.0485286783042394,-0.005601305651842193,
0.0485785536159601,-0.009730570010942127,
0.048628428927680795,-0.01178497874120895,
0.0486783042394015,0.02721926889257621,
0.04872817955112219,-0.004704459987034606,
0.048778054862842896,0.0065575377831021565,
0.04882793017456359,-0.0164560876483704,
0.04887780548628429,0.023901808941601297,
0.04892768079800499,-0.01439893507622904,
0.048977556109725685,0.007392290198510735,
0.04902743142144638,-0.0021085556877024603,
0.049077306733167084,0.01977419617299918,
0.04912718204488778,-0.001773941553578131,
0.04917705735660848,-0.0356552297246468,
0.04922693266832918,-0.01643904146820421,
0.04927680798004987,-0.00795441100496273,
0.049326683291770576,0.026233425606100907,
0.04937655860349127,-0.01691079003897513,
0.04942643391521197,0.006439116707768844,
0.04947630922693267,0.0012788999682114169,
0.049526184538653366,-0.0264648379308094,
0.04957605985037406,-0.007026666510401539,
0.049625935162094764,0.0037821287269612395,
0.04967581047381546,0.005426511924693924,
0.04972568578553616,-0.029112057241636992,
0.04977556109725686,0.014068473835202874,
0.049825436408977554,-0.01290336369393199,
0.04987531172069826,0.01961784598917799,
0.04992518703241895,0.005036727139273497,
0.04997506234413965,0.0014845524345281757,
0.05002493765586035,-0.029255725723685906,
0.050074812967581046,-0.01514600733398178,
0.05012468827930175,-0.04421189212422062,
0.050174563591022445,-0.0068875095300607505,
0.05022443890274314,-0.013789824839939391,
0.05027431421446384,0.007024876070955484,
0.05032418952618454,0.025766802459632997,
0.050374064837905234,-0.029656974435863404,
0.05042394014962594,-0.00385678537424408,
0.05047381546134663,0.0005608754289485839,
0.05052369077306733,-0.025356364920104565,
0.05057356608478803,0.017788757166190553,
0.05062344139650873,-0.014605462269212941,
0.05067331670822943,-0.015237438149733884,
0.050723192019950125,-0.020161592217075103,
0.05077306733167082,-0.03536085245660055,
0.050822942643391524,-0.01242784736849066,
0.05087281795511222,-0.0022808912609024604,
0.050922693266832915,-0.024022450634424968,
0.05097256857855362,0.017935078356389814,
0.05102244389027431,-0.003259812737620562,
0.051072319201995016,0.02552606982915637,
0.05112219451371571,-0.021120727073440218,
0.05117206982543641,-0.03342107953647184,
0.05122194513715711,-0.015616512408339066,
0.051271820448877806,-0.005347526246951122,
0.0513216957605985,0.004335213393114679,
0.051371571072319204,0.0010233129419044574,
0.0514214463840399,-0.02665089621862799,
0.051471321695760595,-0.009308987335966332,
0.0515211970074813,-0.023544493212586635,
0.051571072319201994,-0.02480232218254557,
0.051620947630922696,-0.010169109208082585,
0.05167082294264339,0.004737330688771382,
0.05172069825436409,-0.041071954575569905,
0.05177057356608479,-0.03605884849941213,
0.051820448877805486,-0.03619895522485039,
0.05187032418952618,-0.03186618700516895,
0.051920199501246884,-0.016517804538227758,
0.05197007481296758,0.0027631373112771453,
0.052019950124688276,-0.005868984766560172,
0.05206982543640898,-0.019550805816167943,
0.052119700748129674,-0.029647266679716247,
0.05216957605985038,0.0025524886338037112,
0.05221945137157107,-0.019924177048695247,
0.05226932668329177,-0.026928350714061612,
0.05231920199501247,0.00883772651071739,
0.05236907730673317,-0.0072453382786092264,
0.05241895261845386,-0.01265930579432159,
0.052468827930174565,0.009150936464035517,
0.05251870324189526,-0.0013050189973878284,
0.05256857855361596,-0.02858664693971811,
0.05261845386533666,-0.011143909904473035,
0.052668329177057355,-0.012045415073023069,
0.05271820448877806,-0.03313959752949784,
0.05276807980049875,-0.024143296890164395,
0.05281795511221945,-0.031098998758148824,
0.05286783042394015,-0.0025063291708761776,
0.05291770573566085,-0.01364468082949783,
0.05296758104738154,-0.021521770086424735,
0.053017456359102245,-0.005330637445639811,
0.05306733167082294,0.01093576856996236,
0.053117206982543644,-0.017585997749219914,
0.05316708229426434,-0.012499594639961418,
0.053216957605985035,-0.020307249697395547,
0.05326683291770574,-0.01825645176168888,
0.053316708229426434,-0.03701561395380172,
0.05336658354114713,-0.020768503839814937,
0.05341645885286783,-0.018512543752343482,
0.05346633416458853,-0.015347233121673893,
0.05351620947630923,-0.012136397754089381,
0.053566084788029926,-0.032510037179723714,
0.05361596009975062,-0.033946845669920234,
0.053665835411471324,-0.00990738317302449,
0.05371571072319202,-0.023786363467258376,
0.053765586034912716,-0.037414738900883024,
0.05381546134663342,0.004580257455300503,
0.053865336658354114,-0.022794679200897647,
0.05391521197007481,-0.020983315269903054,
0.05396508728179551,-0.04599650503587356,
0.05401496259351621,-0.028527302039899755,
0.05406483790523691,0.0013978156902194304,
0.054114713216957606,-0.029602741350647138,
0.0541645885286783,-0.02340228507728913,
0.054214463840399005,-0.014276645110385,
0.0542643391521197,-0.022776854020032565,
0.054314214463840396,-0.020858324344618547,
0.0543640897755611,0.003946751144308272,
0.054413965087281795,0.002527991568475673,
0.0544638403990025,0.0001273494140872026,
0.05451371571072319,-0.010047751494143362,
0.05456359102244389,-0.024885948655414658,
0.05461346633416459,-0.003972470046491268,
0.05466334164588529,-0.01279678077873973,
0.05471321695760598,-0.00786647825703244,
0.054763092269326685,-0.012807822847909593,
0.05481296758104738,-0.026873906405703113,
0.05486284289276808,-0.031435084342040266,
0.05491271820448878,-0.005831132846362547,
0.054962593516209475,-0.020838161260862152,
0.05501246882793018,-0.018356047439577756,
0.05506234413965087,0.00195267030182103,
0.05511221945137157,-0.0459075520756349,
0.05516209476309227,-0.019441981431954573,
0.05521197007481297,-0.036120915609401456,
0.05526184538653366,0.012134763583686078,
0.055311720698254366,-0.0038193425529147,
0.05536159600997506,-0.009457893039047486,
0.05541147132169576,-0.008383326156410343,
0.05546134663341646,-0.0009145791677919318,
0.055511221945137156,-0.03719181982687378,
0.05556109725685786,-0.016991253368919417,
0.055610972568578554,-0.007751683939912867,
0.05566084788029925,-0.00029699183638531683,
0.05571072319201995,-0.042419424944028616,
0.05576059850374065,-0.0005456159701728788,
0.055810473815461344,-0.017510384595477962,
0.055860349127182046,-0.0380455900208244,
0.05591022443890274,-0.0021518923204159705,
0.055960099750623445,0.01145504446540047,
0.05600997506234414,-0.009483520038488026,
0.056059850374064836,-0.014329111253566838,
0.05610972568578554,0.000564170884569979,
0.056159600997506234,-0.011306971016472022,
0.05620947630922693,0.004298263711584172,
0.05625935162094763,0.00994495984295461,
0.05630922693266833,-0.009476578478716198,
0.056359102244389024,-0.0011259193825601775,
0.05640897755610973,-0.024227013508110806,
0.05645885286783042,0.0009106414860389203,
0.056508728179551125,0.0015985766025335977,
0.05655860349127182,-0.019909416920673988,
0.056608478802992516,0.008024686387650286,
0.05665835411471322,0.0019482251093692763,
0.056708229426433915,0.006774552499807037,
0.05675810473815461,0.0179458321514704,
0.05680798004987531,0.012334313895212204,
0.05685785536159601,-0.027283043179825453,
0.05690773067331671,-0.006197216227796871,
0.05695760598503741,-0.002002071568930946,
0.0570074812967581,-0.010209299016309865,
0.057057356608478806,-0.0004278668118039746,
0.0571072319201995,0.006850743183848244,
0.0571571072319202,0.010573867679734176,
0.0572069825436409,0.019315875638512302,
0.057256857855361595,-0.026702213807423734,
0.05730673316708229,-0.030195646315476082,
0.057356608478802994,-0.0024524411819640025,
0.05740648379052369,0.008850642638282854,
0.05745635910224439,0.005799104386196876,
0.05750623441396509,-0.007991931403931476,
0.05755610972568578,-0.012506872651927941,
0.057605985037406486,-0.003752787060811338,
0.05765586034912718,-0.01603552391396485,
0.05770573566084788,0.0004497722826845563,
0.05775561097256858,-0.005359463164101379,
0.057805486284289276,0.0005050171753946228,
0.05785536159600998,-0.005674749684709292,
0.057905236907730674,0.006147777848613981,
0.05795511221945137,0.01056844761796871,
0.05800498753117207,-0.0014437126360354485,
0.05805486284289277,0.0013106025411931208,
0.058104738154613464,-0.01034256648192755,
0.05815461346633417,0.021878977822990125,
0.05820448877805486,-0.00238031243105872,
0.05825436408977556,-0.005612578690030255,
0.05830423940149626,0.003396289458714434,
0.058354114713216956,0.008779689047503498,
0.05840399002493766,0.006503749289953738,
0.058453865336658355,0.023532986311254066,
0.05850374064837905,-0.00842648351045519,
0.05855361596009975,0.012612332717288184,
0.05860349127182045,0.02061274862761125,
0.058653366583541144,0.01810909817908927,
0.05870324189526185,0.008414222009477654,
0.05875311720698254,0.03772501897304788,
0.05880299251870324,0.005981749405906618,
0.05885286783042394,0.004968775074480994,
0.05890274314214464,0.018102939306907866,
0.05895261845386534,0.024979503696296534,
0.059002493765586035,0.01953420389300324,
0.05905236907730673,-0.017085196595648527,
0.059102244389027433,-0.010942342969792046,
0.05915211970074813,0.0009152388063001608,
0.059201995012468825,-0.02447307163603926,
0.05925187032418953,0.020830505246311873,
0.05930174563591022,-0.013498356111509839,
0.059351620947630926,-0.007355639719641122,
0.05940149625935162,0.027975631123785857,
0.05945137157107232,0.029082461288598416,
0.05950124688279302,0.03232767772842156,
0.059551122194513716,0.004558118640834804,
0.05960099750623441,-0.0080309120171642,
0.059650872817955114,0.02066583194531748,
0.05970074812967581,0.00624477901748741,
0.059750623441396505,0.006393976180990839,
0.05980049875311721,0.0025389578691675744,
0.059850374064837904,-0.0007604216588860853,
0.059900249376558606,0.020081828671942498,
0.0599501246882793,0.03601473929873318,
0.06,0.019943332800757607,
0.0600498753117207,0.02471489779436115,
0.060099750623441396,0.009392065425291545,
0.06014962593516209,0.0240211352135895,
0.060199501246882794,0.014091543637176547,
0.06024937655860349,0.042382392735857415,
0.06029925187032419,0.025427941611232845,
0.06034912718204489,0.014323607921058773,
0.060399002493765584,0.0031323856361785366,
0.06044887780548629,0.02485564541510942,
0.06049875311720698,0.0022010225739262992,
0.06054862842892768,0.009337547468455238,
0.06059850374064838,-0.0125003537030243,
0.06064837905236908,0.00948131971624406,
0.06069825436408977,0.016296597524895883,
0.060748129675810475,0.024959558034160088,
0.06079800498753117,-0.008573304769159486,
0.06084788029925187,0.03854196963635437,
0.06089775561097257,0.02816750558246415,
0.060947630922693265,0.01803447890897261,
0.06099750623441397,0.001958524628252495,
0.06104738154613466,0.035219701688898014,
0.06109725685785536,0.007240191205135048,
0.06114713216957606,0.020189288325983764,
0.06119700748129676,0.030510670003313763,
0.06124688279301746,0.01146984187537943,
0.061296758104738155,0.019469560298996578,
0.06134663341645885,0.047216002288785,
0.061396508728179554,0.01294713749956495,
0.06144638403990025,0.005039862649603696,
0.061496259351620945,0.0430914266357576,
0.06154613466334165,0.01917330659108403,
0.061596009975062344,0.01633773831250515,
0.06164588528678304,0.015876029075570803,
0.06169576059850374,0.004297823357563093,
0.06174563591022444,0.013476246568388398,
0.06179551122194514,0.005444130609519517,
0.061845386533665836,0.033419704147347934,
0.06189526184538653,0.02769773632187265,
0.061945137157107234,0.009612141625528349,
0.06199501246882793,0.017774368289323838,
0.062044887780548626,0.03311952727208817,
0.06209476309226933,0.01460467810553453,
0.062144638403990024,0.021403423665490914,
0.06219451371571072,0.04152293549155421,
0.06224438902743142,0.014857546705234441,
0.06229426433915212,0.006381487001980695,
0.06234413965087282,0.039402508337935724,
0.062394014962593516,-0.001961324201107957,
0.06244389027431421,0.02287123866192128,
0.062493765586034915,0.00022418526087378612,
0.06254364089775562,0.03236996759916061,
0.06259351620947631,0.018430443465821407,
0.06264339152119701,0.03607319061199109,
0.0626932668329177,0.028808363321169234,
0.0627431421446384,0.004877977098453591,
0.0627930174563591,0.006921524660588672,
0.0628428927680798,0.02253648734013062,
0.0628927680798005,0.0017784476450870973,
0.0629426433915212,0.02279670797681016,
0.06299251870324189,0.02743266149739704,
0.06304239401496259,0.03616393564683867,
0.0630922693266833,0.029140611259465543,
0.063142144638404,0.04629049620821528,
0.06319201995012469,0.0033126753324316804,
0.06324189526184539,0.028110228045282796,
0.06329177057356608,0.02404219539791233,
0.06334164588528678,-0.024923822989942463,
0.06339152119700749,0.018440064722616938,
0.06344139650872818,0.05212840936628328,
0.06349127182044888,0.021813991141455238,
0.06354114713216957,0.009900625478865232,
0.06359102244389027,0.03953443199485606,
0.06364089775561098,0.02529294225798504,
0.06369077306733167,0.030847094337759652,
0.06374064837905237,0.04358103624985271,
0.06379052369077307,0.023584361349799857,
0.06384039900249376,0.02634349667277566,
0.06389027431421446,0.02943320678177508,
0.06394014962593517,-0.009060115834350776,
0.06399002493765586,0.004613780910947635,
0.06403990024937656,0.04407279377505889,
0.06408977556109725,0.017145827181462837,
0.06413965087281795,0.044934197456355615,
0.06418952618453866,0.013296655819703043,
0.06423940149625935,0.03381197997546657,
0.06428927680798005,0.02357676496071437,
0.06433915211970075,0.005781903385498992,
0.06438902743142144,0.03669451608697666,
0.06443890274314215,0.018445184778577397,
0.06448877805486285,0.02265952234763756,
0.06453865336658354,0.027593308504185822,
0.06458852867830424,0.025828956829101968,
0.06463840399002493,0.027331234441591724,
0.06468827930174563,0.02233090038680444,
0.06473815461346634,0.032414651718903606,
0.06478802992518704,0.018080302651816704,
0.06483790523690773,0.04347828266821904,
0.06488778054862843,0.012983256382394072,
0.06493765586034912,-0.0038728030911684592,
0.06498753117206983,0.021237932004065492,
0.06503740648379053,0.04548463295268078,
0.06508728179551122,0.004687148359419607,
0.06513715710723192,0.0057640000565740805,
0.06518703241895261,0.024128378894940815,
0.06523690773067331,0.023151086163267744,
0.06528678304239402,0.026577083098802762,
0.06533665835411472,0.03791049572846087,
0.06538653366583541,0.023906187330879965,
0.06543640897755611,0.04218362119907411,
0.0654862842892768,0.014268163276993005,
0.06553615960099751,0.00779457563211941,
0.06558603491271821,0.005602312410152004,
0.0656359102244389,-0.00634674560204827,
0.0656857855361596,0.04382151874378675,
0.0657356608478803,0.024122512681943917,
0.06578553615960099,0.04439984193005663,
0.0658354114713217,0.005886373764327078,
0.0658852867830424,0.03640235086209177,
0.06593516209476309,0.03376172391801818,
0.06598503740648379,0.02799568940599977,
0.06603491271820448,-0.0045492802584219325,
0.06608478802992519,0.015586357268057063,
0.06613466334164589,0.014314048180644055,
0.06618453865336658,0.05676783972605645,
0.06623441396508728,-0.011126253659064028,
0.06628428927680798,0.027902282418388623,
0.06633416458852869,-0.002645757937302054,
0.06638403990024938,-0.0029247173654230775,
0.06643391521197008,0.03373110442367122,
0.06648379052369077,0.0510671545708803,
0.06653366583541147,0.02479153375062004,
0.06658354114713216,0.014277428773065476,
0.06663341645885287,0.047375284135192604,
0.06668329177057357,0.021525083145479934,
0.06673316708229426,-0.0011304021876875677,
0.06678304239401496,0.02702097710810702,
0.06683291770573566,0.02714879045660079,
0.06688279301745637,0.005406672041749513,
0.06693266832917706,-0.0033040513763747566,
0.06698254364089776,0.025628446744418,
0.06703241895261845,0.010177467464762061,
0.06708229426433915,-0.0020808726622791353,
0.06713216957605984,0.0021099077575182004,
0.06718204488778055,0.017314216138948874,
0.06723192019950125,0.034078605510813986,
0.06728179551122195,0.03233505522595945,
0.06733167082294264,0.018228690497354882,
0.06738154613466334,-0.004512164709076429,
0.06743142144638405,0.00722760484739727,
0.06748129675810474,0.01814019935166734,
0.06753117206982544,-0.0004728466836156058,
0.06758104738154613,-0.00047224945744926174,
0.06763092269326683,0.024057109215815883,
0.06768079800498752,-0.007979486306105836,
0.06773067331670823,0.02857745976234743,
0.06778054862842893,-0.0024724264121719682,
0.06783042394014963,0.0029216344445115294,
0.06788029925187032,-0.012882239216365558,
0.06793017456359102,0.0257867120020997,
0.06798004987531173,0.002101362691330518,
0.06802992518703242,0.0036347948886946467,
0.06807980049875312,0.03840041904190537,
0.06812967581047381,0.014413213894195604,
0.06817955112219451,-0.01249965949303791,
0.0682294264339152,0.001016392854727947,
0.06827930174563591,0.030583623912583485,
0.06832917705735661,0.0039371248756981565,
0.0683790523690773,0.027981255951292184,
0.068428927680798,0.0127844437700746,
0.0684788029925187,0.024662188653171116,
0.06852867830423941,-0.009130963568035111,
0.0685785536159601,-0.02254413568483783,
0.0686284289276808,0.013077283589109631,
0.0686783042394015,0.020618290508687423,
0.06872817955112219,0.006408633986015703,
0.0687780548628429,-0.011292158527153874,
0.0688279301745636,0.00290674357323322,
0.06887780548628429,-0.025101321791402738,
0.06892768079800499,0.0044020674815466055,
0.06897755610972568,0.005889777386063239,
0.06902743142144638,-0.009915657274704184,
0.06907730673316709,-0.00988645795100599,
0.06912718204488778,-0.00015946719712827003,
0.06917705735660848,0.011872694088571521,
0.06922693266832917,0.033977650144593384,
0.06927680798004987,0.02718887859524274,
0.06932668329177058,0.002021200051639886,
0.06937655860349128,0.016989045014845057,
0.06942643391521197,0.011341728847833726,
0.06947630922693267,0.0030603063745940047,
0.06952618453865336,0.02360729516341895,
0.06957605985037406,0.001525579153744244,
0.06962593516209477,-0.02252700345575896,
0.06967581047381546,-0.006290998342008235,
0.06972568578553616,0.016883928244264705,
0.06977556109725686,0.014390442649345034,
0.06982543640897755,-0.012078007434028955,
0.06987531172069826,-0.008423707674787551,
0.06992518703241896,0.0032703988263812506,
0.06997506234413965,-0.015677060026803948,
0.07002493765586035,-0.01714797771751019,
0.07007481296758104,-0.022266542584748937,
0.07012468827930174,-0.016315263091931778,
0.07017456359102245,0.008366340574838118,
0.07022443890274314,-0.020857514439393883,
0.07027431421446384,0.015988924442311488,
0.07032418952618454,-0.010857616439555276,
0.07037406483790523,0.0030000367146407227,
0.07042394014962594,0.017493629436661114,
0.07047381546134664,0.0012027822191355356,
0.07052369077306733,-0.0008404409721087594,
0.07057356608478803,-0.03171571059858376,
0.07062344139650872,0.003991894104906138,
0.07067331670822943,-0.015711561194488757,
0.07072319201995013,0.0026246647358403492,
0.07077306733167082,-0.03891552689347818,
0.07082294264339152,-0.026756518293209727,
0.07087281795511222,-0.016001864549088838,
0.07092269326683291,0.0037980982660196436,
0.07097256857855362,-0.019132440483945787,
0.07102244389027432,-0.024775627074601615,
0.07107231920199501,-0.013228267803927614,
0.07112219451371571,-0.03694478247647658,
0.0711720698254364,0.011322631604466518,
0.07122194513715711,-0.012527649450568189,
0.07127182044887781,0.014058802865937563,
0.0713216957605985,0.0073215208106660636,
0.0713715710723192,-0.039125993631791985,
0.0714214463840399,0.005126528171017955,
0.07147132169576059,-0.03679575876483016,
0.0715211970074813,0.009769844800741952,
0.071571072319202,-0.008237218674499044,
0.0716209476309227,-0.024619139661056784,
0.07167082294264339,0.0012414474913691777,
0.07172069825436408,-3.141912438754668e-05,
0.0717705735660848,-0.01026335715464461,
0.07182044887780549,-0.013767535811367176,
0.07187032418952619,-0.012144383288727495,
0.07192019950124688,-0.018717334186475365,
0.07197007481296758,-0.03082396238683995,
0.07201995012468827,-0.006885863246854187,
0.07206982543640898,-0.01190084432320107,
0.07211970074812968,-0.006520126404033754,
0.07216957605985037,-0.012696121661466064,
0.07221945137157107,0.01902525056577288,
0.07226932668329177,-0.00920247875097464,
0.07231920199501247,-0.016642041432184396,
0.07236907730673317,-0.018053080955949662,
0.07241895261845387,-0.03767197382858489,
0.07246882793017456,-0.00421478113753266,
0.07251870324189526,-0.027519101288640446,
0.07256857855361595,-0.02325357013313388,
0.07261845386533666,-0.016097932756386657,
0.07266832917705736,0.01726873348827694,
0.07271820448877805,-0.014329550780158799,
0.07276807980049875,-0.004984999870341955,
0.07281795511221945,0.022530055027214103,
0.07286783042394016,-0.0287243004122202,
0.07291770573566085,-0.022136326331573697,
0.07296758104738155,-0.01716416306265124,
0.07301745635910224,-0.01774135146837211,
0.07306733167082294,-0.020717017382897895,
0.07311720698254365,0.012793290217464434,
0.07316708229426434,-0.018355755991038416,
0.07321695760598504,-0.03418985398430024,
0.07326683291770573,-0.015943668650887116,
0.07331670822942643,-0.02084304763863675,
0.07336658354114713,-0.00899536746029702,
0.07341645885286784,-0.03535604018683525,
0.07346633416458853,0.007875986699877692,
0.07351620947630923,-0.009372115606766913,
0.07356608478802992,-0.0019680096575444804,
0.07361596009975062,-0.0013419081326324998,
0.07366583541147133,-0.017115398560529446,
0.07371571072319202,-0.013188768517200262,
0.07376558603491272,-0.0067929353950142955,
0.07381546134663342,0.0012137697437668467,
0.07386533665835411,-0.039215716043687454,
0.0739152119700748,0.008501768616708098,
0.07396508728179552,-0.003133542099978808,
0.07401496259351621,-0.016508043730038398,
0.07406483790523691,0.006428950423342489,
0.0741147132169576,-0.030446926011149043,
0.0741645885286783,0.0014561249311391966,
0.07421446384039901,-0.0445650238709092,
0.0742643391521197,-0.00904845362495162,
0.0743142144638404,-0.014067399841619473,
0.0743640897755611,-0.01365479204035269,
0.07441396508728179,-0.019990280620536774,
0.07446384039900249,-0.007879861173238436,
0.0745137157107232,-0.01526811915454372,
0.07456359102244389,-0.006063739151161752,
0.07461346633416459,-0.031067836259566377,
0.07466334164588528,0.004630761843673581,
0.07471321695760598,-0.00907959725726034,
0.07476309226932669,-0.005081385584161709,
0.07481296758104738,-0.02328946866536043,
0.07486284289276808,-0.027990247353380023,
0.07491271820448878,-0.02784908510813581,
0.07496259351620947,-0.0006084627295330752,
0.07501246882793017,-0.00823678192342777,
0.07506234413965088,-0.021216679620576738,
0.07511221945137157,-0.026905964135653698,
0.07516209476309227,-0.02878249745603559,
0.07521197007481296,-0.009248179797762449,
0.07526184538653366,-0.031542266248370546,
0.07531172069825437,0.0047463219664522285,
0.07536159600997507,-0.015368547082363938,
0.07541147132169576,-0.014326915460974525,
0.07546134663341646,-0.006617502425297077,
0.07551122194513715,-0.00435084295451233,
0.07556109725685786,-0.020968598538988536,
0.07561097256857856,-0.028508743273967137,
0.07566084788029925,0.020089480999682788,
0.07571072319201995,-0.006701830854308066,
0.07576059850374064,-0.003934104169607802,
0.07581047381546134,-0.014555995084745053,
0.07586034912718205,-0.0053881465996492885,
0.07591022443890275,-0.012733623407773145,
0.07596009975062344,-0.006299645565197697,
0.07600997506234414,-0.02348544572041556,
0.07605985037406483,0.007600787454455757,
0.07610972568578554,-0.006937019506562343,
0.07615960099750624,-0.015344920044376285,
0.07620947630922693,-0.002013850281357566,
0.07625935162094763,-0.0028543882642595685,
0.07630922693266833,0.0028219559618060837,
0.07635910224438902,-0.011792456490930431,
0.07640897755610973,0.009977184323447134,
0.07645885286783043,0.007671815551707254,
0.07650872817955112,-0.02817901000990816,
0.07655860349127182,0.012096997367242849,
0.07660847880299251,-0.01508826190904352,
0.07665835411471322,0.0050454480280906835,
0.07670822942643392,-0.008049334191866807,
0.07675810473815461,0.004271058457300928,
0.07680798004987531,0.014525195609876126,
0.076857855361596,0.011372626461322775,
0.0769077306733167,-0.000673280439735891,
0.07695760598503741,0.008766800713957232,
0.0770074812967581,0.0002938882754519316,
0.0770573566084788,0.026822340306927542,
0.0771072319201995,-0.010388766292297416,
0.0771571072319202,0.008484509230625343,
0.0772069825436409,-0.008906013122004723,
0.0772568578553616,-0.004747596678558074,
0.0773067331670823,0.007222144770459939,
0.07735660847880299,-0.004496573795269399,
0.07740648379052369,-0.005383331770461406,
0.0774563591022444,-0.0008118927073140649,
0.07750623441396509,0.021860865188534744,
0.07755610972568579,-0.007404677155387366,
0.07760598503740648,-0.009893541108698256,
0.07765586034912718,-0.002990606031224613,
0.07770573566084787,0.01506686933829842,
0.07775561097256858,0.010818144470515873,
0.07780548628428928,-0.007232082148738299,
0.07785536159600998,-0.0015137905720415176,
0.07790523690773067,-0.001660125911745372,
0.07795511221945137,0.007718206241769534,
0.07800498753117208,0.012409377811505983,
0.07805486284289277,0.002862177220004912,
0.07810473815461347,-0.01993262093400403,
0.07815461346633416,0.007845661984836542,
0.07820448877805486,0.017853045297310022,
0.07825436408977555,0.02911775655216503,
0.07830423940149626,0.034766911136720285,
0.07835411471321696,0.007362997090909875,
0.07840399002493766,0.008613744658702103,
0.07845386533665835,-0.009866670851080372,
0.07850374064837905,0.012019408177175868,
0.07855361596009976,0.010555511440720589,
0.07860349127182045,0.008175047644255907,
0.07865336658354115,-0.007789349062750973,
0.07870324189526184,0.0017247134746857257,
0.07875311720698254,0.0034942803553094995,
0.07880299251870324,0.021949823754208425,
0.07885286783042394,0.015384212782836387,
0.07890274314214464,0.013968181433255298,
0.07895261845386534,0.008557866424067884,
0.07900249376558603,0.0068493071815361115,
0.07905236907730673,0.016749459722986956,
0.07910224438902744,0.004631520509681331,
0.07915211970074813,-0.013832734849692482,
0.07920199501246883,0.02378024253731858,
0.07925187032418952,0.02673267753876393,
0.07930174563591022,-0.008843490883174229,
0.07935162094763092,0.018354004510884037,
0.07940149625935163,-0.0025477209778772703,
0.07945137157107232,0.010213489386573418,
0.07950124688279302,0.012524579462347604,
0.07955112219451371,0.003100979012263085,
0.07960099750623441,0.0038087335130304184,
0.07965087281795512,0.021553544536118574,
0.07970074812967581,0.007168428747772118,
0.07975062344139651,0.02012125745036203,
0.0798004987531172,0.02311469235710312,
0.0798503740648379,0.024153859884278508,
0.07990024937655861,-0.0029102853390688913,
0.0799501246882793,0.007674390340595674,
0.08,0.007544192066992977,
0.0800498753117207,-0.009457516108335284,
0.0800997506234414,0.022465721230930404,
0.08014962593516209,0.01486128469649026,
0.0801995012468828,0.004114446669838425,
0.0802493765586035,0.018824729082169145,
0.08029925187032419,0.006183157442493677,
0.08034912718204489,0.04262036963738322,
0.08039900249376558,0.01544822575091581,
0.08044887780548629,0.01746620542292679,
0.08049875311720699,0.014865062801032324,
0.08054862842892768,0.009293310331018675,
0.08059850374064838,0.005105582227919018,
0.08064837905236907,0.04174069592106948,
0.08069825436408977,0.024426525663388456,
0.08074812967581048,0.01627257973760552,
0.08079800498753117,0.004247934117052165,
0.08084788029925187,0.027650627186770593,
0.08089775561097257,-0.006902557886021721,
0.08094763092269326,0.0071203840174110244,
0.08099750623441397,0.020061969382658987,
0.08104738154613467,0.018525450115247744,
0.08109725685785536,0.018507718977790567,
0.08114713216957606,0.004241606564979364,
0.08119700748129675,0.038763687327510524,
0.08124688279301745,0.019917925866936376,
0.08129675810473816,0.04165984306323924,
0.08134663341645886,-0.02954359092476418,
0.08139650872817955,0.011109518784490314,
0.08144638403990025,0.005618069432062497,
0.08149625935162094,0.03575647711036603,
0.08154613466334165,0.026340123701994768,
0.08159600997506235,0.031106700136588592,
0.08164588528678304,0.035506624833532896,
0.08169576059850374,0.03413813362655917,
0.08174563591022443,0.024393962862677355,
0.08179551122194513,0.05265304170717246,
0.08184538653366584,0.024098384006124927,
0.08189526184538654,0.022702620885476074,
0.08194513715710723,0.025075749875250394,
0.08199501246882793,0.0375581041103424,
0.08204488778054862,0.01212365703903083,
0.08209476309226933,0.031459909715135105,
0.08214463840399003,0.023479490085608432,
0.08219451371571072,0.040659810659683826,
0.08224438902743142,0.04954810461352366,
0.08229426433915212,0.027059481349824353,
0.08234413965087282,0.0170978164068295,
0.08239401496259352,0.03333003526055863,
0.08244389027431422,0.012278322865777616,
0.08249376558603491,0.027116692456808877,
0.08254364089775561,0.02000354949586934,
0.0825935162094763,0.020669597739454558,
0.08264339152119701,0.030801118795764474,
0.08269326683291771,0.025610184538866872,
0.0827431421446384,0.02774257773812641,
0.0827930174563591,0.03645649348180746,
0.0828428927680798,0.05213666097276197,
0.0828927680798005,0.022386768903225145,
0.0829426433915212,0.0072912874785423035,
0.0829925187032419,0.016169072835112465,
0.08304239401496259,0.03267122482848012,
0.08309226932668329,0.04485912524769936,
0.08314214463840398,0.026370320084137037,
0.0831920199501247,0.03626136108567379,
0.08324189526184539,0.013207138178415406,
0.08329177057356608,0.02908453989149077,
0.08334164588528678,0.02709900151900714,
0.08339152119700748,0.030785673398225993,
0.08344139650872819,0.04175086662524552,
0.08349127182044888,0.008951516040580268,
0.08354114713216958,0.03465740688898221,
0.08359102244389027,0.0212516938595326,
0.08364089775561097,0.026988637188757582,
0.08369077306733166,0.0359425382301824,
0.08374064837905237,0.022159252990822553,
0.08379052369077307,0.02945538844684776,
0.08384039900249377,0.0116829386954943,
0.08389027431421446,0.06482536016122821,
0.08394014962593516,0.013255135222274464,
0.08399002493765587,0.030360105538729962,
0.08403990024937656,0.020807369485117622,
0.08408977556109726,0.026492817325194238,
0.08413965087281795,0.03955036336830725,
0.08418952618453865,0.014085322786863516,
0.08423940149625936,0.03635461056066541,
0.08428927680798005,0.043716921767236835,
0.08433915211970075,0.04153126526400214,
0.08438902743142145,0.011687996927768613,
0.08443890274314214,0.03571465974470485,
0.08448877805486284,0.005623784480710749,
0.08453865336658355,0.02723721755919206,
0.08458852867830424,0.051423667423175945,
0.08463840399002494,0.009903794506497234,
0.08468827930174563,0.054769675287923966,
0.08473815461346633,0.016939286558266972,
0.08478802992518704,0.02888458012710244,
0.08483790523690773,0.02650810624891322,
0.08488778054862843,-0.002997616745092156,
0.08493765586034913,0.0532011169169052,
0.08498753117206982,0.032213327414581036,
0.08503740648379052,0.0030791920757760535,
0.08508728179551123,0.06441559167483923,
0.08513715710723192,0.0017434160032292062,
0.08518703241895262,0.04770846737385725,
0.08523690773067331,0.020157780289897235,
0.08528678304239401,0.024317718104594665,
0.08533665835411472,0.014213265763548881,
0.08538653366583542,0.03384182650726473,
0.08543640897755611,0.010820464617328945,
0.0854862842892768,0.015537482737022466,
0.0855361596009975,0.005991252286906546,
0.0855860349127182,0.022307178336252977,
0.08563591022443891,0.027545406827838466,
0.0856857855361596,0.032512033608398716,
0.0857356608478803,0.006812572649780198,
0.085785536159601,0.036073729639513975,
0.08583541147132169,0.01848793032069307,
0.0858852867830424,0.0159975613728367,
0.0859351620947631,0.010492697519702084,
0.08598503740648379,0.02853938939790986,
0.08603491271820449,-0.01108123957185846,
0.08608478802992518,0.021145402037965527,
0.08613466334164588,0.013192836553603517,
0.08618453865336659,0.04661863362353744,
0.08623441396508728,0.021153597208109137,
0.08628428927680798,0.015438019257843005,
0.08633416458852868,0.011904329720617255,
0.08638403990024937,0.021677790746449,
0.08643391521197008,0.030604083019302515,
0.08648379052369078,0.015642543533626128,
0.08653366583541147,0.009111966634506512,
0.08658354114713217,0.03441584048117255,
0.08663341645885286,0.02991781677326847,
0.08668329177057357,0.013537467666995286,
0.08673316708229427,0.02196737236392489,
0.08678304239401496,0.016551517796438053,
0.08683291770573566,0.005576141080170266,
0.08688279301745636,0.05963209033195058,
0.08693266832917705,-0.008141464938880419,
0.08698254364089776,0.012058886213193277,
0.08703241895261846,0.022538394038671083,
0.08708229426433915,0.02110415466762014,
0.08713216957605985,-0.003979831572137906,
0.08718204488778054,0.015558138084325905,
0.08723192019950125,0.025230360578371344,
0.08728179551122195,0.021391553342740607,
0.08733167082294264,0.01935138170523192,
0.08738154613466334,0.029545611049800843,
0.08743142144638404,0.03702869289817132,
0.08748129675810473,-0.013179172622209072,
0.08753117206982544,0.010035478381377673,
0.08758104738154614,0.007126169800796204,
0.08763092269326683,0.0017893580908591115,
0.08768079800498753,0.008642792018712368,
0.08773067331670822,-0.013437686105552123,
0.08778054862842893,0.014901560752510964,
0.08783042394014963,0.004421567015053621,
0.08788029925187033,-0.016706035448215684,
0.08793017456359102,0.006263992306658493,
0.08798004987531172,0.00197265038076766,
0.08802992518703241,-0.005033349153453843,
0.08807980049875312,0.014488259401641088,
0.08812967581047382,0.014524256995728561,
0.08817955112219451,0.016567651669019814,
0.08822942643391521,0.010504370536364438,
0.0882793017456359,0.01531126048127723,
0.08832917705735661,-0.006571492555082702,
0.08837905236907731,0.007487555385220359,
0.088428927680798,0.0035022803706407065,
0.0884788029925187,-0.009316654536261067,
0.0885286783042394,-0.008855190412714924,
0.0885785536159601,0.006868398141036135,
0.0886284289276808,-0.0002727319275436617,
0.0886783042394015,0.0031878544681597006,
0.0887281795511222,0.0011318709185669665,
0.08877805486284289,-0.026676726991710028,
0.08882793017456359,-0.007341020392975095,
0.0888778054862843,-0.0023950765849952652,
0.08892768079800499,-0.002315127457151548,
0.08897755610972569,0.00683137505666432,
0.08902743142144638,0.014700428362367356,
0.08907730673316708,0.00518087150340738,
0.08912718204488779,0.014774857454612192,
0.08917705735660848,-0.0024910088833071933,
0.08922693266832918,-0.015780126279760436,
0.08927680798004987,-0.010713475398280652,
0.08932668329177057,0.015891464204984315,
0.08937655860349127,-0.02350004865874309,
0.08942643391521198,0.004027135059294525,
0.08947630922693267,0.0032381824084561106,
0.08952618453865337,0.03772874278082756,
0.08957605985037406,-0.005073101468596686,
0.08962593516209476,-0.0048368397725779295,
0.08967581047381547,0.01835622278506601,
0.08972568578553616,0.02378705412422536,
0.08977556109725686,0.004941060337122928,
0.08982543640897755,-0.0010729218445529427,
0.08987531172069825,0.008272930833526714,
0.08992518703241895,-0.001302035925128081,
0.08997506234413966,-0.02948548057225943,
0.09002493765586035,0.003406807215540826,
0.09007481296758105,0.02014923650889563,
0.09012468827930174,-0.011388329770305721,
0.09017456359102244,-0.006122583964930973,
0.09022443890274315,0.00624149026283137,
0.09027431421446384,0.0014493032548007507,
0.09032418952618454,-0.021382447826857214,
0.09037406483790524,0.010944127860744474,
0.09042394014962593,0.025765073526732095,
0.09047381546134663,-0.03612053940009426,
0.09052369077306734,0.013717401029821642,
0.09057356608478803,0.006192102796099982,
0.09062344139650873,0.0006338854817762472,
0.09067331670822942,-0.019421475648950887,
0.09072319201995012,-0.0038235721051072783,
0.09077306733167083,-0.010476575288063388,
0.09082294264339152,-0.016790078726323494,
0.09087281795511222,-0.00976552051791868,
0.09092269326683292,-0.0209274710513749,
0.09097256857855361,-0.017808393355706057,
0.09102244389027432,0.00040266936374595136,
0.09107231920199502,-0.015620897936146575,
0.09112219451371571,-0.008127190568075426,
0.09117206982543641,-0.01610812072160214,
0.0912219451371571,-0.019336259240292225,
0.0912718204488778,-0.023013829780926254,
0.09132169576059851,-0.01304996977364328,
0.0913715710723192,-0.018874027185512683,
0.0914214463840399,-0.06159103043289517,
0.0914713216957606,-0.0004490328659561126,
0.09152119700748129,-0.011740123628996124,
0.091571072319202,-0.010973240997542655,
0.0916209476309227,-0.00383459709802349,
0.09167082294264339,-0.0236741247098379,
0.09172069825436409,0.012876108351910305,
0.09177057356608478,0.0032961671818250698,
0.09182044887780548,-0.0034311731721418043,
0.09187032418952619,-0.024274169510697836,
0.09192019950124689,-0.020779821960055764,
0.09197007481296758,-0.016932100733574013,
0.09201995012468828,-0.009698375963986086,
0.09206982543640897,-0.025176089771295526,
0.09211970074812968,-0.027285395219458882,
0.09216957605985038,-0.004006298421729789,
0.09221945137157107,-0.02564139151769259,
0.09226932668329177,-0.00023213511048534273,
0.09231920199501246,-0.021510106735940716,
0.09236907730673316,-0.03195332839067545,
0.09241895261845387,-0.0030075342633127927,
0.09246882793017457,0.006240861891752235,
0.09251870324189526,-0.038721137341342096,
0.09256857855361596,0.002680865916427657,
0.09261845386533665,-0.03574963834862399,
0.09266832917705736,-0.021424404782060938,
0.09271820448877806,-0.009129469464335646,
0.09276807980049875,-0.003961719629362776,
0.09281795511221945,-0.005608552104228422,
0.09286783042394015,-0.019714220080143837,
0.09291770573566084,-0.008907092594905422,
0.09296758104738155,-0.00276573866786658,
0.09301745635910225,0.0013493483370648832,
0.09306733167082294,-0.026476640492167844,
0.09311720698254364,-0.005631988081985292,
0.09316708229426433,0.002829996330989338,
0.09321695760598504,-0.015040907639086753,
0.09326683291770574,-0.007718723477795908,
0.09331670822942643,0.0025073124164668135,
0.09336658354114713,0.007989945593558406,
0.09341645885286783,-0.01439615507654919,
0.09346633416458854,0.0009917278928299172,
0.09351620947630923,-0.017039721487104642,
0.09356608478802993,-0.028369042149819765,
0.09361596009975062,-0.03003989521945093,
0.09366583541147132,0.005828357125583236,
0.09371571072319201,-0.024741270984541867,
0.09376558603491272,0.003967521910377778,
0.09381546134663342,-0.0023234497481447146,
0.09386533665835411,-0.03157539415361886,
0.09391521197007481,-0.03332466097352475,
0.0939650872817955,0.0168226525383352,
0.09401496259351622,-0.012568238934835222,
0.09406483790523691,-0.017093871761770022,
0.09411471321695761,-0.01817250720065194,
0.0941645885286783,-0.0037484680810164032,
0.094214463840399,-0.007687622729844334,
0.0942643391521197,-0.018712593892080426,
0.0943142144638404,-0.008742781301078027,
0.0943640897755611,0.0002727884441862966,
0.0944139650872818,-0.008740537684068298,
0.09446384039900249,-0.009036259733666003,
0.09451371571072319,-0.014327325279523037,
0.0945635910224439,-0.01961691580829429,
0.09461346633416459,0.0023481139523661015,
0.09466334164588529,0.008505629454408255,
0.09471321695760598,-0.021192103238547977,
0.09476309226932668,0.004479406553014896,
0.09481296758104737,0.007214183396545254,
0.09486284289276808,0.01062584838261553,
0.09491271820448878,0.0008928421351721109,
0.09496259351620948,-0.03773781881864383,
0.09501246882793017,-0.01969358625765291,
0.09506234413965087,-0.013020489109830322,
0.09511221945137158,-0.020519502265097505,
0.09516209476309227,-0.009143288156306668,
0.09521197007481297,-0.039167327105357044,
0.09526184538653366,-0.011296853687472278,
0.09531172069825436,0.017044688411879685,
0.09536159600997507,0.01881555167689266,
0.09541147132169576,-0.023964118075401983,
0.09546134663341646,-0.03152416877462999,
0.09551122194513716,-0.01019054452070868,
0.09556109725685785,0.009844236502008472,
0.09561097256857855,-0.020819609839782146,
0.09566084788029926,-0.019943724424122206,
0.09571072319201995,0.025326522593700794,
0.09576059850374065,0.008508711083020988,
0.09581047381546134,-0.01679870269773892,
0.09586034912718204,-0.01851148003075049,
0.09591022443890275,0.0037442301011716035,
0.09596009975062345,0.011080651147950166,
0.09600997506234414,-0.027911620952585384,
0.09605985037406484,-0.027435946863546303,
0.09610972568578553,0.011552011600294794,
0.09615960099750623,-0.012482312321746025,
0.09620947630922694,0.0036762813662366885,
0.09625935162094763,-0.004557581429028841,
0.09630922693266833,0.007236893584596999,
0.09635910224438902,0.025101372424045493,
0.09640897755610972,0.0129802645708889,
0.09645885286783043,0.017685962538354257,
0.09650872817955113,-0.017843359469466614,
0.09655860349127182,0.0004473575795483249,
0.09660847880299252,-0.00647838366204028,
0.09665835411471321,0.009105416690384838,
0.09670822942643391,-0.009995250977316478,
0.09675810473815462,-0.0006181407892821441,
0.09680798004987531,0.007846404051583376,
0.09685785536159601,0.001593623685264679,
0.0969077306733167,0.02301654801557855,
0.0969576059850374,0.00012004179700339599,
0.09700748129675811,0.005248390947647,
0.0970573566084788,-0.01567482777921624,
0.0971072319201995,0.009283561599048865,
0.0971571072319202,-0.03165858296314902,
0.0972069825436409,-0.010924468443091698,
0.09725685785536159,0.017604484306651427,
0.0973067331670823,0.015163590685135368,
0.097356608478803,0.007932373952068209,
0.09740648379052369,-0.006684549591706821,
0.09745635910224439,-0.014619389486707962,
0.09750623441396508,0.010408498590503074,
0.09755610972568579,0.023556276472588376,
0.09760598503740649,0.006469536666547215,
0.09765586034912718,-0.0015028914487565858,
0.09770573566084788,-0.01359748994264338,
0.09775561097256857,-0.0021017266789209064,
0.09780548628428928,0.001713052649438192,
0.09785536159600998,-0.015132142182420604,
0.09790523690773068,-0.006468032986442752,
0.09795511221945137,0.01624124214244664,
0.09800498753117207,0.019075667820792563,
0.09805486284289276,-0.032381858591643095,
0.09810473815461347,0.02751392534108074,
0.09815461346633417,-0.009488898418540878,
0.09820448877805486,0.04441260973857983,
0.09825436408977556,-0.005262786359059186,
0.09830423940149625,-0.014620178313800547,
0.09835411471321696,0.02067801602508757,
0.09840399002493766,0.023172930675448324,
0.09845386533665836,-0.0010852584529555233,
0.09850374064837905,-0.008464205974169315,
0.09855361596009975,0.01836660983718652,
0.09860349127182044,0.01838513582320484,
0.09865336658354115,0.0030491358485674573,
0.09870324189526185,0.03427388945613853,
0.09875311720698254,0.01700763931422176,
0.09880299251870324,0.00769876286396517,
0.09885286783042393,0.006232760555673381,
0.09890274314214464,-0.00819657019641438,
0.09895261845386534,-0.005163016154756077,
0.09900249376558604,-0.012532001111765528,
0.09905236907730673,0.0365839588935864,
0.09910224438902743,0.00572506996787921,
0.09915211970074812,0.012888727255122401,
0.09920199501246883,0.020239131875365128,
0.09925187032418953,0.014112367811211397,
0.09930174563591022,-0.012606069578104786,
0.09935162094763092,0.018282660924505686,
0.09940149625935162,0.007484035832888126,
0.09945137157107233,0.0024378426933250805,
0.09950124688279302,0.0024746451017587986,
0.09955112219451372,0.011767906104291495,
0.09960099750623441,0.021691904862818467,
0.09965087281795511,0.022357591707093217,
0.0997007481296758,0.015635542437390182,
0.09975062344139651,-0.007468438126408839,
0.09980049875311721,0.023801674753196767,
0.0998503740648379,0.020321022123496194,
0.0999002493765586,0.03130603873527553,
0.0999501246882793,0.015985885604732842,
0.1,0.01384009144851903,
0.1000498753117207,0.027868185111294446,
0.1000997506234414,0.019021171739222006,
0.10014962593516209,0.004451536168312538,
0.10019950124688279,0.015822592195126203,
0.1002493765586035,0.04258966140871173,
0.1002992518703242,0.009510729685409567,
0.10034912718204489,0.02261018501252034,
0.10039900249376559,0.031126582418111635,
0.10044887780548628,0.02347056875336875,
0.10049875311720698,-0.003621708687933347,
0.10054862842892769,0.030912491698208,
0.10059850374064838,0.05932293806543141,
0.10064837905236908,0.03074236864983057,
0.10069825436408977,0.025265758961645332,
0.10074812967581047,0.032365937802683625,
0.10079800498753118,0.032760073772386926,
0.10084788029925187,0.00983883083350599,
0.10089775561097257,0.03088478920979843,
0.10094763092269327,-0.004401248803640446,
0.10099750623441396,0.022048903756856978,
0.10104738154613466,0.06277865612839419,
0.10109725685785537,0.016205301297489507,
0.10114713216957606,0.0075569481067209315,
0.10119700748129676,0.03549497832401251,
0.10124688279301745,0.016572951296781695,
0.10129675810473815,0.01246968111232763,
0.10134663341645886,0.02740485895932405,
0.10139650872817955,0.03534281100025059,
0.10144638403990025,0.010229910700281472,
0.10149625935162095,0.0446244459485302,
0.10154613466334164,0.025572503560228405,
0.10159600997506234,0.006181583439435628,
0.10164588528678305,0.038228947872520555,
0.10169576059850374,0.012735104509629967,
0.10174563591022444,0.02457486168548208,
0.10179551122194513,0.0411740492836654,
0.10184538653366583,0.02311730714502656,
0.10189526184538654,0.004283888658173172,
0.10194513715710724,0.01037213438327948,
0.10199501246882793,0.04722947123764876,
0.10204488778054863,0.08512561315700824,
0.10209476309226932,-0.000767694973125517,
0.10214463840399003,0.019351733798986255,
0.10219451371571073,0.0479920712924007,
0.10224438902743142,0.04300100704266907,
0.10229426433915212,0.03912792403244332,
0.10234413965087281,0.035310594056650414,
0.10239401496259351,0.04140468583606597,
0.10244389027431422,0.02161536030222407,
0.10249376558603492,0.023258726686049322,
0.10254364089775561,0.019902542769510284,
0.10259351620947631,0.02002054351617294,
0.102643391521197,0.012281369554170892,
0.10269326683291771,0.0005280574408791233,
0.10274314214463841,0.04281910913418671,
0.1027930174563591,0.01579626465326059,
0.1028428927680798,0.012968919325539702,
0.1028927680798005,0.03834516123473706,
0.10294264339152119,0.02154853360587951,
0.1029925187032419,0.030296976371609257,
0.1030423940149626,0.04057836504257264,
0.10309226932668329,0.02304401530744691,
0.10314214463840399,0.04092248468723913,
0.10319201995012468,0.0320238172941461,
0.10324189526184539,0.05872987294951942,
0.10329177057356609,0.037983193107448576,
0.10334164588528678,-0.0029900047326794077,
0.10339152119700748,0.014627562618553051,
0.10344139650872818,0.058860753895778814,
0.10349127182044887,0.029477452005610118,
0.10354114713216958,0.039948701706298946,
0.10359102244389028,0.0331562779327444,
0.10364089775561097,0.02906462389712218,
0.10369077306733167,0.01679083473677858,
0.10374064837905236,0.017548475770350888,
0.10379052369077307,0.02496610861457067,
0.10384039900249377,0.030437867505576033,
0.10389027431421446,0.029797914294104978,
0.10394014962593516,0.021174913106284703,
0.10399002493765586,0.007993207544625167,
0.10403990024937655,0.02002246536961797,
0.10408977556109726,0.02532025110977682,
0.10413965087281796,0.025864807953383633,
0.10418952618453865,0.04480229009195968,
0.10423940149625935,0.04236203820655467,
0.10428927680798004,0.03292283921118927,
0.10433915211970075,0.03799613524921314,
0.10438902743142145,0.022630236933051974,
0.10443890274314215,0.009820145169804569,
0.10448877805486284,0.04710357747545613,
0.10453865336658354,0.032183705423443586,
0.10458852867830425,0.018420604046170148,
0.10463840399002494,0.022030940634333283,
0.10468827930174564,0.0375705087246571,
0.10473815461346633,0.04690666943763963,
0.10478802992518703,0.004987161057858933,
0.10483790523690772,0.01752229033951576,
0.10488778054862843,0.02299162858292277,
0.10493765586034913,0.02437396438243739,
0.10498753117206983,0.03019520642549987,
0.10503740648379052,0.016274514100112568,
0.10508728179551122,0.0038426749404681902,
0.10513715710723193,0.01582627919913753,
0.10518703241895262,0.011923291515045231,
0.10523690773067332,0.03978358816446614,
0.10528678304239401,0.008524392993776279,
0.10533665835411471,0.025257786903270307,
0.1053865336658354,0.01851908053542381,
0.10543640897755611,0.045321561538189586,
0.10548628428927681,0.020709129607559485,
0.1055361596009975,0.023422689073041,
0.1055860349127182,-0.0010367844200863882,
0.1056359102244389,0.013983149405332818,
0.10568578553615961,0.029899239525443818,
0.1057356608478803,0.04389226575834106,
0.105785536159601,0.01679631954470665,
0.1058354114713217,0.032670182979156616,
0.10588528678304239,0.019481676786473355,
0.10593516209476309,-0.0043753536187166354,
0.1059850374064838,0.01068782852966503,
0.10603491271820449,0.012021075717261511,
0.10608478802992519,0.02944990750541216,
0.10613466334164588,0.026175883474133185,
0.10618453865336658,0.01253251098271579,
0.10623441396508729,0.028259267544551128,
0.10628428927680798,0.003731312889757872,
0.10633416458852868,0.033930600565456846,
0.10638403990024937,0.019335114887867304,
0.10643391521197007,0.006105672563691397,
0.10648379052369077,0.012118759248517259,
0.10653366583541148,-0.007645398196919381,
0.10658354114713217,0.030036072654525847,
0.10663341645885287,0.024030714853691484,
0.10668329177057356,0.023527134389621375,
0.10673316708229426,0.02534009702693369,
0.10678304239401497,0.012719769948503391,
0.10683291770573566,0.028177301783181636,
0.10688279301745636,0.02393628417915853,
0.10693266832917706,0.017735141678687723,
0.10698254364089775,-0.006076532048996303,
0.10703241895261846,0.01715532177941721,
0.10708229426433916,0.010380857786983982,
0.10713216957605985,0.011481914521334844,
0.10718204488778055,0.01589375143297129,
0.10723192019950124,0.009964367853294284,
0.10728179551122194,0.019020568409904133,
0.10733167082294265,-0.0136548276439305,
0.10738154613466334,0.022800533560004894,
0.10743142144638404,0.02389646416675217,
0.10748129675810474,0.01658181303591167,
0.10753117206982543,0.02014539041534223,
0.10758104738154614,0.035810355393142396,
0.10763092269326684,0.03689375881703956,
0.10768079800498753,0.03645249217766742,
0.10773067331670823,-0.015612610509273563,
0.10778054862842892,0.008586861965501593,
0.10783042394014962,0.012721986535679592,
0.10788029925187033,0.029886185000314522,
0.10793017456359102,0.0032947611082361355,
0.10798004987531172,-0.005986186208604517,
0.10802992518703242,0.005884933535981694,
0.10807980049875311,0.013417794358021002,
0.10812967581047382,-0.005688156869280231,
0.10817955112219452,0.013759730896490675,
0.10822942643391521,-0.02159224788284902,
0.10827930174563591,-0.006595507639523986,
0.1083291770573566,0.002140990303732805,
0.1083790523690773,0.019643561210016494,
0.10842892768079801,0.02137777521108828,
0.1084788029925187,0.016133919263666988,
0.1085286783042394,0.02443211590590609,
0.1085785536159601,0.0060937270889374,
0.10862842892768079,0.013413142438950617,
0.1086783042394015,0.026268607868729324,
0.1087281795511222,-0.0015400321887913543,
0.1087780548628429,0.004577629580976755,
0.10882793017456359,-0.008341653843219148,
0.10887780548628428,0.011158587442581892,
0.108927680798005,0.011825521486644364,
0.10897755610972569,0.009587416105508895,
0.10902743142144639,0.045016539884536605,
0.10907730673316708,0.014849578333338467,
0.10912718204488778,0.0025947169830230457,
0.10917705735660847,0.001066880933109885,
0.10922693266832918,-0.003735527959689351,
0.10927680798004988,-0.016386764919686853,
0.10932668329177057,0.007090727604639989,
0.10937655860349127,0.0008850651324814399,
0.10942643391521197,0.006314161136337811,
0.10947630922693267,-0.0008405850747295446,
0.10952618453865337,-0.003878688212221775,
0.10957605985037407,-0.011732345531557668,
0.10962593516209476,0.021313091294973097,
0.10967581047381546,-0.01318962660169432,
0.10972568578553615,-0.015362526245835919,
0.10977556109725686,0.01856280985090815,
0.10982543640897756,-0.007052932163587072,
0.10987531172069825,0.02480877511694867,
0.10992518703241895,0.013950261048050668,
0.10997506234413965,0.004046071381188003,
0.11002493765586036,0.0016029358816681966,
0.11007481296758105,-0.009924140937120452,
0.11012468827930175,0.009105542212209885,
0.11017456359102244,-0.005918926648648858,
0.11022443890274314,-0.026884750798705198,
0.11027431421446383,0.01337936434687083,
0.11032418952618454,0.0003253881814989459,
0.11037406483790524,-0.027741093134367102,
0.11042394014962593,0.0031784290224475143,
0.11047381546134663,-0.0018082816695914323,
0.11052369077306733,-0.0052522623313764494,
0.11057356608478804,0.024425989835491026,
0.11062344139650873,0.006791251376011073,
0.11067331670822943,-0.017430882976265154,
0.11072319201995012,-0.005977104901863262,
0.11077306733167082,-0.01780850563277109,
0.11082294264339151,-0.00781950038500264,
0.11087281795511222,0.010982055405145647,
0.11092269326683292,0.003731130606391842,
0.11097256857855362,0.005717558866461608,
0.11102244389027431,-0.025116337591054298,
0.111072319201995,-0.005352702675920096,
0.11112219451371572,-0.013690810237618003,
0.11117206982543641,0.004133279089774712,
0.11122194513715711,0.0057034085065894476,
0.1112718204488778,-0.0037766994525491376,
0.1113216957605985,-0.011110726789523996,
0.11137157107231921,-0.024560939337089527,
0.1114214463840399,0.006646033524359302,
0.1114713216957606,-0.01938298831826072,
0.1115211970074813,-0.033827018125191316,
0.11157107231920199,-0.03051101907731056,
0.11162094763092269,0.0034582719599206106,
0.1116708229426434,0.011953507813309306,
0.11172069825436409,-0.017164181995851076,
0.11177057356608479,0.0004885861152970801,
0.11182044887780548,-0.007223435794718449,
0.11187032418952618,0.019465086843513682,
0.11192019950124689,-0.002186623606164291,
0.11197007481296758,-0.007388245149266486,
0.11201995012468828,-0.026065625371858296,
0.11206982543640898,-0.004399197259269025,
0.11211970074812967,-0.027247066089599883,
0.11216957605985037,-0.018076316279691647,
0.11221945137157108,0.008081128049498228,
0.11226932668329177,-0.00949661756576902,
0.11231920199501247,-0.014112692153574417,
0.11236907730673316,-0.015683107145777832,
0.11241895261845386,0.0023350206678682244,
0.11246882793017457,0.02790200404695135,
0.11251870324189527,-0.016481242374314822,
0.11256857855361596,-0.00990183317728815,
0.11261845386533666,-0.006403699809930027,
0.11266832917705735,-0.007420097537507082,
0.11271820448877805,-0.026061352009350232,
0.11276807980049876,0.022487120472866287,
0.11281795511221945,-0.014600016138823176,
0.11286783042394015,0.010134591711761195,
0.11291770573566084,-0.019791792334742,
0.11296758104738154,-0.03415735267010732,
0.11301745635910225,-0.02396758088168709,
0.11306733167082295,-0.028620035562687544,
0.11311720698254364,-0.003202816967839592,
0.11316708229426434,-0.018023266502132842,
0.11321695760598503,-0.010661976539443395,
0.11326683291770574,0.005506808831356904,
0.11331670822942644,-0.043849540124954955,
0.11336658354114713,-0.0037019336956054605,
0.11341645885286783,-0.004770142779803239,
0.11346633416458853,-0.038236375424786494,
0.11351620947630922,-0.015003732705561004,
0.11356608478802993,-0.012312912146712667,
0.11361596009975063,0.001579871779936735,
0.11366583541147132,-0.040126189989337376,
0.11371571072319202,-0.009439821095002587,
0.11376558603491271,-0.009492232460067262,
0.11381546134663342,-0.0012076054274433815,
0.11386533665835412,-0.02220437521999182,
0.11391521197007481,-0.007157795634269557,
0.11396508728179551,-0.009266847416450593,
0.1140149625935162,-0.015757550971067232,
0.1140648379052369,0.005751200184943314,
0.11411471321695761,-0.0010555776965006508,
0.1141645885286783,-0.03579971836413185,
0.114214463840399,-0.01874581555188239,
0.1142643391521197,-0.005874977287949077,
0.1143142144638404,0.004613845924777029,
0.1143640897755611,0.00788218891105897,
0.1144139650872818,-0.016601315176041524,
0.1144638403990025,-0.019201394109869045,
0.11451371571072319,0.0021950038785711907,
0.11456359102244389,-0.0226524285121512,
0.11461346633416458,-0.013339652432711954,
0.11466334164588529,0.018843722240613196,
0.11471321695760599,-0.005364792588236343,
0.11476309226932668,-0.007090628783613197,
0.11481296758104738,0.012817775700770254,
0.11486284289276807,0.008031975369841772,
0.11491271820448878,-0.041992581882649455,
0.11496259351620948,0.0028366629673925014,
0.11501246882793018,-0.011449332568229696,
0.11506234413965087,0.014910154475188552,
0.11511221945137157,0.007359955064307963,
0.11516209476309226,-0.027354665446615183,
0.11521197007481297,0.029118238564080138,
0.11526184538653367,-0.030064320961806973,
0.11531172069825436,-0.022940686636107974,
0.11536159600997506,0.007619527831186227,
0.11541147132169575,-0.012511513965872944,
0.11546134663341646,-0.0009161359784158746,
0.11551122194513716,-0.0020755966750286335,
0.11556109725685786,0.01087286501987109,
0.11561097256857855,-0.005646173698171528,
0.11566084788029925,-0.008672457228406387,
0.11571072319201996,0.002922006929995247,
0.11576059850374065,-0.0010522583972322952,
0.11581047381546135,-0.009812466593211321,
0.11586034912718204,0.009294752636770105,
0.11591022443890274,-0.0017732177258336693,
0.11596009975062344,-0.0006754442846323297,
0.11600997506234415,0.011840164163748414,
0.11605985037406484,0.02410464591464198,
0.11610972568578554,-0.022482230167310255,
0.11615960099750623,-0.017349292278329285,
0.11620947630922693,-0.011307725051468147,
0.11625935162094764,-0.028277013158888552,
0.11630922693266833,0.02163638155245271,
0.11635910224438903,-0.005242806139478633,
0.11640897755610972,-0.027538735008663703,
0.11645885286783042,-0.0011376917166405942,
0.11650872817955112,0.0036671277681780134,
0.11655860349127183,-0.0002084181746169031,
0.11660847880299252,0.0011684759130896976,
0.11665835411471322,0.006054998397074553,
0.11670822942643391,-0.0027243755263309166,
0.11675810473815461,0.021471060118807693,
0.11680798004987532,-0.029162305659482857,
0.11685785536159601,0.002551185398995115,
0.11690773067331671,-0.01738837157264569,
0.1169576059850374,-0.003204058386952939,
0.1170074812967581,-0.014561351248052728,
0.1170573566084788,0.019474173790007987,
0.1171072319201995,-0.0009604698878660327,
0.1171571072319202,0.009697381585185452,
0.1172069825436409,-0.0001625101609232201,
0.1172568578553616,-0.0040903125603530405,
0.11730673316708229,-0.0007216725101201432,
0.117356608478803,0.00936337892843292,
0.1174064837905237,-0.017136638346409168,
0.11745635910224439,0.017086936223687017,
0.11750623441396509,-0.002710504666010508,
0.11755610972568578,0.0025268671962741444,
0.11760598503740648,0.01834735053068186,
0.11765586034912719,-0.006997162507384197,
0.11770573566084788,0.01884893324519407,
0.11775561097256858,0.028028808105531502,
0.11780548628428927,0.018275216449104275,
0.11785536159600997,-0.012126492326897295,
0.11790523690773068,-0.03224503018175724,
0.11795511221945137,0.0067973683472063555,
0.11800498753117207,0.006905407853332257,
0.11805486284289277,-0.003759044466983578,
0.11810473815461346,0.005691959649294214,
0.11815461346633417,-0.0032899054315004284,
0.11820448877805487,0.027638663034677227,
0.11825436408977556,0.016387644609079863,
0.11830423940149626,-0.007712823778573663,
0.11835411471321695,0.04718497303353801,
0.11840399002493765,0.02882696083950591,
0.11845386533665836,0.002400542560866906,
0.11850374064837906,0.029410012530659987,
0.11855361596009975,0.009973837040969536,
0.11860349127182045,-0.010753631889892788,
0.11865336658354114,0.00955806945012663,
0.11870324189526185,-0.010049976122528717,
0.11875311720698255,0.009901783825103894,
0.11880299251870324,-0.0038255848093539067,
0.11885286783042394,0.014584170162546312,
0.11890274314214463,0.0007124770152100758,
0.11895261845386533,0.024735223326746075,
0.11900249376558604,0.003236277758379997,
0.11905236907730674,0.002180288607952295,
0.11910224438902743,0.009451571105713503,
0.11915211970074813,0.03132435947000432,
0.11920199501246882,0.01970123050200252,
0.11925187032418953,0.018685573300714083,
0.11930174563591023,0.011912504622443665,
0.11935162094763092,0.017557508311959014,
0.11940149625935162,0.012575534852100188,
0.11945137157107232,0.005402408999117519,
0.11950124688279301,-0.010041814379234862,
0.11955112219451372,0.022298993843923812,
0.11960099750623442,0.04594503477959668,
0.11965087281795511,0.027447474536430025,
0.11970074812967581,0.03608355448963155,
0.1197506234413965,-0.0106335529382443,
0.11980049875311721,0.016221758283671676,
0.11985037406483791,0.0025269719803978213,
0.1199002493765586,-0.003465585201560477,
0.1199501246882793,0.00262285166183095,
0.12,0.0017905921617451144,
0.1200498753117207,-0.0007865778947415761,
0.1200997506234414,0.023422648099065427,
0.1201496259351621,0.03836854696572652,
0.12019950124688279,0.017167617997807753,
0.12024937655860349,0.017547836595054274,
0.12029925187032418,0.028754727114023267,
0.1203491271820449,0.030046000117930897,
0.12039900249376559,0.026269786735634282,
0.12044887780548628,0.012885440106712278,
0.12049875311720698,0.012624133927503646,
0.12054862842892768,0.037456879156926734,
0.12059850374064839,0.04140940498733277,
0.12064837905236908,0.022788541776755246,
0.12069825436408978,0.012920580510859604,
0.12074812967581047,0.013660970138813587,
0.12079800498753117,0.01734954848310659,
0.12084788029925186,0.025814746149581576,
0.12089775561097257,0.017694526778899773,
0.12094763092269327,0.013175896044929006,
0.12099750623441397,0.048576391911384714,
0.12104738154613466,0.038377962557873985,
0.12109725685785536,0.028000000359505024,
0.12114713216957607,-0.015098275878052528,
0.12119700748129676,0.03527327820236608,
0.12124688279301746,0.027118562002283415,
0.12129675810473815,0.019354371170323726,
0.12134663341645885,0.033431222513149776,
0.12139650872817954,0.03683313671673261,
0.12144638403990025,0.036732139931440824,
0.12149625935162095,0.015973827015024224,
0.12154613466334165,0.03932257930865733,
0.12159600997506234,0.03792577915071643,
0.12164588528678304,0.01346251401028581,
0.12169576059850375,0.021542741279262277,
0.12174563591022444,0.04203988626331841,
0.12179551122194514,0.053049317503750956,
0.12184538653366583,0.03965211749723002,
0.12189526184538653,0.015298427614869155,
0.12194513715710723,0.06453831029975551,
0.12199501246882793,0.03565086419509263,
0.12204488778054863,0.010109719758076025,
0.12209476309226933,0.03339402073054887,
0.12214463840399002,0.037308415444904354,
0.12219451371571072,0.048323792696195,
0.12224438902743143,0.018010574042704362,
0.12229426433915212,-0.015458694272624796,
0.12234413965087282,0.04264009574562533,
0.12239401496259351,0.02784276146181543,
0.12244389027431421,0.023525084561833262,
0.12249376558603492,0.021160453394144622,
0.12254364089775562,0.03561231179047083,
0.12259351620947631,0.034312232875754495,
0.122643391521197,0.03556877337029474,
0.1226932668329177,-0.0030971418991905565,
0.1227431421446384,0.025965360452670953,
0.12279301745635911,0.015906404639681508,
0.1228428927680798,0.016529373941114756,
0.1228927680798005,0.02023405042392558,
0.1229426433915212,0.02879391342975576,
0.12299251870324189,0.023741471765167922,
0.1230423940149626,0.03733988475365599,
0.1230922693266833,0.03134879640868453,
0.12314214463840399,0.01762053378068598,
0.12319201995012469,0.03795731526038407,
0.12324189526184538,0.015095151621631287,
0.12329177057356608,0.011855803350822924,
0.12334164588528679,0.04024322617617211,
0.12339152119700748,0.030728872507893603,
0.12344139650872818,0.027139818279452554,
0.12349127182044888,0.0074598847082344155,
0.12354114713216957,0.015741064250829356,
0.12359102244389028,0.020221095481527326,
0.12364089775561098,0.02262462891575066,
0.12369077306733167,0.015392157032893651,
0.12374064837905237,0.01967897880644947,
0.12379052369077306,0.006948615094849859,
0.12384039900249376,0.04502224485369209,
0.12389027431421447,0.04534002139389942,
0.12394014962593516,0.020876198490646855,
0.12399002493765586,0.03815884221205083,
0.12403990024937656,-0.002438425717475056,
0.12408977556109725,0.004069105780061127,
0.12413965087281796,0.03342511658733963,
0.12418952618453866,-0.0018185360982471803,
0.12423940149625935,0.030038922742879073,
0.12428927680798005,0.03282395984216332,
0.12433915211970074,0.011317496027181226,
0.12438902743142144,0.03746083291903545,
0.12443890274314215,0.005336749714954455,
0.12448877805486284,0.03611420044961089,
0.12453865336658354,0.02583346051625521,
0.12458852867830424,0.039872567388732086,
0.12463840399002493,0.03837340023163596,
0.12468827930174564,0.02412357549509745,
0.12473815461346634,0.04216162816709449,
0.12478802992518703,0.035199744184107117,
0.12483790523690773,0.047018570984554905,
0.12488778054862842,0.015491556811667041,
0.12493765586034913,-0.0008264372666804756,
0.12498753117206983,0.022219030937132372,
0.12503740648379053,0.042987367902502016,
0.12508728179551123,0.007937545347375945,
0.12513715710723192,0.03014081123036394,
0.12518703241895263,0.040265429031130444,
0.1252369077306733,0.008517819260385872,
0.12528678304239402,0.041211473347124945,
0.1253366583541147,0.03324352267675169,
0.1253865336658354,0.04046641411969676,
0.12543640897755612,0.013621607480155,
0.1254862842892768,0.03794745001668909,
0.1255361596009975,0.02391065928909378,
0.1255860349127182,0.019078139043880626,
0.1256359102244389,0.022331535034184804,
0.1256857855361596,0.034344084419078935,
0.1257356608478803,0.011830481008637341,
0.125785536159601,0.049578594596290645,
0.12583541147132168,0.0284393887160968,
0.1258852867830424,0.0004695108515372984,
0.1259351620947631,0.03193565336728035,
0.12598503740648379,0.06407195463244444,
0.1260349127182045,0.04233066850107872,
0.12608478802992518,0.06569266267139343,
0.1261346633416459,0.022530143761535285,
0.1261845386533666,-0.002932589650611668,
0.12623441396508728,0.01594782873177819,
0.126284289276808,0.0010808538277695783,
0.12633416458852867,0.010606721160192794,
0.12638403990024938,0.031053148732962423,
0.1264339152119701,0.0336017428049598,
0.12648379052369077,0.03682204655904527,
0.12653366583541148,0.037193930823502974,
0.12658354114713216,0.029341554934216196,
0.12663341645885287,0.018007182517854818,
0.12668329177057355,0.034373883534666784,
0.12673316708229426,0.01100633322502473,
0.12678304239401497,0.004500464302103593,
0.12683291770573565,0.03264713068946689,
0.12688279301745636,0.02359791636302377,
0.12693266832917705,0.01715796022199584,
0.12698254364089775,0.00865717032917033,
0.12703241895261846,-0.003141387227400705,
0.12708229426433915,-0.006559936664867427,
0.12713216957605986,-0.005357917463466685,
0.12718204488778054,0.021862847358860762,
0.12723192019950125,0.04637572399010635,
0.12728179551122196,0.017815869118703666,
0.12733167082294264,0.003999396804435906,
0.12738154613466335,0.022410144634973355,
0.12743142144638403,0.04479349153896834,
0.12748129675810474,-0.0013297251261765695,
0.12753117206982545,0.02299936363470733,
0.12758104738154613,0.013627573232019151,
0.12763092269326684,0.025275639776286732,
0.12768079800498752,-0.0136832190119185,
0.12773067331670823,-0.004035908150439561,
0.1277805486284289,0.0321679173897266,
0.12783042394014962,0.023302678083358896,
0.12788029925187033,0.0038855519540279063,
0.12793017456359101,0.04173350712636516,
0.12798004987531172,-0.003910102158850445,
0.1280299251870324,0.010186628257809763,
0.12807980049875312,-0.007124682934692414,
0.12812967581047383,0.012872500753353626,
0.1281795511221945,0.01794028273891131,
0.12822942643391522,0.00862338502788693,
0.1282793017456359,0.007069217792486664,
0.1283291770573566,0.018167178857671072,
0.12837905236907732,0.007500350748074571,
0.128428927680798,-0.003503165663628422,
0.1284788029925187,0.0014526252192230363,
0.1285286783042394,-0.0008368480235812752,
0.1285785536159601,-0.001783613933894786,
0.1286284289276808,0.003558844669509794,
0.1286783042394015,0.001728917088755254,
0.1287281795511222,-0.005890241646075773,
0.12877805486284288,0.03528155058980422,
0.1288279301745636,0.04441625081153515,
0.1288778054862843,0.002893069873582555,
0.12892768079800498,0.026380471635046292,
0.1289775561097257,0.003910016620778667,
0.12902743142144638,0.017679305340081365,
0.12907730673316709,-0.025395700137904795,
0.12912718204488777,0.014713013196859042,
0.12917705735660848,0.017272221913123387,
0.1292269326683292,0.026643023988662574,
0.12927680798004987,-0.0118303980123717,
0.12932668329177058,0.0011465460469601437,
0.12937655860349126,0.017311010962023216,
0.12942643391521197,0.0010625722142584672,
0.12947630922693268,-0.018314036649275424,
0.12952618453865336,0.0020452744768180656,
0.12957605985037407,-0.006373302194484634,
0.12962593516209475,0.0067584415583301855,
0.12967581047381546,0.023794645585413006,
0.12972568578553617,0.024364249729079603,
0.12977556109725685,0.009582715509726697,
0.12982543640897756,0.006666431574573731,
0.12987531172069824,-0.039766038480019535,
0.12992518703241895,-0.012083484627177208,
0.12997506234413966,-0.023321693405299132,
0.13002493765586035,-0.010815462202426865,
0.13007481296758105,-0.009169291839645878,
0.13012468827930174,-0.01592774226779317,
0.13017456359102245,0.012689642690744705,
0.13022443890274316,-0.0018633948557472315,
0.13027431421446384,0.004751405597702617,
0.13032418952618455,0.008735646737113223,
0.13037406483790523,0.004671951452289494,
0.13042394014962594,0.014483372248876834,
0.13047381546134662,-0.002028258444813506,
0.13052369077306733,0.008296187123288671,
0.13057356608478804,-0.007326525142220747,
0.13062344139650872,0.009283065435125307,
0.13067331670822943,0.0031282333349088613,
0.1307231920199501,0.010800876841094875,
0.13077306733167082,-0.04308684662872358,
0.13082294264339153,0.011635736347731124,
0.13087281795511221,-0.02054054200684487,
0.13092269326683292,0.00536184460864368,
0.1309725685785536,-0.017695768213599125,
0.13102244389027431,0.008765039821480372,
0.13107231920199502,-0.026273908535185898,
0.1311221945137157,-0.002592343818467116,
0.13117206982543642,-0.0015468146103711556,
0.1312219451371571,-0.005487511192465628,
0.1312718204488778,-0.009402715017803463,
0.13132169576059852,-0.005656249143579761,
0.1313715710723192,-0.006959212363785216,
0.1314214463840399,-0.02860457405098024,
0.1314713216957606,0.009836245656171276,
0.1315211970074813,-0.00609912181945108,
0.13157107231920198,-0.03397182230785629,
0.1316209476309227,-0.0008137827473724711,
0.1316708229426434,0.002823524765956228,
0.13172069825436408,-0.024035116667423077,
0.1317705735660848,-0.015188635232000827,
0.13182044887780547,-0.0020103442709798877,
0.13187032418952618,-0.010675891159348605,
0.1319201995012469,0.0078051413749905384,
0.13197007481296757,0.005302077165873069,
0.13201995012468828,0.019032019041944456,
0.13206982543640897,-0.0005342560384868121,
0.13211970074812968,8.178582355777841e-05,
0.13216957605985039,-0.015272626548324283,
0.13221945137157107,-0.01960138221298071,
0.13226932668329178,-0.006815432885372152,
0.13231920199501246,-0.012264500922781842,
0.13236907730673317,-0.0318065549587979,
0.13241895261845388,0.012459580138891582,
0.13246882793017456,-0.004949154850203347,
0.13251870324189527,-0.018763169074650594,
0.13256857855361595,0.013229642763104035,
0.13261845386533666,0.0025233975830524173,
0.13266832917705737,-0.011908274579546475,
0.13271820448877805,-0.007332917069576037,
0.13276807980049876,0.015233048973532412,
0.13281795511221944,-0.003312123511733922,
0.13286783042394015,-0.01725679048624549,
0.13291770573566083,-0.004284883470654275,
0.13296758104738154,-0.0001692328993943698,
0.13301745635910225,-0.029044205295907843,
0.13306733167082294,-0.012849733870128114,
0.13311720698254365,-0.016776343724359544,
0.13316708229426433,-0.014079776742180005,
0.13321695760598504,0.035306529001079924,
0.13326683291770575,-0.007404940875136967,
0.13331670822942643,-0.026502839243830675,
0.13336658354114714,-0.001089245557253555,
0.13341645885286782,-0.018499907146316316,
0.13346633416458853,-0.005598888294156583,
0.13351620947630924,-0.012310278797803378,
0.13356608478802992,-0.0318398502293674,
0.13361596009975063,-0.02168409172869356,
0.1336658354114713,-0.011132475190252756,
0.13371571072319202,0.008195634551970797,
0.13376558603491273,0.007480858475945023,
0.1338154613466334,-0.012015843271529224,
0.13386533665835412,-0.025650554079833243,
0.1339152119700748,-0.019558681065140276,
0.13396508728179551,0.004508848374413127,
0.1340149625935162,-0.006997029666163904,
0.1340648379052369,-0.019848015373052835,
0.13411471321695762,-0.03571111118957333,
0.1341645885286783,-0.01935030698617366,
0.134214463840399,-0.019185583788376454,
0.1342643391521197,-0.013755239847821014,
0.1343142144638404,-0.019715188345129857,
0.1343640897755611,0.010358770087734394,
0.1344139650872818,0.010455499567695998,
0.1344638403990025,-0.008703438890385102,
0.13451371571072318,-0.008033745452167238,
0.1345635910224439,-0.02616710531377795,
0.1346134663341646,-0.01653697273607923,
0.13466334164588528,-0.011284400873189784,
0.134713216957606,0.008974030072241988,
0.13476309226932667,0.0013780308175836142,
0.13481296758104738,-0.02117004431237098,
0.1348628428927681,-0.0131612649158131,
0.13491271820448877,-0.025620917919913472,
0.13496259351620948,0.006319722793814641,
0.13501246882793017,-0.0225678784661644,
0.13506234413965088,-0.008515263575313707,
0.13511221945137158,-0.026562916902268925,
0.13516209476309227,-0.013216165328548222,
0.13521197007481298,-0.02034406098835556,
0.13526184538653366,-0.0016322985583779297,
0.13531172069825437,-0.007725435293063798,
0.13536159600997505,0.005926567248247992,
0.13541147132169576,-0.010115717738416363,
0.13546134663341647,0.02461485647527846,
0.13551122194513715,0.008258420423122744,
0.13556109725685786,0.008560885113140041,
0.13561097256857854,-0.03561236285618475,
0.13566084788029925,-0.010557591741899474,
0.13571072319201996,0.002469669368872043,
0.13576059850374064,-0.003244910701910085,
0.13581047381546135,0.0062062417036204826,
0.13586034912718203,0.028041574239075336,
0.13591022443890274,-0.021591248986100174,
0.13596009975062345,-0.004631865730852682,
0.13600997506234414,0.002514596218743919,
0.13605985037406484,-0.0073680522797861005,
0.13610972568578553,-0.006601886639366738,
0.13615960099750624,0.013306011281036288,
0.13620947630922695,-0.02038853788264449,
0.13625935162094763,-0.006299035737874362,
0.13630922693266834,-0.008830193901284257,
0.13635910224438902,-0.010083309611010184,
0.13640897755610973,-0.003886974987307384,
0.1364588528678304,0.017491867467187047,
0.13650872817955112,0.005486143661796982,
0.13655860349127183,0.008913776824212221,
0.1366084788029925,0.015787348244208355,
0.13665835411471322,-0.00309301507292241,
0.1367082294264339,-0.013884736991745,
0.1367581047381546,0.019486196477969335,
0.13680798004987532,0.01788949571856099,
0.136857855361596,0.0018402454331180027,
0.1369077306733167,0.02590662587271706,
0.1369576059850374,0.009952428723455248,
0.1370074812967581,-0.0038335760900224513,
0.13705735660847881,0.006901666857710254,
0.1371072319201995,0.019706802120543748,
0.1371571072319202,-0.0007261963125668441,
0.1372069825436409,0.024858021619077082,
0.1372568578553616,0.0018165102086801707,
0.1373067331670823,-0.0010720696863852786,
0.137356608478803,0.013813334101041276,
0.1374064837905237,0.019832288887268984,
0.13745635910224438,0.0189420098914332,
0.1375062344139651,-0.0026093849308406955,
0.1375561097256858,0.006653605632203036,
0.13760598503740648,-0.014948110333432508,
0.1376558603491272,0.036886213821705975,
0.13770573566084787,-0.010099369215152518,
0.13775561097256858,0.006439543444826722,
0.13780548628428926,0.018779941310354386,
0.13785536159600997,-0.01490906937983921,
0.13790523690773068,0.004520123622671138,
0.13795511221945136,-0.006125043909899987,
0.13800498753117207,0.006228524576289335,
0.13805486284289276,0.02108938900357541,
0.13810473815461347,0.0253979393489474,
0.13815461346633418,-0.0017269982064052457,
0.13820448877805486,-0.0016560688820910583,
0.13825436408977557,0.008460890353366538,
0.13830423940149625,0.00937224944569353,
0.13835411471321696,0.028916426957299027,
0.13840399002493767,0.012663278677064196,
0.13845386533665835,0.0010877829478592935,
0.13850374064837906,-0.008329395059300344,
0.13855361596009974,-0.00046999875671208634,
0.13860349127182045,0.02894925289417845,
0.13865336658354116,0.01374182504915431,
0.13870324189526184,-0.001005999521107059,
0.13875311720698255,0.0246412208464843,
0.13880299251870323,0.018772859033848822,
0.13885286783042394,-0.020725541240501667,
0.13890274314214462,-0.009086592524317674,
0.13895261845386533,0.008809746862835081,
0.13900249376558604,0.017465306929242284,
0.13905236907730673,0.018214069023133158,
0.13910224438902744,0.022942889632482203,
0.13915211970074812,0.023422029488125242,
0.13920199501246883,0.023797658270039566,
0.13925187032418954,-0.003466097776907942,
0.13930174563591022,0.008093646947199534,
0.13935162094763093,0.015564448527663779,
0.1394014962593516,0.010123016548780464,
0.13945137157107232,-0.0033041142914563143,
0.13950124688279303,-0.001928207586667039,
0.1395511221945137,0.03647379440423411,
0.13960099750623442,0.0272234232165599,
0.1396508728179551,0.021806321341032452,
0.1397007481296758,0.0026416806678424467,
0.13975062344139652,0.010197841445748222,
0.1398004987531172,0.013713744647062764,
0.1398503740648379,0.032022852853726115,
0.1399002493765586,0.023696226395853105,
0.1399501246882793,0.0239956778671516,
0.14,0.008068725752728738,
0.1400498753117207,0.03360707564521098,
0.1400997506234414,0.008569727139053154,
0.1401496259351621,0.023915245615301443,
0.1401995012468828,0.05380189556734888,
0.14024937655860348,0.010686000107556274,
0.1402992518703242,0.03430302602529499,
0.1403491271820449,0.04324197193389842,
0.14039900249376558,0.024430049899628863,
0.1404488778054863,0.0327828618543682,
0.14049875311720697,0.05007701273401968,
0.14054862842892768,0.03445078217725284,
0.1405985037406484,0.03873769320942602,
0.14064837905236907,0.0215482460023783,
0.14069825436408978,0.03395149551641552,
0.14074812967581046,0.019615639524509898,
0.14079800498753117,-0.008933576923625022,
0.14084788029925188,0.02499991879632685,
0.14089775561097256,0.021284971436670734,
0.14094763092269327,0.038202604028124504,
0.14099750623441396,0.025725045325412105,
0.14104738154613466,0.02601192867729853,
0.14109725685785537,0.008225450352871744,
0.14114713216957606,0.033979235837825465,
0.14119700748129677,0.03326781412903226,
0.14124688279301745,0.021473312349150227,
0.14129675810473816,0.011213055531776648,
0.14134663341645887,0.048122258615028266,
0.14139650872817955,0.031234469115937226,
