time,amplitude,label
0.0,-0.018835993265873686,
4.987531172069826e-05,-0.031927986249480136,
9.975062344139652e-05,-0.029233172375717716,
0.00014962593516209475,-0.03087937429507445,
0.00019950124688279303,-0.02395175495643602,
0.00024937655860349125,0.005363516567714993,
0.0002992518703241895,0.0006950758404645303,
0.00034912718204488776,-0.010506903530412339,
0.00039900249376558606,-0.02587598394887778,
0.0004488778054862843,0.011526481075120852,
0.0004987531172069825,-0.005369133320707311,
0.0005486284289276808,0.006860777712854777,
0.000598503740648379,-0.0019353644911132813,
0.0006483790523690773,0.011280764343440823,
0.0006982543640897755,0.01912182120651353,
0.0007481296758104738,-0.020217805600554955,
0.0007980049875311721,0.006081685045847902,
0.0008478802992518703,0.012097322354691572,
0.0008977556109725686,-0.019782258532559223,
0.0009476309226932668,-0.009909696050536952,
0.000997506234413965,-0.010781347556116056,
0.0010473815461346633,-0.01582432131141321,
0.0010972568578553616,0.023717225914467052,
0.00114713216957606,-0.0035671805744671506,
0.001197007481296758,-0.007113535095091716,
0.0012468827930174563,-0.0031973728267015063,
0.0012967581047381546,-0.00998977603544927,
0.001346633416458853,-0.0063455348087024304,
0.001396508728179551,-0.026305235286965246,
0.0014463840399002493,-0.005202493370292329,
0.0014962593516209476,-0.021030284122976958,
0.001546134663341646,-0.020612996379804134,
0.0015960099750623442,-0.02502201389416179,
0.0016458852867830423,-0.0403426487030977,
0.0016957605985037406,-0.02944195470812937,
0.001745635910224439,-0.03284034571029221,
0.0017955112219451373,0.005829119332283864,
0.0018453865336658353,0.0014547080296356072,
0.0018952618453865336,0.0024058438336876115,
0.001945137157107232,-0.0179760480588249,
0.00199501246882793,-0.02843387763093295,
0.0020448877805486283,-0.0026602642972420876,
0.0020947630922693266,-0.021778730190186772,
0.002144638403990025,-0.025773837727347433,
0.0021945137157107233,-0.02280346932270784,
0.0022443890274314216,-0.02943117176010853,
0.00229426433915212,-0.010640513184902549,
0.0023441396508728177,-0.024381472341254946,
0.002394014962593516,-0.018462657564587245,
0.0024438902743142144,-0.024069842022539645,
0.0024937655860349127,-0.015721092163752115,
0.002543640897755611,-0.005392992890917683,
0.0025935162094763093,-0.01028795901732119,
0.0026433915211970076,-0.015211456836322166,
0.002693266832917706,-0.049509629442497684,
0.002743142144638404,0.01164893530266127,
0.002793017456359102,-0.004029686401424636,
0.0028428927680798004,-0.018290740366156855,
0.0028927680798004987,-0.03866776098363656,
0.002942643391521197,-0.012503468364131309,
0.0029925187032418953,-0.028875421790914603,
0.0030423940149625936,-0.03269707862367165,
0.003092269326683292,-0.003093924566440781,
0.00314214463840399,-0.006783893349797296,
0.0031920199501246885,-0.018882983792837545,
0.0032418952618453864,-0.012764733819822831,
0.0032917705735660847,-0.009367465830092363,
0.003341645885286783,-0.016718964668153227,
0.0033915211970074813,-0.022264773526575292,
0.0034413965087281796,-0.008031595903912864,
0.003491271820448878,-0.0021255869307113713,
0.003541147132169576,-0.021491966609765264,
0.0035910224438902745,0.0021691599723686547,
0.0036408977556109724,-0.011275353190884725,
0.0036907730673316707,-0.0013947342410342359,
0.003740648379052369,-0.015144697609257718,
0.0037905236907730673,-0.021973395085893417,
0.0038403990024937656,-0.026681756171150393,
0.003890274314214464,-0.002895263622247287,
0.003940149625935162,-0.01632761948061362,
0.00399002493765586,-0.014120610725717677,
0.004039900249376558,-0.014301494481004986,
0.004089775561097257,-0.015389890157687587,
0.004139650872817955,-0.006402026919679393,
0.004189526184538653,-0.011681461495726072,
0.004239401496259352,-0.02527372459845638,
0.00428927680798005,-0.010364594641538704,
0.004339152119700748,-0.010858487439981346,
0.0043890274314214465,-0.04951420205708895,
0.004438902743142145,-0.004257900464907245,
0.004488778054862843,-0.02334733675430272,
0.004538653366583541,-0.005743836838864556,
0.00458852867830424,-0.015564443028167993,
0.004638403990024938,-0.0250642268974003,
0.0046882793017456355,-0.02722705227733635,
0.004738154613466334,-8.092952396217962e-05,
0.004788029925187032,-0.019732296129573574,
0.00483790523690773,-0.025588516164580962,
0.004887780548628429,-0.013378176755914269,
0.004937655860349127,-0.005951349145120754,
0.004987531172069825,-0.025868782250168264,
0.005037406483790524,-0.013431390444954859,
0.005087281795511222,-0.01568788558706491,
0.00513715710723192,-0.01506415549148865,
0.0051870324189526185,-0.027164453783131877,
0.005236907730673317,-0.030857719689135796,
0.005286783042394015,-0.005729930157684053,
0.0053366583541147134,-0.01623618555860304,
0.005386533665835412,-0.014021449183246045,
0.00543640897755611,-0.0187210580535215,
0.005486284289276808,0.023301313564598313,
0.005536159600997507,-0.036108629630748734,
0.005586034912718204,-0.0019177245946318915,
0.005635910224438902,-0.04818904227720769,
0.005685785536159601,-0.01457656771158698,
0.005735660847880299,-0.004557371449984004,
0.005785536159600997,-0.022875797095814443,
0.005835411471321696,0.01248245167559078,
0.005885286783042394,-0.033491499349098924,
0.005935162094763092,-0.018069013207583223,
0.0059850374064837905,-0.0023961213521491356,
0.006034912718204489,-0.023339961594514944,
0.006084788029925187,0.004525407133874521,
0.0061346633416458855,0.008964364255881267,
0.006184538653366584,0.003389334368569547,
0.006234413965087282,-0.029069654456801104,
0.00628428927680798,-0.02621524875380736,
0.006334164588528679,-0.02446064150945746,
0.006384039900249377,-0.0028529424679066794,
0.006433915211970074,0.004401998629448383,
0.006483790523690773,-0.012788714907888112,
0.006533665835411471,-0.04622234532022878,
0.006583541147132169,-0.04186685358518647,
0.006633416458852868,-0.014542087348146939,
0.006683291770573566,0.01895247717794613,
0.006733167082294264,0.016863656036585916,
0.0067830423940149626,-0.009973173297645271,
0.006832917705735661,-0.007501595952051405,
0.006882793017456359,-0.03383754180607815,
0.0069326683291770575,-0.008092292242566941,
0.006982543640897756,0.023038438369350923,
0.007032418952618454,-0.02316650453805489,
0.007082294264339152,-0.00595808870702971,
0.007132169576059851,-0.023363519372706025,
0.007182044887780549,0.006445805954107953,
0.007231920199501247,0.0013569049370907652,
0.007281795511221945,-0.002119787840538064,
0.007331670822942643,-0.01371783794630402,
0.007381546134663341,-0.02830167804593296,
0.00743142144638404,0.011519668081167838,
0.007481296758104738,0.006666085746969629,
0.007531172069825436,0.005409891057552905,
0.007581047381546135,-0.01576523426853474,
0.007630922693266833,-0.019749065013646212,
0.007680798004987531,0.005962691669454387,
0.0077306733167082295,-0.013382646314990865,
0.007780548628428928,-0.014331464030602063,
0.007830423940149626,0.018282875516271033,
0.007880299251870324,-0.02722226432954453,
0.007930174563591023,-0.02733052100219264,
0.00798004987531172,0.013597453410382716,
0.00802992518703242,-0.0073307689854952875,
0.008079800498753117,-0.006335687324841959,
0.008129675810473816,-0.004858113286264121,
0.008179551122194513,-0.017822937418886665,
0.008229426433915213,-0.0349323105743449,
0.00827930174563591,-0.01571231462862729,
0.00832917705735661,0.01801242547290275,
0.008379052369077307,-0.02957603927132679,
0.008428927680798006,-0.02139510974498311,
0.008478802992518703,-0.021536067759354093,
0.0085286783042394,0.013803772949237715,
0.0085785536159601,-0.011122102332269675,
0.008628428927680797,-0.030784681422037583,
0.008678304239401496,-0.03404823522337909,
0.008728179551122194,-0.010629618270413282,
0.008778054862842893,-0.013752583311174472,
0.00882793017456359,-0.004613043718340409,
0.00887780548628429,-0.0082896974950486,
0.008927680798004987,0.017008719741206543,
0.008977556109725686,0.0071467640854518235,
0.009027431421446384,0.00612844879646671,
0.009077306733167083,0.0015431746926231127,
0.00912718204488778,-0.004957523625366821,
0.00917705735660848,0.01844672444425508,
0.009226932668329177,-0.015019510504140732,
0.009276807980049876,-0.0023234173687005856,
0.009326683291770574,-0.012731294162941033,
0.009376558603491271,0.010470335581723672,
0.00942643391521197,-0.003211873174929699,
0.009476309226932668,0.008170965408314461,
0.009526184538653367,-0.018834771494624748,
0.009576059850374064,0.02250949108210923,
0.009625935162094763,0.008784881480171286,
0.00967581047381546,-0.010724409518716747,
0.00972568578553616,0.024289705107609624,
0.009775561097256857,0.004786595780818225,
0.009825436408977557,-0.004078975281441252,
0.009875311720698254,0.0048086191912232144,
0.009925187032418953,-0.004328268468038502,
0.00997506234413965,0.032059525032325814,
0.01002493765586035,-0.0042255564461805084,
0.010074812967581047,0.03907107138175574,
0.010124688279301746,0.010452243802091206,
0.010174563591022444,0.015013600995561097,
0.010224438902743141,0.024668641093166133,
0.01027431421446384,0.036372114840430146,
0.010324189526184538,0.004827043157777524,
0.010374064837905237,-0.005806852444463823,
0.010423940149625935,0.009630205912754567,
0.010473815461346634,0.007148872200737981,
0.010523690773067331,0.02818900918459999,
0.01057356608478803,0.03222267011758029,
0.010623441396508728,0.013327250476335397,
0.010673316708229427,0.027097511797197035,
0.010723192019950124,0.018639759129305628,
0.010773067331670824,0.007401923226906014,
0.010822942643391521,0.002768572321982526,
0.01087281795511222,-0.01486528791876304,
0.010922693266832918,-0.0010790297210346595,
0.010972568578553617,-0.012269719872856091,
0.011022443890274314,-0.0013209250167606785,
0.011072319201995013,0.033057734687251594,
0.01112219451371571,0.014643881139583228,
0.011172069825436408,-0.006285598692900568,
0.011221945137157107,0.006286409355185041,
0.011271820448877805,0.0259507475022881,
0.011321695760598504,0.0368066020019847,
0.011371571072319201,0.0067636472808751185,
0.0114214463840399,0.014458170627566607,
0.011471321695760598,0.031795332806630945,
0.011521197007481297,0.03835366768861649,
0.011571072319201995,0.006565359376438628,
0.011620947630922694,0.012871269232610942,
0.011670822942643391,0.00997248361722523,
0.01172069825436409,0.012943363466423795,
0.011770573566084788,0.022258635466586466,
0.011820448877805487,0.007081503865907094,
0.011870324189526184,0.01899121351944103,
0.011920199501246884,0.0047353127101038475,
0.011970074812967581,0.010105520472680658,
0.012019950124688279,0.012153517446787164,
0.012069825436408978,0.014826135980771843,
0.012119700748129675,0.010636592885108117,
0.012169576059850374,0.026219041266107888,
0.012219451371571072,0.0009973205865904528,
0.012269326683291771,0.035008454561197354,
0.012319201995012468,0.03944221079618464,
0.012369077306733168,-0.009653169709467852,
0.012418952618453865,0.015082903099347136,
0.012468827930174564,0.015517368516299056,
0.012518703241895262,0.04035050029996001,
0.01256857855361596,0.0355718595082952,
0.012618453865336658,-0.00731343609421654,
0.012668329177057357,-0.027381993541913195,
0.012718204488778055,0.006812829522831049,
0.012768079800498754,0.02900094298272765,
0.012817955112219451,0.016764948928331778,
0.012867830423940149,0.00993919252255162,
0.012917705735660848,0.025968798512181156,
0.012967581047381545,0.04926001145230952,
0.013017456359102245,0.023048673436266494,
0.013067331670822942,0.024801361528882977,
0.013117206982543641,0.03942804145836833,
0.013167082294264339,0.03430704327813866,
0.013216957605985038,0.013501195929275504,
0.013266832917705735,0.0029248829262938925,
0.013316708229426434,0.02437497742941312,
0.013366583541147132,0.035996632507847015,
0.013416458852867831,0.024103024632982285,
0.013466334164588529,0.03197454940510566,
0.013516209476309228,0.02250724535071797,
0.013566084788029925,0.022964977719471598,
0.013615960099750624,0.004726413873544621,
0.013665835411471322,0.012803187103341334,
0.01371571072319202,0.04709490347969973,
0.013765586034912718,0.059064515553767585,
0.013815461346633416,0.019796337021041062,
0.013865336658354115,-0.007380968262077535,
0.013915211970074812,0.02753668899597167,
0.013965087281795512,0.03009378620885074,
0.014014962593516209,-0.017136526496090432,
0.014064837905236908,0.02311169953521797,
0.014114713216957606,0.003597794875554037,
0.014164588528678305,0.019561466377525254,
0.014214463840399002,0.016849067162471816,
0.014264339152119701,0.01866471241429672,
0.014314214463840399,0.03273038933511889,
0.014364089775561098,-0.014953810732636415,
0.014413965087281795,0.03959146066242872,
0.014463840399002495,0.027278279247718265,
0.014513715710723192,0.014082483137179868,
0.01456359102244389,0.03798071664253384,
0.014613466334164589,0.008046333136477032,
0.014663341645885286,0.017971513310513634,
0.014713216957605985,0.027865696476512956,
0.014763092269326683,0.030676942957864373,
0.014812967581047382,0.024887674562960413,
0.01486284289276808,0.007641359720316276,
0.014912718204488778,0.007937942427192979,
0.014962593516209476,0.01558780136104861,
0.015012468827930175,0.021702614199712124,
0.015062344139650873,0.044774406777525894,
0.015112219451371572,0.017534039852705054,
0.01516209476309227,0.034722065711764526,
0.015211970074812968,0.022687484173738448,
0.015261845386533666,0.0058705738641976445,
0.015311720698254365,0.038625530435304783,
0.015361596009975062,0.039243952231485066,
0.01541147132169576,0.04638598376548905,
0.015461346633416459,0.016568382264690505,
0.015511221945137156,0.02382729800279225,
0.015561097256857856,0.042836976032797014,
0.015610972568578553,0.017237201486990848,
0.015660847880299252,0.021302900669236582,
0.01571072319201995,0.006596584941436823,
0.015760598503740647,0.02639253462905239,
0.015810473815461346,0.0004375249196670733,
0.015860349127182045,0.009615076042856925,
0.015910224438902745,0.0073163462223725505,
0.01596009975062344,0.03649634571239338,
0.01600997506234414,0.020509647913507543,
0.01605985037406484,0.018708762128402126,
0.016109725685785538,0.04336102907402684,
0.016159600997506234,0.030771791138038282,
0.016209476309226933,0.026755043153963723,
0.016259351620947632,0.01976732274121862,
0.016309226932668328,-0.00011303650384223915,
0.016359102244389027,0.028665069680251353,
0.016408977556109726,-0.005753509650430529,
0.016458852867830425,0.01696966270248986,
0.01650872817955112,0.021594924670932342,
0.01655860349127182,0.04771649801133833,
0.01660847880299252,0.013679161410502245,
0.01665835411471322,0.040298673302276454,
0.016708229426433914,0.011093812025952294,
0.016758104738154613,0.03229167562024647,
0.016807980049875312,0.02292367609495068,
0.01685785536159601,-0.005070470855173481,
0.016907730673316707,0.015042496999205441,
0.016957605985037406,-0.0036884744768889074,
0.017007481296758106,0.006963209090886223,
0.0170573566084788,-0.0019736788451303004,
0.0171072319201995,-0.02758484629744781,
0.0171571072319202,-0.003884849144329532,
0.0172069825436409,0.02058372011212195,
0.017256857855361595,0.010841965145602714,
0.017306733167082294,0.01734338314948212,
0.017356608478802993,-0.0009115372630497526,
0.017406483790523692,0.029017265553315852,
0.017456359102244388,0.022381255949422217,
0.017506234413965087,0.022956857029276103,
0.017556109725685786,0.01405040220302833,
0.017605985037406485,0.04951093634808892,
0.01765586034912718,0.008367639706354596,
0.01770573566084788,0.016599286009948293,
0.01775561097256858,-0.012515108976128498,
0.01780548628428928,0.012141240018938087,
0.017855361596009974,0.023611028381886216,
0.017905236907730673,0.009851494135697452,
0.017955112219451373,-0.007193069843797677,
0.018004987531172068,0.00599989497586221,
0.018054862842892767,-0.026161132176647815,
0.018104738154613467,0.005223620559674443,
0.018154613466334166,0.010091921737257878,
0.01820448877805486,0.013751390762904516,
0.01825436408977556,-0.023353785436574986,
0.01830423940149626,-0.013668622354663974,
0.01835411471321696,-0.007291007985690675,
0.018403990024937655,0.02234237320910508,
0.018453865336658354,0.004829273431669244,
0.018503740648379053,0.014535177602144421,
0.018553615960099752,0.0017652652564003166,
0.018603491271820448,0.012807287505799712,
0.018653366583541147,0.009994503861993234,
0.018703241895261846,-0.0057674651343420915,
0.018753117206982542,0.005700444873284807,
0.01880299251870324,0.016233769091967994,
0.01885286783042394,0.007363896878245584,
0.01890274314214464,0.02513602221355856,
0.018952618453865335,0.01013989053402659,
0.019002493765586034,0.033211393789020466,
0.019052369077306733,0.004382385547448556,
0.019102244389027433,0.005476089633679339,
0.01915211970074813,0.009547230809751797,
0.019201995012468828,0.009274416820894932,
0.019251870324189527,0.0030444450365014336,
0.019301745635910226,0.025882313464281204,
0.01935162094763092,-0.005768994657203865,
0.01940149625935162,0.003565647726723027,
0.01945137157107232,-0.015860438686412816,
0.01950124688279302,-0.018916117916980765,
0.019551122194513715,0.02493491755422148,
0.019600997506234414,0.024472055451696006,
0.019650872817955113,-0.015388635495410249,
0.01970074812967581,-0.018418110074370952,
0.019750623441396508,-0.003167423253041533,
0.019800498753117207,0.0031798352347045954,
0.019850374064837906,0.003353222627115635,
0.019900249376558602,-0.010429145584784213,
0.0199501246882793,-0.046929903002507885,
0.02,-0.013777646067354914,
0.0200498753117207,0.01705224785811267,
0.020099750623441395,-0.006215108445665443,
0.020149625935162094,-0.010332582661021673,
0.020199501246882794,0.01914366073022999,
0.020249376558603493,-0.005376752446746968,
0.02029925187032419,-0.03521281963694124,
0.020349127182044888,-0.005769521025885821,
0.020399002493765587,-0.003654108638290946,
0.020448877805486283,-0.008465778589179126,
0.02049875311720698,-0.017359650278830616,
0.02054862842892768,-0.0007043534893145485,
0.02059850374064838,-0.012847876066037087,
0.020648379052369076,-0.02065528477219311,
0.020698254364089775,0.0156551704589633,
0.020748129675810474,0.012097670989040226,
0.020798004987531173,-0.018591100654969314,
0.02084788029925187,0.01265663610625125,
0.020897755610972568,-0.0005451829613932133,
0.020947630922693267,0.016441490044816782,
0.020997506234413967,0.009269659409905009,
0.021047381546134662,-0.03827219801516129,
0.02109725685785536,-0.02202287348146178,
0.02114713216957606,-0.031490246498303974,
0.02119700748129676,-0.006686642167981493,
0.021246882793017455,-0.01459921499456759,
0.021296758104738155,-0.03951665081458411,
0.021346633416458854,-0.04370413352559543,
0.02139650872817955,-0.01246269019418978,
0.02144638403990025,-0.023262176412618386,
0.021496259351620948,-0.025844912867452947,
0.021546134663341647,-0.01532345436850508,
0.021596009975062343,-0.011358120169665913,
0.021645885286783042,-0.01747842448863933,
0.02169576059850374,-0.03119594059133589,
0.02174563591022444,-0.010934216616418566,
0.021795511221945136,-0.030932559378782712,
0.021845386533665835,-0.021562614575181015,
0.021895261845386534,-0.001956122467987806,
0.021945137157107233,-0.0077311075924768,
0.02199501246882793,-0.0036265268010805592,
0.02204488778054863,0.004996378375577353,
0.022094763092269327,-0.013103563817729737,
0.022144638403990027,-0.01730215356913102,
0.022194513715710722,-0.00819989691660933,
0.02224438902743142,-0.001496854979612475,
0.02229426433915212,-0.04265346539594566,
0.022344139650872816,-0.02764101550221406,
0.022394014962593516,-0.0155256581156281,
0.022443890274314215,0.006322200293159304,
0.022493765586034914,0.0011592819792017595,
0.02254364089775561,-0.02927929696172164,
0.02259351620947631,-0.03673901669360917,
0.022643391521197008,-0.01778576871556819,
0.022693266832917707,-0.05562561663677747,
0.022743142144638403,-0.04050229842637897,
0.022793017456359102,0.0073507017267381985,
0.0228428927680798,-0.022050988443113668,
0.0228927680798005,0.02096440888427059,
0.022942643391521196,0.006671772192499804,
0.022992518703241895,-0.03488264205176419,
0.023042394014962594,-0.02563759278851305,
0.02309226932668329,0.003979353576088238,
0.02314214463840399,-0.02754916206216261,
0.02319201995012469,-0.03185673199379193,
0.023241895261845388,-0.0086335440911993,
0.023291770573566083,-0.021579472304184458,
0.023341645885286783,-0.006718533865700727,
0.02339152119700748,-0.04458964721459251,
0.02344139650872818,-0.03639388716373667,
0.023491271820448877,-0.0014108093453761364,
0.023541147132169576,-0.008278240230145036,
0.023591022443890275,-0.009149643324513863,
0.023640897755610974,-0.035307981020332516,
0.02369077306733167,-0.02215125393038919,
0.02374064837905237,-0.001966718635788116,
0.023790523690773068,-0.03805485111334625,
0.023840399002493767,-0.024473341311919285,
0.023890274314214463,-0.035457621089408906,
0.023940149625935162,-0.00849750485517115,
0.02399002493765586,0.0016274111039572964,
0.024039900249376557,-0.02552979481017563,
0.024089775561097256,-0.028529601820911805,
0.024139650872817955,-0.031246452553950477,
0.024189526184538655,-0.021306412192804342,
0.02423940149625935,-0.019601123247330404,
0.02428927680798005,-0.009040324682029068,
0.02433915211970075,-0.001233430432442232,
0.024389027431421448,-0.026427376184981127,
0.024438902743142144,-0.018333376637025285,
0.024488778054862843,-0.02907222650500476,
0.024538653366583542,-0.010143027270877233,
0.02458852867830424,-0.018728207125858553,
0.024638403990024937,-0.01034149855427063,
0.024688279301745636,0.0043043967118450155,
0.024738154613466335,-0.02825033641577556,
0.02478802992518703,-0.02354557410866561,
0.02483790523690773,-0.008525893134147025,
0.02488778054862843,-0.01000355364552382,
0.02493765586034913,0.009241107244163965,
0.024987531172069824,-0.0019014816394576882,
0.025037406483790523,0.00040043369310274746,
0.025087281795511222,-0.031048251988450477,
0.02513715710723192,-0.040156730510647054,
0.025187032418952617,-0.04886704872455671,
0.025236907730673316,-0.020834888719745686,
0.025286783042394016,-0.016128516206164265,
0.025336658354114715,-0.010120232975656297,
0.02538653366583541,-0.014275477687167911,
0.02543640897755611,0.01604622925310117,
0.02548628428927681,0.0030431798280725203,
0.025536159600997508,-0.030055266860318917,
0.025586034912718204,-0.010189892513464648,
0.025635910224438903,-0.012692777279945437,
0.025685785536159602,-0.02875990003247295,
0.025735660847880298,-0.048039858728601115,
0.025785536159600997,0.004857984837405162,
0.025835411471321696,-0.017199319323848945,
0.025885286783042395,-0.011978316797934607,
0.02593516209476309,-0.01446488998221643,
0.02598503740648379,-0.007386806062063556,
0.02603491271820449,-0.02082811023904893,
0.02608478802992519,-0.02716960020109943,
0.026134663341645884,-0.026611520559895317,
0.026184538653366583,-0.030171551847459385,
0.026234413965087282,-0.0066450936004321705,
0.02628428927680798,-0.01875411068367496,
0.026334164588528677,-0.02076546409249432,
0.026384039900249377,-0.0251626775843391,
0.026433915211970076,-0.006205397029268122,
0.02648379052369077,-0.01339960339217806,
0.02653366583541147,0.008182192815971554,
0.02658354114713217,-0.016714178745005512,
0.02663341645885287,-0.02556136974483128,
0.026683291770573565,-0.001148946922577913,
0.026733167082294264,-0.02187474186079865,
0.026783042394014963,-0.010572219819967008,
0.026832917705735662,-0.017055512774769747,
0.026882793017456358,-0.021349875157541713,
0.026932668329177057,-0.032417510888030965,
0.026982543640897756,0.016177660565466708,
0.027032418952618455,-0.03749682206090632,
0.02708229426433915,0.01634684701396331,
0.02713216957605985,-0.034209089623256625,
0.02718204488778055,-0.02468833681248235,
0.02723192019950125,-0.025825978838362053,
0.027281795511221944,-0.010646741055405784,
0.027331670822942643,0.012726500017264926,
0.027381546134663343,-0.018238152330919216,
0.02743142144638404,-0.012654002375760313,
0.027481296758104738,-0.025883953280964038,
0.027531172069825437,-0.022657695008008717,
0.027581047381546136,0.0023602998112337396,
0.02763092269326683,-0.015807423582519745,
0.02768079800498753,-0.03488245773771172,
0.02773067331670823,-0.0064339179608146795,
0.02778054862842893,0.025483772210775624,
0.027830423940149625,-0.002573137296904392,
0.027880299251870324,-0.01783016060109234,
0.027930174563591023,-0.012364706288364787,
0.027980049875311722,-0.02350326487669429,
0.028029925187032418,0.0184614830143058,
0.028079800498753117,-0.04279407877047286,
0.028129675810473816,-0.001114856582804412,
0.028179551122194512,-0.008335310308406084,
0.02822942643391521,-0.006431131496859499,
0.02827930174563591,0.005585331772413593,
0.02832917705735661,-0.019800551722386914,
0.028379052369077305,0.0026546873691391097,
0.028428927680798004,0.0012979867860630039,
0.028478802992518704,-0.010696796832258527,
0.028528678304239403,-0.010199556694402194,
0.0285785536159601,-0.0067312130869604594,
0.028628428927680798,-0.011316789897575948,
0.028678304239401497,-0.0020514587829122857,
0.028728179551122196,-0.025658584058633575,
0.02877805486284289,0.004698117778486853,
0.02882793017456359,0.004699916835103008,
0.02887780548628429,0.037210371092389345,
0.02892768079800499,0.007738737390093875,
0.028977556109725685,0.021771262443744038,
0.029027431421446384,0.0084218348254546,
0.029077306733167083,0.04580739080549083,
0.02912718204488778,-0.015855274042778193,
0.029177057356608478,-0.001220468767500343,
0.029226932668329177,-0.001928335975345503,
0.029276807980049877,-0.014632512034821639,
0.029326683291770572,-0.0050625982238589225,
0.02937655860349127,0.002295838369755309,
0.02942643391521197,-0.00948780420461282,
0.02947630922693267,0.020130112227782673,
0.029526184538653365,0.020346383857022428,
0.029576059850374065,-0.015168953616640814,
0.029625935162094764,0.00023002686552809227,
0.029675810473815463,0.011864636624586148,
0.02972568578553616,0.01036357156558789,
0.029775561097256858,-0.002036846281649572,
0.029825436408977557,0.03653206746274279,
0.029875311720698253,0.0020139364384305063,
0.029925187032418952,0.013313689298516604,
0.02997506234413965,0.01729496080560348,
0.03002493765586035,0.003921666908911048,
0.030074812967581046,0.030644033902677302,
0.030124688279301745,0.016683003132187235,
0.030174563591022444,0.0032835205830801977,
0.030224438902743143,0.024482614059944306,
0.03027431421446384,-0.014017193817791228,
0.03032418952618454,0.021745948059659955,
0.030374064837905237,0.015889898287424417,
0.030423940149625937,0.025432505724415678,
0.030473815461346632,0.019512227923182184,
0.03052369077306733,0.011875662422804757,
0.03057356608478803,0.0018009733791598172,
0.03062344139650873,0.0008356229904894919,
0.030673316708229426,-0.019183736332533327,
0.030723192019950125,0.015462220075989094,
0.030773067331670824,0.013972669500912438,
0.03082294264339152,0.0022036029977628453,
0.03087281795511222,0.02303391887738475,
0.030922693266832918,0.019486781641597513,
0.030972568578553617,0.01762357550719997,
0.031022443890274313,0.0043283909379709315,
0.031072319201995012,-0.0023816639855087415,
0.03112219451371571,0.014296409315439155,
0.03117206982543641,0.017571190114419606,
0.031221945137157106,0.009576893109861784,
0.03127182044887781,0.029295338515395616,
0.031321695760598504,0.008170005079613154,
0.0313715710723192,0.015317985312943668,
0.0314214463840399,0.022080399372020297,
0.0314713216957606,0.001406916642778035,
0.031521197007481294,0.029983272523449928,
0.031571072319202,-0.0029234066833818684,
0.03162094763092269,0.023323549411575023,
0.03167082294264339,0.030579076387847744,
0.03172069825436409,0.023286568573891556,
0.03177057356608479,0.029104907588796986,
0.03182044887780549,0.020236199012117612,
0.031870324189526185,0.008516740818224344,
0.03192019950124688,-0.01028217134114626,
0.03197007481296758,0.0138147264078003,
0.03201995012468828,0.025536366463409503,
0.032069825436408975,-0.0021251660904150274,
0.03211970074812968,-0.006418275937306275,
0.03216957605985037,0.0057672584209028915,
0.032219451371571076,0.019308358085002534,
0.03226932668329177,0.016689750933929565,
0.03231920199501247,0.003171942480197157,
0.03236907730673317,0.012317508815818433,
0.032418952618453865,0.02133861434096323,
0.03246882793017456,0.02219500776284006,
0.032518703241895264,0.02373086075158257,
0.03256857855361596,0.015487304586034215,
0.032618453865336655,0.0018235712148747113,
0.03266832917705736,0.01665077874538075,
0.032718204488778053,0.013427152099969215,
0.032768079800498756,0.019305348500668073,
0.03281795511221945,0.01246450999210174,
0.03286783042394015,0.01700818395355761,
0.03291770573566085,0.004825420064183104,
0.032967581047381546,0.028878304684119074,
0.03301745635910224,0.014452010392648146,
0.033067331670822944,-0.003386518056830233,
0.03311720698254364,0.03166089308439853,
0.03316708229426434,-0.0038464156689402736,
0.03321695760598504,0.028539582409777584,
0.033266832917705734,0.034281655661102126,
0.03331670822942644,0.021629099906784105,
0.03336658354114713,0.01597471660183895,
0.03341645885286783,0.011443417122440486,
0.03346633416458853,0.005217230863554433,
0.033516209476309226,0.023212120997702073,
0.03356608478802992,0.036330362646938855,
0.033615960099750625,0.023658298213225033,
0.03366583541147132,0.030123868767667872,
0.03371571072319202,0.03325416665088684,
0.03376558603491272,0.01317658775008786,
0.033815461346633414,0.006842839691870436,
0.03386533665835412,0.024896929588780183,
0.03391521197007481,0.03047407219302491,
0.03396508728179551,0.029952689212779833,
0.03401496259351621,0.0029568388935534706,
0.03406483790523691,0.01824576975600324,
0.0341147132169576,0.016793859728185652,
0.034164588528678305,0.019379044305100658,
0.034214463840399,0.0036169243517938827,
0.034264339152119704,0.014293750400316822,
0.0343142144638404,0.0031414819454079167,
0.034364089775561095,0.024099887786776207,
0.0344139650872818,0.03260694431450199,
0.03446384039900249,0.023100813927543914,
0.03451371571072319,0.009471746393751453,
0.03456359102244389,0.032633320788755533,
0.03461346633416459,0.03499149823184311,
0.03466334164588529,0.03664627254254651,
0.034713216957605986,0.01969278770239493,
0.03476309226932668,0.0006912607526886154,
0.034812967581047384,0.020397047280184148,
0.03486284289276808,0.0322290783985847,
0.034912718204488775,0.024372820902236615,
0.03496259351620948,0.010824808870085256,
0.035012468827930174,0.009461254618644223,
0.03506234413965087,0.04010882418620507,
0.03511221945137157,0.03606399918793879,
0.03516209476309227,0.029273598562810414,
0.03521197007481297,0.01054471874354674,
0.035261845386533666,0.026598342075000662,
0.03531172069825436,0.018667326598363412,
0.035361596009975065,0.012168255574117453,
0.03541147132169576,0.013820689434008528,
0.035461346633416456,0.025814808303724884,
0.03551122194513716,0.04283871018918424,
0.035561097256857854,0.02421582566958593,
0.03561097256857856,0.03653501890440153,
0.03566084788029925,0.034326464255006094,
0.03571072319201995,0.04781074438520162,
0.03576059850374065,0.03707744309228729,
0.03581047381546135,0.046116052667048185,
0.03586034912718204,0.018745886608984446,
0.035910224438902745,0.006064332086662374,
0.03596009975062344,0.020930928844982245,
0.036009975062344136,0.009528268788799402,
0.03605985037406484,-0.00224718295187034,
0.036109725685785535,0.003715625600856627,
0.03615960099750624,0.022866762759614474,
0.03620947630922693,0.02815751639194998,
0.03625935162094763,0.034310657572928754,
0.03630922693266833,0.038642706537499946,
0.03635910224438903,0.00715619210798581,
0.03640897755610972,0.01453139410449157,
0.036458852867830426,0.00409155756029266,
0.03650872817955112,0.024553268046365064,
0.036558603491271824,0.007984257006759768,
0.03660847880299252,0.005243738090458467,
0.036658354114713215,0.012845829520723611,
0.03670822942643392,-0.002590974954864319,
0.036758104738154614,0.028305887035124336,
0.03680798004987531,0.008694418850498393,
0.03685785536159601,0.01037671330806295,
0.03690773067331671,0.009908683171725528,
0.0369576059850374,0.010558355863930365,
0.037007481296758106,-0.009448155819095031,
0.0370573566084788,0.029593756512288363,
0.037107231920199504,0.0161260530319782,
0.0371571072319202,0.033749212918725575,
0.037206982543640896,0.012037596243252131,
0.0372568578553616,0.0038606850792658968,
0.037306733167082294,0.014865694913513796,
0.03735660847880299,0.022876658760617403,
0.03740648379052369,-0.006754303152990679,
0.03745635910224439,0.04128452387490568,
0.037506234413965084,0.008187754669554412,
0.037556109725685786,0.006207685407923221,
0.03760598503740648,0.02692663626190665,
0.037655860349127185,0.015609771188431527,
0.03770573566084788,-0.010592576038111088,
0.037755610972568576,0.012824876747091034,
0.03780548628428928,0.000986981000386366,
0.037855361596009975,0.005433559032695176,
0.03790523690773067,0.027655089156896687,
0.03795511221945137,-0.0060739679001248995,
0.03800498753117207,-0.005654150019390005,
0.03805486284289277,0.008457241169784399,
0.03810473815461347,0.017091204686927847,
0.03815461346633416,0.02300466577895014,
0.038204488778054865,0.022584939863640813,
0.03825436408977556,-0.00872969367328731,
0.03830423940149626,0.014148323585689532,
0.03835411471321696,0.01989510784820569,
0.038403990024937655,0.017786104150725464,
0.03845386533665835,0.019800327613235746,
0.03850374064837905,0.029465031013308333,
0.03855361596009975,0.013932032533789659,
0.03860349127182045,0.03486191780714318,
0.03865336658354115,0.006733569995019164,
0.03870324189526184,-0.0033097362439097775,
0.038753117206982546,0.017467414231638438,
0.03880299251870324,0.009207465167712512,
0.03885286783042394,-0.006070290470991037,
0.03890274314214464,-0.02069370110315495,
0.038952618453865336,0.018844674084377427,
0.03900249376558604,0.018553469214536464,
0.039052369077306734,0.015065824640974383,
0.03910224438902743,0.0012719220196668532,
0.03915211970074813,-0.0029331950594619623,
0.03920199501246883,0.020809035111181366,
0.039251870324189524,-0.02707590173340518,
0.039301745635910226,-0.016865440547117007,
0.03935162094763092,0.010202286276841624,
0.03940149625935162,-0.031415914025954325,
0.03945137157107232,0.012786049247499435,
0.039501246882793016,0.0018198947947008289,
0.03955112219451372,-0.007310038870846249,
0.039600997506234414,0.010036930831662069,
0.03965087281795511,0.011100501134212975,
0.03970074812967581,0.021766580942689483,
0.03975062344139651,-0.009819685932032618,
0.039800498753117204,0.02728720322703174,
0.03985037406483791,-0.003520036167331253,
0.0399002493765586,-0.013295760528025174,
0.039950124688279305,0.02387982098598889,
0.04,0.009683285776870275,
0.0400498753117207,0.008702036223976278,
0.0400997506234414,-0.004951489209921655,
0.040149625935162095,0.015583549377101436,
0.04019950124688279,-0.012354011483264524,
0.04024937655860349,-0.01912130915377566,
0.04029925187032419,-0.005100754004377829,
0.040349127182044885,-0.020522927880277216,
0.04039900249376559,0.01245045449048565,
0.04044887780548628,0.025573445880770443,
0.040498753117206986,-0.008692246175809697,
0.04054862842892768,0.005243606932238431,
0.04059850374064838,-0.009788203593077544,
0.04064837905236908,0.007162726794761218,
0.040698254364089775,-0.011641378125200549,
0.04074812967581047,-0.014708150826674442,
0.040798004987531174,-0.013755764347067545,
0.04084788029925187,0.005743800608264354,
0.040897755610972565,0.00329972733587867,
0.04094763092269327,-0.018155755675225375,
0.04099750623441396,0.00161085600791727,
0.041047381546134666,-0.012231709711914923,
0.04109725685785536,-0.009080119514020978,
0.04114713216957606,-0.022333335819786863,
0.04119700748129676,-0.014725710411479947,
0.041246882793017456,-0.0353572083779113,
0.04129675810473815,-0.012999109826802779,
0.041346633416458854,-0.0014308796004564792,
0.04139650872817955,-0.017522004556647826,
0.04144638403990025,-0.009896160118672573,
0.04149625935162095,0.00024111243278447485,
0.041546134663341644,-0.026372770880477934,
0.04159600997506235,-0.029755315751353956,
0.04164588528678304,-0.009795232554563247,
0.04169576059850374,-0.0016654836115131584,
0.04174563591022444,-0.010565865904104412,
0.041795511221945136,-0.01120453151471218,
0.04184538653366583,-0.02951983726984942,
0.041895261845386535,0.002560270857455289,
0.04194513715710723,-0.015167801966887908,
0.04199501246882793,0.01529005344417627,
0.04204488778054863,-0.03805831594942109,
0.042094763092269324,-0.014064386338678073,
0.04214463840399003,-0.0019085574504056034,
0.04219451371571072,-0.01614895406182463,
0.04224438902743142,-0.023174817957337147,
0.04229426433915212,-0.02104803772869466,
0.04234413965087282,0.012271342680326454,
0.04239401496259352,-0.014552865246583382,
0.042443890274314215,-0.027630672663319887,
0.04249376558603491,-0.01971299612226587,
0.042543640897755614,-0.010878947958978317,
0.04259351620947631,-0.025341902561709803,
0.042643391521197005,-0.00768647081545841,
0.04269326683291771,-0.0088894577658767,
0.0427431421446384,-0.006814764306695989,
0.0427930174563591,-0.005587524413908357,
0.0428428927680798,-0.022643047375191218,
0.0428927680798005,-0.02305282389860156,
0.0429426433915212,-0.0006749604708994657,
0.042992518703241896,-0.01663757721941699,
0.04304239401496259,-0.016056206654158092,
0.043092269326683294,-0.024855395330790498,
0.04314214463840399,0.008054291169322193,
0.043192019950124685,-0.025908260022588163,
0.04324189526184539,0.0035524916444481594,
0.043291770573566084,-0.011488628882535374,
0.043341645885286786,-0.005380266370535318,
0.04339152119700748,-0.02300381308634219,
0.04344139650872818,-0.006150430264219268,
0.04349127182044888,-0.023708869096529177,
0.043541147132169576,-0.03257570947744855,
0.04359102244389027,-0.009970528274983643,
0.043640897755610975,-0.01706949703625381,
0.04369077306733167,-0.023656105570637326,
0.043740648379052366,-0.01291686215218283,
0.04379052369077307,-0.02352617417438304,
0.043840399002493764,-0.025720011741463086,
0.04389027431421447,-0.01063500489277845,
0.04394014962593516,-0.012844339457391782,
0.04399002493765586,-0.023555649833014038,
0.04403990024937656,-0.002941119155794073,
0.04408977556109726,-0.05350628623816957,
0.04413965087281795,-0.015277073055150199,
0.044189526184538655,-0.009510702677961343,
0.04423940149625935,-0.008732539700351826,
0.04428927680798005,-0.007634042134090014,
0.04433915211970075,-0.010328246076006388,
0.044389027431421445,-0.0037321869366021467,
0.04443890274314215,-0.005955346571883072,
0.04448877805486284,-0.020163354719745747,
0.04453865336658354,-0.01759706927993152,
0.04458852867830424,-0.01077794007692617,
0.04463840399002494,-0.032387868411689884,
0.04468827930174563,-0.020863075334369027,
0.044738154613466335,-0.008425925767386695,
0.04478802992518703,-0.02754458478900374,
0.044837905236907734,0.026170697535046174,
0.04488778054862843,-0.02915949884065004,
0.044937655860349125,-0.021847027255276076,
0.04498753117206983,-0.004480634924109862,
0.045037406483790524,-0.011660213628031203,
0.04508728179551122,-0.004171097774116207,
0.04513715710723192,-0.026949606090090325,
0.04518703241895262,-0.0034789281567428817,
0.04523690773067331,-0.004142560229295348,
0.045286783042394016,-0.020243135010398986,
0.04533665835411471,-0.029861167449034443,
0.045386533665835414,-0.03875616094692779,
0.04543640897755611,-0.01232430901138808,
0.045486284289276806,-0.04518174163147471,
0.04553615960099751,-0.03575389364710846,
0.045586034912718204,-0.02637964983200771,
0.0456359102244389,0.002715046353602431,
0.0456857855361596,0.015460878602564437,
0.0457356608478803,0.016117513098201346,
0.045785536159601,-0.008360445606264314,
0.045835411471321696,-0.05108206098112891,
0.04588528678304239,0.0006574457409465918,
0.045935162094763095,-0.0392282528614188,
0.04598503740648379,-0.01203499210740504,
0.046034912718204486,-0.007788815393337672,
0.04608478802992519,-0.022475099596549676,
0.046134663341645885,-0.015826171954723994,
0.04618453865336658,-0.0003050485857400767,
0.04623441396508728,-0.004793083282602102,
0.04628428927680798,-0.012127304955483547,
0.04633416458852868,-0.03460305574020331,
0.04638403990024938,-0.024673837036831403,
0.04643391521197007,0.011059052299550249,
0.046483790523690775,0.007372070643595092,
0.04653366583541147,-0.009918643830883771,
0.04658354114713217,-0.011636765166209356,
0.04663341645885287,0.02340698496779329,
0.046683291770573565,-0.0014105283883546482,
0.04673316708229427,-0.0354484149720667,
0.04678304239401496,0.011427292484985897,
0.04683291770573566,-0.017743551248476142,
0.04688279301745636,-0.026102815069773973,
0.04693266832917706,0.002016600977127905,
0.04698254364089775,-0.002655465069253504,
0.047032418952618456,-0.04130992824611525,
0.04708229426433915,0.0004353891430926779,
0.04713216957605985,-0.038410672238247186,
0.04718204488778055,-0.015486779697574858,
0.047231920199501246,-0.00697899671914688,
0.04728179551122195,-0.011810753907813736,
0.047331670822942644,-0.040766999320334826,
0.04738154613466334,-0.0033553313905085817,
0.04743142144638404,0.0027373360721084546,
0.04748129675810474,-0.02527070579296444,
0.047531172069825434,0.00559249478382094,
0.047581047381546136,-0.0064976581405645824,
0.04763092269326683,-0.012949893554710466,
0.047680798004987535,-0.011040481596989681,
0.04773067331670823,-0.008711448834165081,
0.047780548628428926,0.02151243847631851,
0.04783042394014963,-0.0007446145613790025,
0.047880299251870324,0.010112127956744031,
0.04793017456359102,-0.017310131886998367,
0.04798004987531172,0.00032317242534854983,
0.04802992518703242,-0.004421976938490923,
0.048079800498753114,-0.000522533556757473,
0.04812967581047382,0.013175528325652507,
0.04817955112219451,-0.0022663626673621426,
0.048229426433915215,-0.01825802413361198,
0.04827930174563591,-0.005931769193769783,
0.048329177057356607,0.0006200854560135778,
0.04837905236907731,-0.008638951770974419,
0.048428927680798005,-0.0007232856658444154,
0.0484788029925187,0.00044813677314346377,
0.0485286783042394,0.010291430411225492,
0.0485785536159601,-0.02846595696433875,
0.048628428927680795,-0.006564178354191793,
0.0486783042394015,0.0014874650342152607,
0.04872817955112219,-0.0030354386479027992,
0.048778054862842896,0.009733148961529652,
0.04882793017456359,-0.02514613191470565,
0.04887780548628429,-0.005615717792046709,
0.04892768079800499,-0.008308180020952304,
0.048977556109725685,-0.007960202354518806,
0.04902743142144638,0.003945078652726439,
0.049077306733167084,0.006792503284129017,
0.04912718204488778,0.014030540382732945,
0.04917705735660848,0.006375919460141667,
0.04922693266832918,0.006200046915829463,
0.04927680798004987,0.019996472633290206,
0.049326683291770576,0.018766860827796633,
0.04937655860349127,0.027547340487839737,
0.04942643391521197,-0.001001848422931848,
0.04947630922693267,-0.008580392636015309,
0.049526184538653366,0.013739644725137057,
0.04957605985037406,0.01168535142137089,
0.049625935162094764,0.04094215713924366,
0.04967581047381546,0.020903627497337315,
0.04972568578553616,-0.008592123863120457,
0.04977556109725686,0.017487087844446435,
0.049825436408977554,-0.007289455075077866,
0.04987531172069826,0.0011473113485932591,
0.04992518703241895,0.02008591925173189,
0.04997506234413965,0.017746078291654345,
0.05002493765586035,-0.0017567969901728358,
0.050074812967581046,-0.01804807935297524,
0.05012468827930175,0.012499229003660302,
0.050174563591022445,0.0044007584125761775,
0.05022443890274314,-0.003913378910465745,
0.05027431421446384,-0.0028566253000892623,
0.05032418952618454,-0.007468200939139233,
0.050374064837905234,0.004445232481792608,
0.05042394014962594,0.023101697224469343,
0.05047381546134663,0.013828796067705729,
0.05052369077306733,-0.008026943221315157,
0.05057356608478803,0.0077790666600039025,
0.05062344139650873,0.03767274030795269,
0.05067331670822943,0.018803072424913966,
0.050723192019950125,0.02114444535036606,
0.05077306733167082,0.03729409530781504,
0.050822942643391524,0.017389599538813708,
0.05087281795511222,-0.002755434811699424,
0.050922693266832915,0.02943699292361905,
0.05097256857855362,-0.004339261504765726,
0.05102244389027431,0.011924197603038068,
0.051072319201995016,0.022877268005240585,
0.05112219451371571,0.013500589326666753,
0.05117206982543641,0.005447802656291578,
0.05122194513715711,0.006668238946415555,
0.051271820448877806,0.03799444372479583,
0.0513216957605985,0.024042328918173057,
0.051371571072319204,0.012961672835301929,
0.0514214463840399,0.014645091357856998,
0.051471321695760595,0.010219890896042874,
0.0515211970074813,0.0012457364586607768,
0.051571072319201994,0.01964080874156175,
0.051620947630922696,0.006094505013310504,
0.05167082294264339,0.03651132145586468,
0.05172069825436409,0.021853932620058376,
0.05177057356608479,0.008701831704693196,
0.051820448877805486,0.018912189405491445,
0.05187032418952618,0.017930392775974142,
0.051920199501246884,0.029999580817081775,
0.05197007481296758,0.034158116834104475,
0.052019950124688276,0.03610412569720807,
0.05206982543640898,0.011455601869169621,
0.052119700748129674,0.009820140431776451,
0.05216957605985038,0.011537529825584423,
0.05221945137157107,0.037669172246541954,
0.05226932668329177,0.029310446691375905,
0.05231920199501247,0.023289217347180955,
0.05236907730673317,0.025801525617787535,
0.05241895261845386,0.031395967987545695,
0.052468827930174565,0.020691336170674195,
0.05251870324189526,0.010777397066650561,
0.05256857855361596,0.006508171363068098,
0.05261845386533666,-0.005440315372554395,
0.052668329177057355,0.005835982051930949,
0.05271820448877806,0.01381489109175356,
0.05276807980049875,0.013745204959242377,
0.05281795511221945,0.060104886649853695,
0.05286783042394015,0.006505930458764419,
0.05291770573566085,0.024373501266323504,
0.05296758104738154,0.033474562784030416,
0.053017456359102245,0.032555395858464085,
0.05306733167082294,0.024861591384677195,
0.053117206982543644,-0.002219106981590613,
0.05316708229426434,0.021650056403044123,
0.053216957605985035,0.03329352225034889,
0.05326683291770574,0.009907912007989083,
0.053316708229426434,0.038561415638518254,
0.05336658354114713,0.016119846869928338,
0.05341645885286783,0.03193552761337574,
0.05346633416458853,0.02688197035991739,
0.05351620947630923,0.054897213086440536,
0.053566084788029926,0.012295297407656768,
0.05361596009975062,0.013143740598773834,
0.053665835411471324,0.01752737411708757,
0.05371571072319202,0.024680081267770097,
0.053765586034912716,0.01967983742874472,
0.05381546134663342,0.026438926200657548,
0.053865336658354114,0.015348081101243846,
0.05391521197007481,0.029945391284761244,
0.05396508728179551,0.004813410389212368,
0.05401496259351621,0.03706411791956845,
0.05406483790523691,0.022300526527538084,
0.054114713216957606,0.03185675765033433,
0.0541645885286783,0.016275411157883456,
0.054214463840399005,0.004537534384147054,
0.0542643391521197,0.027266232299969308,
0.054314214463840396,0.026652237251678222,
0.0543640897755611,0.012537957582465774,
0.054413965087281795,0.04677772497018878,
0.0544638403990025,0.01249424565553136,
0.05451371571072319,0.026061619697529584,
0.05456359102244389,0.019776336142932685,
0.05461346633416459,0.004483554721695426,
0.05466334164588529,0.032449404469757276,
0.05471321695760598,0.021198336739728922,
0.054763092269326685,0.030883221346428125,
0.05481296758104738,0.03200370676903496,
0.05486284289276808,0.018334067497050927,
0.05491271820448878,0.02774561581057255,
0.054962593516209475,0.049572282874095014,
0.05501246882793018,0.010705898055209457,
0.05506234413965087,0.020262920912254023,
0.05511221945137157,0.01812719177098567,
0.05516209476309227,0.030502743207197914,
0.05521197007481297,0.02337255978501675,
0.05526184538653366,0.00675845587898645,
0.055311720698254366,0.006784115237151611,
0.05536159600997506,0.017557327365675484,
0.05541147132169576,0.02531076523657536,
0.05546134663341646,0.017233601109814197,
0.055511221945137156,0.02073737063036478,
0.05556109725685786,0.0028076058745301682,
0.055610972568578554,0.03757824071308404,
0.05566084788029925,0.011843716603593511,
0.05571072319201995,0.012582293644285304,
0.05576059850374065,0.03548216205976506,
0.055810473815461344,0.008776583716851005,
0.055860349127182046,0.002730062541568889,
0.05591022443890274,0.024080414520763347,
0.055960099750623445,0.033738618291141866,
0.05600997506234414,0.0354637848133249,
0.056059850374064836,0.010127549643871622,
0.05610972568578554,0.023010830241371023,
0.056159600997506234,0.005205842934267733,
0.05620947630922693,0.01957248269117315,
0.05625935162094763,0.03772047427258056,
0.05630922693266833,-0.004077250805821674,
0.056359102244389024,0.016203648300604532,
0.05640897755610973,0.05614846985091915,
0.05645885286783042,0.01026357421252766,
0.056508728179551125,0.03508700797867152,
0.05655860349127182,0.02649406975964368,
0.056608478802992516,0.004649604527224004,
0.05665835411471322,0.012571154428979672,
0.056708229426433915,0.03931073275546709,
0.05675810473815461,0.012342137365515787,
0.05680798004987531,-0.027858976388548264,
0.05685785536159601,0.015253130486676215,
0.05690773067331671,0.011440537106167782,
0.05695760598503741,0.005540995374311122,
0.0570074812967581,0.02042349440508315,
0.057057356608478806,0.03776655489120054,
0.0571072319201995,0.011608762740634857,
0.0571571072319202,0.030809957112933876,
0.0572069825436409,0.002059843540269158,
0.057256857855361595,0.006243897397720001,
0.05730673316708229,0.027921450349847908,
0.057356608478802994,-0.002235002637486168,
0.05740648379052369,0.018300680354942454,
0.05745635910224439,0.017296111673616527,
0.05750623441396509,-0.011406525505542664,
0.05755610972568578,0.02786402652325909,
0.057605985037406486,0.004186300463238269,
0.05765586034912718,0.032645811481689054,
0.05770573566084788,0.04144244543044026,
0.05775561097256858,0.03832272764292717,
0.057805486284289276,0.01946195716126818,
0.05785536159600998,0.02024324808471524,
0.057905236907730674,0.03524914471063688,
0.05795511221945137,0.018220229488011833,
0.05800498753117207,0.020857898829863365,
0.05805486284289277,0.010155749959456329,
0.058104738154613464,0.019491046893899938,
0.05815461346633417,0.004642581744147706,
0.05820448877805486,0.011210086171704716,
0.05825436408977556,0.027909692305833247,
0.05830423940149626,0.025787484111646056,
0.058354114713216956,-0.008876251786010491,
0.05840399002493766,-0.009044519938449503,
0.058453865336658355,0.011504351374321094,
0.05850374064837905,0.009284918932256,
0.05855361596009975,0.033970503360205136,
0.05860349127182045,0.005218800169886044,
0.058653366583541144,-0.00971896843305169,
0.05870324189526185,0.034526985033098534,
0.05875311720698254,0.03878721849395996,
0.05880299251870324,0.04926817695911181,
0.05885286783042394,0.01064738021303201,
0.05890274314214464,0.015188009549516277,
0.05895261845386534,0.01253012617019475,
0.059002493765586035,-0.005841646913892355,
0.05905236907730673,0.026208848086658527,
0.059102244389027433,0.007957616651839472,
0.05915211970074813,0.002385448140887046,
0.059201995012468825,0.012634713870423395,
0.05925187032418953,0.02464810049461196,
0.05930174563591022,-0.010576325193487446,
0.059351620947630926,-0.01294714445682492,
0.05940149625935162,-0.003440528044613487,
0.05945137157107232,0.014183128047425648,
0.05950124688279302,-0.009169883209917233,
0.059551122194513716,0.006236247415474513,
0.05960099750623441,1.2861460446336737e-05,
0.059650872817955114,0.00964965801514642,
0.05970074812967581,0.007369080463787125,
0.059750623441396505,0.0009288463798137782,
0.05980049875311721,-0.010880468382080299,
0.059850374064837904,0.0018517489552286087,
0.059900249376558606,-0.028248727190260718,
0.0599501246882793,0.006811344799870267,
0.06,-0.01865546520147186,
0.0600498753117207,-0.009344853089612668,
0.060099750623441396,-0.002227188261560186,
0.06014962593516209,-0.010222288123245611,
0.060199501246882794,-0.0027028754031707923,
0.06024937655860349,0.007317644482051188,
0.06029925187032419,1.8335311071124554e-05,
0.06034912718204489,0.01153344211700481,
0.060399002493765584,0.006918984089684289,
0.06044887780548629,0.006680631783150401,
0.06049875311720698,-0.01227501862625433,
0.06054862842892768,-0.00867046356090893,
0.06059850374064838,-0.028671822953894557,
0.06064837905236908,-0.004757243576410386,
0.06069825436408977,-0.015006624610557497,
0.060748129675810475,0.019011188962742016,
0.06079800498753117,-0.0005997615426587251,
0.06084788029925187,-0.00447603348420845,
0.06089775561097257,0.01755643370684673,
0.060947630922693265,-0.0028151766874644317,
0.06099750623441397,0.01602141514494139,
0.06104738154613466,0.008340119705046849,
0.06109725685785536,-0.026017910237507227,
0.06114713216957606,-0.018640102660934264,
0.06119700748129676,0.012073711086208937,
0.06124688279301746,-0.004745754825576014,
0.061296758104738155,-0.01362862963000543,
0.06134663341645885,-0.02773068325384427,
0.061396508728179554,-0.014968633917658309,
0.06144638403990025,0.00014782070943796834,
0.061496259351620945,-0.035219135948476324,
0.06154613466334165,0.023745213111854548,
0.061596009975062344,-0.037153208984553855,
0.06164588528678304,0.011449977350235067,
0.06169576059850374,0.004961411624063267,
0.06174563591022444,-0.040700802747848694,
0.06179551122194514,-0.004117418882001852,
0.061845386533665836,-0.0012738620703330594,
0.06189526184538653,0.0016944301590890564,
0.061945137157107234,-0.0016975206393902084,
0.06199501246882793,-0.014308754374892027,
0.062044887780548626,-0.02418551901942494,
0.06209476309226933,-0.012809161860619095,
0.062144638403990024,-0.024963479265691254,
0.06219451371571072,-0.008105699309801387,
0.06224438902743142,0.008138480862311247,
0.06229426433915212,0.005497229230328419,
0.06234413965087282,0.02073775999722256,
0.062394014962593516,0.0025517367200588188,
0.06244389027431421,-0.0036297431353935258,
0.062493765586034915,-0.023306955690394492,
0.06254364089775562,-0.010013659852408341,
0.06259351620947631,-0.02023970117005308,
0.06264339152119701,-0.004981851696156175,
0.0626932668329177,-0.014668753394805539,
0.0627431421446384,0.03235544718275052,
0.0627930174563591,-0.018075061795443638,
0.0628428927680798,0.0005855161067602217,
0.0628927680798005,-0.0038868732834789754,
0.0629426433915212,0.018721572741808044,
0.06299251870324189,-0.021756263162103842,
0.06304239401496259,-0.023323136239711065,
0.0630922693266833,0.0037606071419883924,
0.063142144638404,-0.01305990502555488,
0.06319201995012469,-0.02676373907022333,
0.06324189526184539,-0.027714931471118445,
0.06329177057356608,-0.028607366391930643,
0.06334164588528678,-0.001132400394353146,
0.06339152119700749,-0.00753746392420127,
0.06344139650872818,-0.05035511747829799,
0.06349127182044888,-0.00029911564656803606,
0.06354114713216957,-0.048700806327002286,
0.06359102244389027,0.004994044743530261,
0.06364089775561098,-0.010535125920227543,
0.06369077306733167,-0.042080361332454116,
0.06374064837905237,-0.004109311865980465,
0.06379052369077307,0.00024916380768607443,
0.06384039900249376,-0.019384916115356428,
0.06389027431421446,-0.004618629905591896,
0.06394014962593517,-0.019993871723793646,
0.06399002493765586,-0.025549484427745017,
0.06403990024937656,-0.0364227944255075,
0.06408977556109725,-0.03818167268090397,
0.06413965087281795,0.014390117716663757,
0.06418952618453866,-0.018301252589042354,
0.06423940149625935,-0.018599054489548284,
0.06428927680798005,0.0017871468072422105,
0.06433915211970075,-0.027418642550784637,
0.06438902743142144,-0.01776000009724045,
0.06443890274314215,0.005004395387721376,
0.06448877805486285,-0.006255323415271831,
0.06453865336658354,-0.011941004893458932,
0.06458852867830424,-0.012776161362032617,
0.06463840399002493,0.003841163792654258,
0.06468827930174563,0.0062849232069251346,
0.06473815461346634,-0.025149411570674962,
0.06478802992518704,-0.010211037245346312,
0.06483790523690773,-0.01680205347255946,
0.06488778054862843,-0.015111725083579042,
0.06493765586034912,0.02054947667911306,
0.06498753117206983,0.004705006905353738,
0.06503740648379053,-0.03776589080783488,
0.06508728179551122,-0.013825825740605934,
0.06513715710723192,-0.012925041042437165,
0.06518703241895261,-0.0042397218397586395,
0.06523690773067331,-0.008288754136739556,
0.06528678304239402,-0.0036001960275544222,
0.06533665835411472,-0.017606088946256232,
0.06538653366583541,-0.003911514972962906,
0.06543640897755611,-0.002703205824153997,
0.0654862842892768,-0.03276485265221438,
0.06553615960099751,-0.02546438516165641,
0.06558603491271821,-0.014014552130066896,
0.0656359102244389,-0.009648128505632429,
0.0656857855361596,0.001964624650277644,
0.0657356608478803,0.023776089162535412,
0.06578553615960099,0.01570615332410344,
0.0658354114713217,-0.021043847600609462,
0.0658852867830424,0.001411917472777989,
0.06593516209476309,-0.007093931541026632,
0.06598503740648379,-0.031038733346184018,
0.06603491271820448,-0.003201303882375073,
0.06608478802992519,-0.008974315297427985,
0.06613466334164589,0.008029150011067554,
0.06618453865336658,-0.006184937583694872,
0.06623441396508728,-0.011386810112907384,
0.06628428927680798,0.013647481506988121,
0.06633416458852869,-0.010255321589483142,
0.06638403990024938,-0.014569497858583792,
0.06643391521197008,0.005342623592612613,
0.06648379052369077,-0.006575089307694085,
0.06653366583541147,-0.0014362282238264638,
0.06658354114713216,-0.0007966792709701697,
0.06663341645885287,-0.0020754924856132752,
0.06668329177057357,-0.02001471209388477,
0.06673316708229426,0.016028011577506645,
0.06678304239401496,0.009008610934109141,
0.06683291770573566,-0.008747766691985202,
0.06688279301745637,-0.02079001734336,
0.06693266832917706,-0.0012120067220112015,
0.06698254364089776,-0.006558017900582933,
0.06703241895261845,-0.0009563039130352112,
0.06708229426433915,0.006605937042446766,
0.06713216957605984,-0.024343373836904787,
0.06718204488778055,-0.014685193881791549,
0.06723192019950125,-0.021048772533178627,
0.06728179551122195,-0.00528468884117517,
0.06733167082294264,0.014187530961878997,
0.06738154613466334,-0.008273672868031367,
0.06743142144638405,-0.01857595982902617,
0.06748129675810474,-0.01231075606681967,
0.06753117206982544,-0.02789120296132494,
0.06758104738154613,0.0064439784468595,
0.06763092269326683,0.001946613809749309,
0.06768079800498752,-0.005984224980927069,
0.06773067331670823,-0.03597523508794709,
0.06778054862842893,-0.005677010585450885,
0.06783042394014963,-0.011005670480036048,
0.06788029925187032,-0.013696671628860629,
0.06793017456359102,-0.009389600452937009,
0.06798004987531173,0.0050050729377757825,
0.06802992518703242,0.016732403823674767,
0.06807980049875312,-0.02189745777353667,
0.06812967581047381,0.006616512242489503,
0.06817955112219451,0.027811223524273374,
0.0682294264339152,-0.00618659133431882,
0.06827930174563591,0.01084898799876385,
0.06832917705735661,-0.003079198107864307,
0.0683790523690773,-0.015707932544880145,
0.068428927680798,0.004491718378350793,
0.0684788029925187,0.01937671638298514,
0.06852867830423941,-0.0031424983925973683,
0.0685785536159601,0.01854349151985992,
0.0686284289276808,0.004497171788123446,
0.0686783042394015,-0.030229743188282098,
0.06872817955112219,0.00019639852538380718,
0.0687780548628429,-0.006862410671844608,
0.0688279301745636,0.015072193202507257,
0.06887780548628429,-0.006832029178399983,
0.06892768079800499,0.016170003887622755,
0.06897755610972568,0.002706529537714359,
0.06902743142144638,0.017196331979983916,
0.06907730673316709,-0.016512938530179475,
0.06912718204488778,0.019603392466772708,
0.06917705735660848,0.027024081970057307,
0.06922693266832917,0.005998121482786299,
0.06927680798004987,0.027441793872607267,
0.06932668329177058,0.0070499462348054395,
0.06937655860349128,-0.009029999309260038,
0.06942643391521197,0.007435098559645194,
0.06947630922693267,-0.009801264421123059,
0.06952618453865336,0.020674812714932694,
0.06957605985037406,0.0061867761364707615,
0.06962593516209477,0.030326764969784988,
0.06967581047381546,-0.013838006732204415,
0.06972568578553616,-0.02727330494314509,
0.06977556109725686,-0.002978298780234515,
0.06982543640897755,0.03634453200116415,
0.06987531172069826,-0.018835026915610162,
0.06992518703241896,0.018671170141120724,
0.06997506234413965,0.0027680668727658782,
0.07002493765586035,0.006440677706567267,
0.07007481296758104,0.010598349456252149,
0.07012468827930174,0.018496416595399925,
0.07017456359102245,0.01203692351530175,
0.07022443890274314,0.03796903114901558,
0.07027431421446384,0.0001337137270412056,
0.07032418952618454,0.012571820850648839,
0.07037406483790523,-0.018374014449871946,
0.07042394014962594,0.0116060586213027,
0.07047381546134664,0.014942248460178126,
0.07052369077306733,-0.021190986413127156,
0.07057356608478803,0.020251033833717264,
0.07062344139650872,0.002456214221544597,
0.07067331670822943,0.009591356587155465,
0.07072319201995013,0.019403893393119737,
0.07077306733167082,0.03464432177387183,
0.07082294264339152,1.2771385249276887e-05,
0.07087281795511222,0.01722206191507883,
0.07092269326683291,0.01232997155118265,
0.07097256857855362,0.03447873811655685,
0.07102244389027432,0.012104795271791972,
0.07107231920199501,0.01619812475363326,
0.07112219451371571,-0.020883647424610144,
0.0711720698254364,-0.0047511167458429635,
0.07122194513715711,0.025290387760862114,
0.07127182044887781,0.03527158738579434,
0.0713216957605985,0.04819275588274661,
0.0713715710723192,0.006151622793497199,
0.0714214463840399,0.012641005528308377,
0.07147132169576059,0.039243335367578444,
0.0715211970074813,0.014044700161266896,
0.071571072319202,0.044345611404044166,
0.0716209476309227,0.017960396818024884,
0.07167082294264339,0.005138450725372803,
0.07172069825436408,0.025868484331744934,
0.0717705735660848,0.04003120807761047,
0.07182044887780549,0.05136254094961882,
0.07187032418952619,0.013065492893254977,
0.07192019950124688,0.03418631200598331,
0.07197007481296758,0.012579937518925229,
0.07201995012468827,0.028825076252626383,
0.07206982543640898,0.012903940584957082,
0.07211970074812968,0.015272845317191319,
0.07216957605985037,0.025504331682767792,
0.07221945137157107,0.015928290922423878,
0.07226932668329177,0.01164116527288759,
0.07231920199501247,0.028865295166584322,
0.07236907730673317,0.02850562907226563,
0.07241895261845387,0.04783948227891899,
0.07246882793017456,0.006864198343078991,
0.07251870324189526,-0.00784951063958832,
0.07256857855361595,0.05580206217853358,
0.07261845386533666,0.03656405743475942,
0.07266832917705736,0.03591112653390727,
0.07271820448877805,0.02177488120090286,
0.07276807980049875,0.024354724869800892,
0.07281795511221945,0.026437993581800493,
0.07286783042394016,0.02902162050909638,
0.07291770573566085,0.03181534153926535,
0.07296758104738155,0.03381974432254768,
0.07301745635910224,0.008379002062991067,
0.07306733167082294,0.008331760016168217,
0.07311720698254365,0.04337349890554784,
0.07316708229426434,0.03907701818213663,
0.07321695760598504,0.01466955267802965,
0.07326683291770573,0.017232394613867028,
0.07331670822942643,0.03684869963876974,
0.07336658354114713,0.006595529502039666,
0.07341645885286784,0.06828242113988255,
0.07346633416458853,0.025156549760428637,
0.07351620947630923,0.03822419799040154,
0.07356608478802992,0.0432965046364928,
0.07361596009975062,0.0006128578040677929,
0.07366583541147133,0.006570108600286891,
0.07371571072319202,0.030798667215624884,
0.07376558603491272,0.038911437806126416,
0.07381546134663342,0.023797231343318143,
0.07386533665835411,0.021308014354217728,
0.0739152119700748,0.03403312025536688,
0.07396508728179552,0.0045578810210895465,
0.07401496259351621,0.0173602490606213,
0.07406483790523691,0.06465365584734464,
0.0741147132169576,0.038450057525075354,
0.0741645885286783,0.0005558489548713429,
0.07421446384039901,0.017428649324379188,
0.0742643391521197,0.04135093428724547,
0.0743142144638404,0.021019590726945835,
0.0743640897755611,0.027811623487495003,
0.07441396508728179,0.008671478345805138,
0.07446384039900249,0.000949191308111115,
0.0745137157107232,0.0028110013110665376,
0.07456359102244389,0.027027269654868468,
0.07461346633416459,0.03376816196227277,
0.07466334164588528,0.05000328853158299,
0.07471321695760598,-0.0017433155100858057,
0.07476309226932669,0.02800629835918993,
0.07481296758104738,0.0075350314936704285,
0.07486284289276808,0.03538157356849898,
0.07491271820448878,0.023663960504366675,
0.07496259351620947,0.014095216077164848,
0.07501246882793017,0.027633410142663788,
0.07506234413965088,0.03149849104069206,
0.07511221945137157,0.03142609994920991,
0.07516209476309227,0.02445503027246846,
0.07521197007481296,0.017761057170203216,
0.07526184538653366,0.031121137270229006,
0.07531172069825437,0.02595921918151957,
0.07536159600997507,0.04698111978940504,
0.07541147132169576,0.019312178630535172,
0.07546134663341646,0.023995340220635222,
0.07551122194513715,0.016266067812291604,
0.07556109725685786,0.02626923514034945,
0.07561097256857856,0.009880923666057643,
0.07566084788029925,0.033395842354730615,
0.07571072319201995,0.027907616282904904,
0.07576059850374064,0.043496313712279466,
0.07581047381546134,0.02009782991947831,
0.07586034912718205,0.03671945833475092,
0.07591022443890275,0.012984444230869347,
0.07596009975062344,0.0029525527085991626,
0.07600997506234414,0.025395826233943725,
0.07605985037406483,0.010634776188709418,
0.07610972568578554,0.03649206984184862,
0.07615960099750624,0.023442320658671207,
0.07620947630922693,-0.01015870960872417,
0.07625935162094763,0.023784073309444896,
0.07630922693266833,0.05383959221960301,
0.07635910224438902,0.04331494511612197,
0.07640897755610973,0.02787378702165571,
0.07645885286783043,0.00681995152298037,
0.07650872817955112,0.020180174211227517,
0.07655860349127182,0.01378772651973497,
0.07660847880299251,0.024170141065202246,
0.07665835411471322,0.02394548994924389,
0.07670822942643392,0.01677496609380287,
0.07675810473815461,0.045267511571219006,
0.07680798004987531,0.009697384861713624,
0.076857855361596,0.0020772072822016173,
0.0769077306733167,0.00574514713296817,
0.07695760598503741,-0.005204255441619794,
0.0770074812967581,0.03231994135670212,
0.0770573566084788,0.034221089290914344,
0.0771072319201995,0.007923608059202765,
0.0771571072319202,0.005762275322321854,
0.0772069825436409,0.004088592653932048,
0.0772568578553616,0.002267196834273835,
0.0773067331670823,0.016778768727693023,
0.07735660847880299,0.024597865883501116,
0.07740648379052369,0.028605511139586433,
0.0774563591022444,-0.01990103690164901,
0.07750623441396509,-0.00254910472779913,
0.07755610972568579,0.024012588288355778,
0.07760598503740648,0.042748023305492246,
0.07765586034912718,-0.0015389423540714264,
0.07770573566084787,0.01990686112890306,
0.07775561097256858,0.006820958028329903,
0.07780548628428928,-0.006087690880876698,
0.07785536159600998,0.03251134342345276,
0.07790523690773067,0.018385047767728712,
0.07795511221945137,0.04095110595085974,
0.07800498753117208,0.02499075493610064,
0.07805486284289277,-0.0037061530558865283,
0.07810473815461347,0.023841674079380155,
0.07815461346633416,0.01015898611211501,
0.07820448877805486,0.0009493465650331715,
0.07825436408977555,-0.0030744603110156084,
0.07830423940149626,0.014311181763526784,
0.07835411471321696,-0.007590060358656829,
0.07840399002493766,0.011415617537743433,
0.07845386533665835,0.010209325013659076,
0.07850374064837905,-0.014344156039953745,
0.07855361596009976,0.020361737834058168,
0.07860349127182045,0.046769469258055224,
0.07865336658354115,0.005627362728076079,
0.07870324189526184,0.013407347770797932,
0.07875311720698254,0.020209209633627392,
0.07880299251870324,0.014272440551257527,
0.07885286783042394,0.007096206167362257,
0.07890274314214464,0.02504546835900684,
0.07895261845386534,0.0011529637331902428,
0.07900249376558603,0.0012412078392775418,
0.07905236907730673,-7.566005970338716e-05,
0.07910224438902744,0.02363533744253159,
0.07915211970074813,0.02494669318859008,
0.07920199501246883,0.006302847697354329,
0.07925187032418952,0.009636097767535011,
0.07930174563591022,-0.003957742365044113,
0.07935162094763092,0.0218750284393089,
0.07940149625935163,-0.01257396810263096,
0.07945137157107232,-0.004932549171405161,
0.07950124688279302,0.008327659215097316,
0.07955112219451371,0.0144752627492169,
0.07960099750623441,0.009130209042109177,
0.07965087281795512,0.004333651106908188,
0.07970074812967581,-0.011993794441467538,
0.07975062344139651,0.008419698958673488,
0.0798004987531172,0.03122615343831435,
0.0798503740648379,0.0033818752383214523,
0.07990024937655861,-0.010464219344768379,
0.0799501246882793,0.044500966780955456,
0.08,-0.005734459112609774,
0.0800498753117207,0.01568629876929691,
0.0800997506234414,0.008211206041029213,
0.08014962593516209,0.0023258522766226642,
0.0801995012468828,0.00567581987692315,
0.0802493765586035,0.004213940650439361,
0.08029925187032419,0.001210291856147963,
0.08034912718204489,-0.0008476980708316549,
0.08039900249376558,0.010652907666443213,
0.08044887780548629,-0.011259483410598733,
0.08049875311720699,-0.0007349830952001529,
0.08054862842892768,-0.0033164159299370354,
0.08059850374064838,-0.007695180504650228,
0.08064837905236907,-0.02274068055079822,
0.08069825436408977,0.03505737127860833,
0.08074812967581048,-0.013295609437798023,
0.08079800498753117,-0.021062669095493383,
0.08084788029925187,-0.0282200141413316,
0.08089775561097257,-0.0006020848997548463,
0.08094763092269326,-0.004222075107313459,
0.08099750623441397,5.309445395515391e-05,
0.08104738154613467,-0.012852847335790904,
0.08109725685785536,-0.003723952697682404,
0.08114713216957606,-0.008996638853372974,
0.08119700748129675,-0.007981707255563446,
0.08124688279301745,0.010160058194027507,
0.08129675810473816,-0.02271914000146707,
0.08134663341645886,-0.011272642104506217,
0.08139650872817955,-0.011042871702269353,
0.08144638403990025,0.023581392321228793,
0.08149625935162094,0.002693284750135726,
0.08154613466334165,0.011446045529583556,
0.08159600997506235,-0.012464199032532536,
0.08164588528678304,0.0034511558247367928,
0.08169576059850374,0.011601334167597177,
0.08174563591022443,7.973201538729116e-05,
0.08179551122194513,-0.014783243326412138,
0.08184538653366584,-0.002687829975501747,
0.08189526184538654,0.012054073095450903,
0.08194513715710723,-0.01309225052775988,
0.08199501246882793,-0.016467683378579127,
0.08204488778054862,-0.0085045460091259,
0.08209476309226933,-0.00757609946504228,
0.08214463840399003,-0.011102640085125813,
0.08219451371571072,-0.020323826266277954,
0.08224438902743142,0.002089208954448033,
0.08229426433915212,0.026066553975055095,
0.08234413965087282,-0.011902202080884461,
0.08239401496259352,-0.04254921600002283,
0.08244389027431422,-0.014346635822648276,
0.08249376558603491,-0.006372630569878328,
0.08254364089775561,-0.020925838020922197,
0.0825935162094763,-0.0013599542154390364,
0.08264339152119701,-0.019063505745376498,
0.08269326683291771,-0.020953824588472177,
0.0827431421446384,-0.00013513625971151716,
0.0827930174563591,-0.022691560303666546,
0.0828428927680798,-0.01389347747248954,
0.0828927680798005,-0.00767866322414076,
0.0829426433915212,-0.002606456267089342,
0.0829925187032419,0.0205067703442234,
0.08304239401496259,-0.023383767603143955,
0.08309226932668329,-0.016098988514404916,
0.08314214463840398,-0.016839677356106374,
0.0831920199501247,-0.01797216320127781,
0.08324189526184539,-0.02022117932946362,
0.08329177057356608,-0.002031202461432062,
0.08334164588528678,-0.0033427463865095992,
0.08339152119700748,-0.029812316218049403,
0.08344139650872819,-0.009285142165744865,
0.08349127182044888,0.0290910590403317,
0.08354114713216958,-0.04115816597613548,
0.08359102244389027,-0.018705318319316495,
0.08364089775561097,-0.029330188209043328,
0.08369077306733166,-0.034310361405343735,
0.08374064837905237,-0.04947153172729317,
0.08379052369077307,-0.02104098498395392,
0.08384039900249377,-0.018056777024300762,
0.08389027431421446,-0.0035420107411867022,
0.08394014962593516,0.01641754354602326,
0.08399002493765587,-0.0346141966823104,
0.08403990024937656,-0.0005068346724599569,
0.08408977556109726,-0.012482385803151214,
0.08413965087281795,-0.020196306262500126,
0.08418952618453865,-0.020446142992077827,
0.08423940149625936,-0.012690593828504822,
0.08428927680798005,-0.03983320369621912,
0.08433915211970075,-0.03472525040194306,
0.08438902743142145,-0.030750117765920848,
0.08443890274314214,-0.016435034497664466,
0.08448877805486284,0.0136909594886548,
0.08453865336658355,-0.0023101851526787006,
0.08458852867830424,-0.014674758597451175,
0.08463840399002494,-0.026490048839748044,
0.08468827930174563,-0.004293128223267016,
0.08473815461346633,-0.005950529311957358,
0.08478802992518704,-0.00570606536360537,
0.08483790523690773,-0.030154191420462106,
0.08488778054862843,-0.038772473476116225,
0.08493765586034913,-0.03937810466483822,
0.08498753117206982,-0.007247104849195082,
0.08503740648379052,-0.006592654436522748,
0.08508728179551123,-0.023664578315970276,
0.08513715710723192,-0.005934841669717039,
0.08518703241895262,-0.01324658478522432,
0.08523690773067331,-0.030523038814031525,
0.08528678304239401,0.0016533234630306,
0.08533665835411472,-0.036417648569797186,
0.08538653366583542,-0.01633746463374319,
0.08543640897755611,-0.007136740711080079,
0.0854862842892768,-0.0010534065526144974,
0.0855361596009975,0.01898121164567485,
0.0855860349127182,-0.025814451089642223,
0.08563591022443891,0.011231704185159761,
0.0856857855361596,0.0036336336817568773,
0.0857356608478803,-0.011667800801199491,
0.085785536159601,-0.0015565145174136433,
0.08583541147132169,0.013136014493098723,
0.0858852867830424,-0.013393656037208383,
0.0859351620947631,-0.004366321233605686,
0.08598503740648379,0.0025561689671325175,
0.08603491271820449,-0.01540275477541854,
0.08608478802992518,0.006513250367150218,
0.08613466334164588,0.016053960223503735,
0.08618453865336659,-0.020994100699028635,
0.08623441396508728,-0.005694400925813022,
0.08628428927680798,-0.0026293553147155365,
0.08633416458852868,-0.00394720502261621,
0.08638403990024937,0.010856204312043486,
0.08643391521197008,-0.023430375322363854,
0.08648379052369078,-0.01602212551108774,
0.08653366583541147,-0.004304766607491111,
0.08658354114713217,-0.019988678766356995,
0.08663341645885286,-0.03476827239033691,
0.08668329177057357,-0.0010375351451255253,
0.08673316708229427,0.0208118942216242,
0.08678304239401496,-0.0003154986177114714,
0.08683291770573566,0.020459375003866354,
0.08688279301745636,0.00782862898814913,
0.08693266832917705,0.0024527794100178465,
0.08698254364089776,-0.015280189846759676,
0.08703241895261846,-0.01259814867031228,
0.08708229426433915,-0.014022556917377806,
0.08713216957605985,0.00010869272245725339,
0.08718204488778054,-0.020664239480450704,
0.08723192019950125,-0.023564475321723642,
0.08728179551122195,-0.00810179773392454,
0.08733167082294264,-0.014031858017262169,
0.08738154613466334,-0.004651189067377807,
0.08743142144638404,0.00047122755827646527,
0.08748129675810473,-1.1345321022673133e-05,
0.08753117206982544,0.008887819901975349,
0.08758104738154614,-0.006294104304896369,
0.08763092269326683,0.004238995196586052,
0.08768079800498753,-0.014681698081423295,
0.08773067331670822,0.008957931596298433,
0.08778054862842893,0.0023751703756882785,
0.08783042394014963,-0.023977639948264625,
0.08788029925187033,0.0027045541804444637,
0.08793017456359102,0.03028993846977839,
0.08798004987531172,0.012676743019056295,
0.08802992518703241,0.017537846099333346,
0.08807980049875312,-0.010777520446040339,
0.08812967581047382,-0.014395928789472417,
0.08817955112219451,-0.031066360078192072,
0.08822942643391521,0.016385301976053118,
0.0882793017456359,0.009809290945983578,
0.08832917705735661,0.003951510402901895,
0.08837905236907731,-0.0016660715838990162,
0.088428927680798,0.02739153356125423,
0.0884788029925187,-0.006263380975243334,
0.0885286783042394,-0.0037753023767675056,
0.0885785536159601,0.00011795974675458563,
0.0886284289276808,0.02385817748507441,
0.0886783042394015,0.0030480493094756454,
0.0887281795511222,0.010838220071736366,
0.08877805486284289,-0.009433786855545181,
0.08882793017456359,-0.016055400604413114,
0.0888778054862843,0.0017113407066298167,
0.08892768079800499,-0.002455832423586733,
0.08897755610972569,0.0013757574717833173,
0.08902743142144638,0.019836593188465933,
0.08907730673316708,0.008175449934751116,
0.08912718204488779,0.004653730151549853,
0.08917705735660848,0.006814789411178783,
0.08922693266832918,-0.023783375065915303,
0.08927680798004987,0.03363520872283734,
0.08932668329177057,-0.004518252459707196,
0.08937655860349127,0.008472580418913436,
0.08942643391521198,0.023927272165911225,
0.08947630922693267,-0.01418622881497975,
0.08952618453865337,0.022870117366351257,
0.08957605985037406,0.011536331266681217,
0.08962593516209476,-0.0015910545802577877,
0.08967581047381547,0.025693533976700184,
0.08972568578553616,0.023639462719023147,
0.08977556109725686,0.025110154689900993,
0.08982543640897755,0.0002755814493715994,
0.08987531172069825,0.013657532963719687,
0.08992518703241895,-0.016707214490918883,
0.08997506234413966,0.00944343793299331,
0.09002493765586035,0.008290911063084766,
0.09007481296758105,0.01720591031271626,
0.09012468827930174,0.013090170448895959,
0.09017456359102244,0.03212929734485938,
0.09022443890274315,0.02511673547029711,
0.09027431421446384,0.034184060201347816,
0.09032418952618454,0.003045238972416618,
0.09037406483790524,0.01696554639640814,
0.09042394014962593,-0.003393261450106922,
0.09047381546134663,-0.006816872706777517,
0.09052369077306734,0.006077537247247047,
0.09057356608478803,0.013894056990664401,
0.09062344139650873,0.026909668020087395,
0.09067331670822942,0.02466118476064201,
0.09072319201995012,0.027540055443683084,
0.09077306733167083,-0.00852911771731378,
0.09082294264339152,0.015805550002313463,
0.09087281795511222,-0.017957485816480236,
0.09092269326683292,0.016887331661874092,
0.09097256857855361,0.0172242926189671,
0.09102244389027432,0.04294210979102335,
0.09107231920199502,0.01916641840147557,
0.09112219451371571,0.02730086169933483,
0.09117206982543641,0.05335160469914796,
0.0912219451371571,0.026981566476189885,
0.0912718204488778,0.014134498608218913,
0.09132169576059851,0.04634657518278983,
0.0913715710723192,0.021541069104166602,
0.0914214463840399,0.014449430092818114,
0.0914713216957606,0.0199222889612109,
0.09152119700748129,0.025369832448611976,
0.091571072319202,-0.0009412172024654518,
0.0916209476309227,0.00643509812664032,
0.09167082294264339,0.01370716096896204,
0.09172069825436409,0.03754820454365562,
0.09177057356608478,0.016161507405848582,
0.09182044887780548,0.032608686322812636,
0.09187032418952619,0.006330188482967729,
0.09192019950124689,0.02197818538054845,
0.09197007481296758,-0.0069136601867533475,
0.09201995012468828,0.02203505392367403,
0.09206982543640897,0.022777978814984407,
0.09211970074812968,0.003731803061444758,
0.09216957605985038,0.04824792475975432,
0.09221945137157107,0.029177541281338527,
0.09226932668329177,0.0031705719150678033,
0.09231920199501246,0.05062779431956708,
0.09236907730673316,0.02532920018899937,
0.09241895261845387,0.024335493658172228,
0.09246882793017457,0.023549819310121085,
0.09251870324189526,0.03090823140739879,
0.09256857855361596,0.039584505023057416,
0.09261845386533665,0.00041654110570335523,
0.09266832917705736,0.01529336193973118,
0.09271820448877806,0.020456153868426988,
0.09276807980049875,0.013824752758831757,
0.09281795511221945,0.014847069737734019,
0.09286783042394015,0.03097769522659463,
0.09291770573566084,0.032115555842045986,
0.09296758104738155,0.029144728169604565,
0.09301745635910225,0.040616954047472835,
0.09306733167082294,0.027572762106048206,
0.09311720698254364,0.07035515668951473,
0.09316708229426433,0.01618429811608521,
0.09321695760598504,0.033409083225544714,
0.09326683291770574,0.013713998672499152,
0.09331670822942643,0.009167519386426265,
0.09336658354114713,0.010518162690788573,
0.09341645885286783,0.009291332097217421,
0.09346633416458854,0.005470877700296944,
0.09351620947630923,0.029212327757076998,
0.09356608478802993,0.03392024492948507,
0.09361596009975062,0.024377144130393616,
0.09366583541147132,-0.002018506661602179,
0.09371571072319201,0.06594072938473279,
0.09376558603491272,0.01365988484152753,
0.09381546134663342,0.022696646081189747,
0.09386533665835411,0.026296605394795777,
0.09391521197007481,-0.0006153924313874425,
0.0939650872817955,0.03724038236153477,
0.09401496259351622,0.029762483945632565,
0.09406483790523691,0.0026187547101835136,
0.09411471321695761,0.013763555969415133,
0.0941645885286783,0.006991588934632448,
0.094214463840399,0.034955311997190534,
0.0942643391521197,0.023440172529262716,
0.0943142144638404,0.033397704409216335,
0.0943640897755611,0.036488018014426915,
0.0944139650872818,0.013730517637144397,
0.09446384039900249,0.021921214723528547,
0.09451371571072319,-0.010392817817186938,
0.0945635910224439,0.036442301331026924,
0.09461346633416459,0.027687564543246192,
0.09466334164588529,0.030757824450115497,
0.09471321695760598,0.006295518086717793,
0.09476309226932668,0.028794267673079826,
0.09481296758104737,0.0066522529996260946,
0.09486284289276808,0.0220868239514139,
0.09491271820448878,0.00939335261458733,
0.09496259351620948,0.026726437767333983,
0.09501246882793017,0.029875252265330183,
0.09506234413965087,0.018743017563863214,
0.09511221945137158,0.05956452438172932,
0.09516209476309227,0.06384343718514986,
0.09521197007481297,0.02965542891296345,
0.09526184538653366,0.0028732164740148114,
0.09531172069825436,-0.017278459989139343,
0.09536159600997507,0.04278965710186537,
0.09541147132169576,0.042742522515636185,
0.09546134663341646,0.00824578149957552,
0.09551122194513716,0.03174324167407166,
0.09556109725685785,0.0440454317104392,
0.09561097256857855,0.03727774221988318,
0.09566084788029926,0.021868662393689717,
0.09571072319201995,0.03284309715794903,
0.09576059850374065,0.03885718345296152,
0.09581047381546134,0.017679975381979778,
0.09586034912718204,0.049899301148181946,
0.09591022443890275,0.014751953416140643,
0.09596009975062345,0.03918002320380305,
0.09600997506234414,0.04583846370566243,
0.09605985037406484,0.04254569615081638,
0.09610972568578553,-0.0025897290619709794,
0.09615960099750623,0.042559420378361995,
0.09620947630922694,0.03272516157665413,
0.09625935162094763,0.019637631363454172,
0.09630922693266833,0.042116806953171465,
0.09635910224438902,0.034115723981128374,
0.09640897755610972,0.03874031158665671,
0.09645885286783043,0.052398382226349495,
0.09650872817955113,0.029485768143254504,
0.09655860349127182,0.003916666629835353,
0.09660847880299252,-0.014017073428273338,
0.09665835411471321,-0.000772240351625382,
0.09670822942643391,0.04216458478690875,
0.09675810473815462,0.05310694840601441,
0.09680798004987531,0.03300328007192097,
0.09685785536159601,0.022920126427143302,
0.0969077306733167,0.0285303649578854,
0.0969576059850374,0.009790369466391328,
0.09700748129675811,0.022037336477241685,
0.0970573566084788,0.031120549785904457,
0.0971072319201995,0.002770201299536104,
0.0971571072319202,0.011137379278769526,
0.0972069825436409,0.018950450073258067,
0.09725685785536159,0.02957064971895302,
0.0973067331670823,0.03691324364524576,
0.097356608478803,-0.015529648674955994,
0.09740648379052369,0.02852817844627681,
0.09745635910224439,0.0031564773910188176,
0.09750623441396508,0.015335839368751429,
0.09755610972568579,0.002246284490804445,
0.09760598503740649,0.0005259649865690386,
0.09765586034912718,0.011411634574125518,
0.09770573566084788,0.03167361134334111,
0.09775561097256857,0.03120782872893268,
0.09780548628428928,0.009506678306983516,
0.09785536159600998,0.028581755840440447,
0.09790523690773068,0.03501302062685221,
0.09795511221945137,0.03476453062809404,
0.09800498753117207,0.0017579550782416842,
0.09805486284289276,0.011684160336939786,
0.09810473815461347,0.0066135856239978325,
0.09815461346633417,0.006050479405586705,
0.09820448877805486,0.025076881213670334,
0.09825436408977556,0.0050678889358423355,
0.09830423940149625,-0.01667468637622318,
0.09835411471321696,0.009215178313380278,
0.09840399002493766,-0.0027036818585717583,
0.09845386533665836,0.01744565944855704,
0.09850374064837905,0.018556662213078955,
0.09855361596009975,-0.0026655300599292935,
0.09860349127182044,-0.005129437793748368,
0.09865336658354115,0.005189412087676779,
0.09870324189526185,0.010301245096150264,
0.09875311720698254,0.008619016563955816,
0.09880299251870324,-0.0038018405951640976,
0.09885286783042393,-0.004601773363277752,
0.09890274314214464,0.008174646220142731,
0.09895261845386534,-0.015384203004811378,
0.09900249376558604,-0.010659031677836779,
0.09905236907730673,0.00397667888600215,
0.09910224438902743,0.01718710202567348,
0.09915211970074812,-0.02451198149859804,
0.09920199501246883,0.018867081806777656,
0.09925187032418953,0.013383837092940415,
0.09930174563591022,0.016902281944732124,
0.09935162094763092,0.050991344205261496,
0.09940149625935162,-0.015635169436266787,
0.09945137157107233,0.004573781963679211,
0.09950124688279302,-0.033340129702332875,
0.09955112219451372,0.023556334335318514,
0.09960099750623441,0.024956657713902555,
0.09965087281795511,0.010209310008122145,
0.0997007481296758,-0.007256833797750447,
0.09975062344139651,-0.0013369850394809113,
0.09980049875311721,0.0025537782544284397,
0.0998503740648379,0.0018836205407491303,
0.0999002493765586,-0.015795008611915635,
0.0999501246882793,0.017290061302343524,
0.1,-0.015893774190850054,
0.1000498753117207,0.0018062607652224434,
0.1000997506234414,-0.0007882551813500728,
0.10014962593516209,-0.00538052332998673,
0.10019950124688279,0.028957680386095135,
0.1002493765586035,0.007260474056852441,
0.1002992518703242,0.007587078262344395,
0.10034912718204489,0.021527630291124804,
0.10039900249376559,0.0062337969635516315,
0.10044887780548628,0.010154748485244617,
0.10049875311720698,-0.018192624886043094,
0.10054862842892769,-0.026543159360325974,
0.10059850374064838,-0.008030846775913168,
0.10064837905236908,-0.015479478728642599,
0.10069825436408977,0.013259069978038909,
0.10074812967581047,-0.013667401790182311,
0.10079800498753118,0.013326758911828055,
0.10084788029925187,-0.01705079418762419,
0.10089775561097257,-0.039980397982636424,
0.10094763092269327,0.0005154821833503556,
0.10099750623441396,-0.01022885383624084,
0.10104738154613466,-0.014046817627098689,
0.10109725685785537,0.009361020027079395,
0.10114713216957606,-0.011646869464443429,
0.10119700748129676,-0.02166564965504699,
0.10124688279301745,-0.021929872268984192,
0.10129675810473815,0.0067772115429924834,
0.10134663341645886,0.002993953471079101,
0.10139650872817955,-0.006985349504644606,
0.10144638403990025,-0.010592157588103892,
0.10149625935162095,0.017933565101329,
0.10154613466334164,-0.02751305634049592,
0.10159600997506234,0.0016932226540093765,
0.10164588528678305,0.019289108386818514,
0.10169576059850374,-0.04471354883594202,
0.10174563591022444,-0.016643327271623598,
0.10179551122194513,-0.02535589287702978,
0.10184538653366583,-0.01265823233588678,
0.10189526184538654,-0.011975118260654255,
0.10194513715710724,0.020236035266343783,
0.10199501246882793,-0.0008589627560415414,
0.10204488778054863,-0.006062625647908139,
0.10209476309226932,-0.01525776536818043,
0.10214463840399003,-0.01579650010131181,
0.10219451371571073,0.002746824779481521,
0.10224438902743142,-0.010914357560153647,
0.10229426433915212,-0.012311752692877284,
0.10234413965087281,0.013487880330799892,
0.10239401496259351,0.004595148593451552,
0.10244389027431422,-0.0010533831904407116,
0.10249376558603492,0.010414636128575037,
0.10254364089775561,-0.009062947818395251,
0.10259351620947631,-0.027362656932790587,
0.102643391521197,-0.004057461706239193,
0.10269326683291771,-0.007788953820924879,
0.10274314214463841,0.0024475719280509737,
0.1027930174563591,-0.031385900399430816,
0.1028428927680798,-0.025801994554115915,
0.1028927680798005,-0.013237296772142755,
0.10294264339152119,-0.04072474578228953,
0.1029925187032419,-0.02141122790231384,
0.1030423940149626,-0.004958411863336143,
0.10309226932668329,-0.004681558242612503,
0.10314214463840399,-0.00967160367847536,
0.10319201995012468,-0.045850267722625376,
0.10324189526184539,-0.02057999665845722,
0.10329177057356609,-0.008676657913170521,
0.10334164588528678,-0.0022190894188054786,
0.10339152119700748,-0.010116233699830104,
0.10344139650872818,-0.03514473000605597,
0.10349127182044887,-0.014589402759496465,
0.10354114713216958,-0.02587343028370844,
0.10359102244389028,-0.011887779361511424,
0.10364089775561097,-0.012032172926220112,
0.10369077306733167,-0.010822760856417644,
0.10374064837905236,-0.022582465744250775,
0.10379052369077307,-0.004759193133766359,
0.10384039900249377,-0.0025970755916316975,
0.10389027431421446,-0.008824940924543983,
0.10394014962593516,-0.02220050978082477,
0.10399002493765586,0.013996066559323003,
0.10403990024937655,0.010913478004708883,
0.10408977556109726,-0.006265227784103766,
0.10413965087281796,0.012203345430011649,
0.10418952618453865,0.003501652902568781,
0.10423940149625935,-0.017041380555702125,
0.10428927680798004,-0.025620206483111474,
0.10433915211970075,-0.02024381110545205,
0.10438902743142145,-0.019569213574979885,
0.10443890274314215,-0.004442398582735888,
0.10448877805486284,-0.03345119275439133,
0.10453865336658354,-0.025957626208263807,
0.10458852867830425,-0.0018858624691091962,
0.10463840399002494,-0.011882898555836283,
0.10468827930174564,-0.021260488856058184,
0.10473815461346633,-0.03305136846281851,
0.10478802992518703,-0.03211397488718685,
0.10483790523690772,-0.0222346003157734,
0.10488778054862843,-0.00660515852496787,
0.10493765586034913,0.0005699340617361468,
0.10498753117206983,-0.014650838954972972,
0.10503740648379052,0.0032721336082167166,
0.10508728179551122,0.013276443599571749,
0.10513715710723193,0.0008300476334009745,
0.10518703241895262,0.001610354700319715,
0.10523690773067332,0.004925078568187916,
0.10528678304239401,-0.019323111698520044,
0.10533665835411471,-0.01904713850494286,
0.1053865336658354,-0.013050603348741,
0.10543640897755611,0.0015907960673381145,
0.10548628428927681,-0.010337437043342649,
0.1055361596009975,-0.0266888140983983,
0.1055860349127182,0.004886123799217457,
0.1056359102244389,-0.046909982169670884,
0.10568578553615961,0.019704197442857764,
0.1057356608478803,0.0035158049152310324,
0.105785536159601,-0.0070389874884461915,
0.1058354114713217,-0.020405881005886986,
0.10588528678304239,-0.01884743847847866,
0.10593516209476309,-0.004481631151511943,
0.1059850374064838,-0.01852318089376459,
0.10603491271820449,-0.03445526302209445,
0.10608478802992519,-0.007888179819995733,
0.10613466334164588,-0.016047202019490177,
0.10618453865336658,-0.016315210142147787,
0.10623441396508729,-0.020648267897192173,
0.10628428927680798,0.006631303229449562,
0.10633416458852868,0.007149330712272984,
0.10638403990024937,-0.0186299653470666,
0.10643391521197007,0.00023987084837896137,
0.10648379052369077,-0.010505336908591652,
0.10653366583541148,-0.005597419252240546,
0.10658354114713217,0.01803574630582902,
0.10663341645885287,0.001459457217521578,
0.10668329177057356,0.0012360913099707634,
0.10673316708229426,-0.0009004507701490675,
0.10678304239401497,0.0025665717122878313,
0.10683291770573566,-0.015362816298985052,
0.10688279301745636,0.01759563722480271,
0.10693266832917706,-0.01254765883137108,
0.10698254364089775,-0.0127395425634978,
0.10703241895261846,0.026486587967795953,
0.10708229426433916,0.009563845816474853,
0.10713216957605985,-0.017947464998215593,
0.10718204488778055,-0.005209744120136762,
0.10723192019950124,0.013580305472420595,
0.10728179551122194,0.021565894376233866,
0.10733167082294265,-0.009692664181673305,
0.10738154613466334,-0.008233695900182709,
0.10743142144638404,0.00048785333019351045,
0.10748129675810474,-0.01809389042689751,
0.10753117206982543,0.0013892098379911988,
0.10758104738154614,-0.009317325971472876,
0.10763092269326684,-0.000887161159754766,
0.10768079800498753,0.004381817952533265,
0.10773067331670823,0.020250112933529733,
0.10778054862842892,-0.00023316442688341783,
0.10783042394014962,-0.009313573770365978,
0.10788029925187033,0.020490454605929964,
0.10793017456359102,0.005530857457555877,
0.10798004987531172,0.003182753188477298,
0.10802992518703242,-0.014935820498624859,
0.10807980049875311,0.021795490009281486,
0.10812967581047382,-0.01164549334361389,
0.10817955112219452,-0.010284669487971352,
0.10822942643391521,-0.0068495714618718884,
0.10827930174563591,0.001380167762966467,
0.1083291770573566,0.03170052727613928,
0.1083790523690773,-0.016171038711331437,
0.10842892768079801,0.007936068490150295,
0.1084788029925187,0.002252708507615204,
0.1085286783042394,-0.009113102502757417,
0.1085785536159601,0.005774691181050752,
0.10862842892768079,0.0023478146522446885,
0.1086783042394015,0.0014827060308953174,
0.1087281795511222,0.02843844369823746,
0.1087780548628429,0.028397262175767782,
0.10882793017456359,0.02648427510413493,
0.10887780548628428,0.024466100936359796,
0.108927680798005,0.016768401673681772,
0.10897755610972569,0.0252925975713201,
0.10902743142144639,0.022689026349303636,
0.10907730673316708,0.027905251100720417,
0.10912718204488778,-0.00799942289172599,
0.10917705735660847,-0.0011902219303730338,
0.10922693266832918,-0.00583163205909178,
0.10927680798004988,0.001573433867029482,
0.10932668329177057,0.012646697291585275,
0.10937655860349127,0.04067346425146573,
0.10942643391521197,0.014873685765586606,
0.10947630922693267,0.0011281821111253417,
0.10952618453865337,0.013723392977334822,
0.10957605985037407,0.03228867173976188,
0.10962593516209476,0.030671607772836108,
0.10967581047381546,-0.009444439307845595,
0.10972568578553615,0.007660818758910873,
0.10977556109725686,0.025817071800558398,
0.10982543640897756,-0.001674279390161312,
0.10987531172069825,0.024568170455380612,
0.10992518703241895,0.00456312272284813,
0.10997506234413965,0.032444381087036386,
0.11002493765586036,0.02903823222706583,
0.11007481296758105,0.020961085220975013,
0.11012468827930175,0.014718598260645777,
0.11017456359102244,0.0342369243362146,
0.11022443890274314,0.0029579802431839684,
0.11027431421446383,-0.0011304569581816158,
0.11032418952618454,-0.009929106412367342,
0.11037406483790524,0.01821966548630573,
0.11042394014962593,0.01086050514976837,
0.11047381546134663,0.021404419670853454,
0.11052369077306733,0.01770025592368516,
0.11057356608478804,-0.0026328118979512954,
0.11062344139650873,0.02599438942390119,
0.11067331670822943,0.027930371346434016,
0.11072319201995012,0.010354821295363302,
0.11077306733167082,0.024044061720652717,
0.11082294264339151,0.009996920101206072,
0.11087281795511222,0.005059993001775407,
0.11092269326683292,0.024595263192333173,
0.11097256857855362,0.005120690112951298,
0.11102244389027431,0.010493830486366632,
0.111072319201995,0.016433579909275044,
0.11112219451371572,0.012021950606562169,
0.11117206982543641,0.03326474535775646,
0.11122194513715711,0.021589491627801834,
0.1112718204488778,0.015644686316962683,
0.1113216957605985,0.02822228011259567,
0.11137157107231921,0.029121250600434245,
0.1114214463840399,0.018692114104184664,
0.1114713216957606,0.028882149883843612,
0.1115211970074813,-0.034933111715510265,
0.11157107231920199,0.03790694193892482,
0.11162094763092269,0.01263587317023671,
0.1116708229426434,0.012592870572885315,
0.11172069825436409,0.03302708700203222,
0.11177057356608479,-0.002765229998603555,
0.11182044887780548,0.03316060120487298,
0.11187032418952618,0.013830040734283832,
0.11192019950124689,0.009161506278553326,
0.11197007481296758,0.02519451955395043,
0.11201995012468828,0.021795301274238947,
0.11206982543640898,0.03465047932438969,
0.11211970074812967,0.04570573660716691,
0.11216957605985037,0.0472773159535538,
0.11221945137157108,0.05631482411077116,
0.11226932668329177,0.02665222532115489,
0.11231920199501247,0.042757154661641636,
0.11236907730673316,0.01382976595010662,
0.11241895261845386,0.03353700868612656,
0.11246882793017457,0.037561473066333034,
0.11251870324189527,0.0103183227235031,
0.11256857855361596,0.023759694419835584,
0.11261845386533666,0.04791616387303001,
0.11266832917705735,0.022516636353934413,
0.11271820448877805,0.04981970455257011,
0.11276807980049876,0.016109169881780454,
0.11281795511221945,0.04347761637006789,
0.11286783042394015,0.031935706827465174,
0.11291770573566084,0.03882907155866622,
0.11296758104738154,-0.017084542788026187,
0.11301745635910225,0.034989546138069996,
0.11306733167082295,0.016544256046176015,
0.11311720698254364,0.00688965313460951,
0.11316708229426434,0.03651932195702973,
0.11321695760598503,0.043476109192562395,
0.11326683291770574,0.03536731299777808,
0.11331670822942644,0.03693869333665908,
0.11336658354114713,0.04169273850942819,
0.11341645885286783,-0.005000108253525003,
0.11346633416458853,0.014657343151832362,
0.11351620947630922,0.03647824925950138,
0.11356608478802993,0.0018583478704091404,
0.11361596009975063,0.024581418062061353,
0.11366583541147132,0.03365913256198791,
0.11371571072319202,0.02150509305726906,
0.11376558603491271,0.01344339458112256,
0.11381546134663342,0.04625327518022354,
0.11386533665835412,0.04118423010567352,
0.11391521197007481,0.02925147056312073,
0.11396508728179551,0.03519558468200068,
0.1140149625935162,0.01664734737885448,
0.1140648379052369,0.0371094999639141,
0.11411471321695761,0.04263795184307177,
0.1141645885286783,0.01611881333460874,
0.114214463840399,0.016210100551916913,
0.1142643391521197,0.023878222755166163,
0.1143142144638404,0.039820652554037606,
0.1143640897755611,0.017127077480937017,
0.1144139650872818,0.029753747017221433,
0.1144638403990025,0.020206752636224797,
0.11451371571072319,-0.008285048921405108,
0.11456359102244389,0.06103069133782317,
0.11461346633416458,0.025153986969174515,
0.11466334164588529,0.022978282538715984,
0.11471321695760599,0.03801974028053719,
0.11476309226932668,0.018138376090945013,
0.11481296758104738,0.027431408535360486,
0.11486284289276807,0.03125905664691866,
0.11491271820448878,0.03608768116048399,
0.11496259351620948,0.04740487583929205,
0.11501246882793018,0.03792081735671105,
0.11506234413965087,0.044443041711194134,
0.11511221945137157,0.028856201478790408,
0.11516209476309226,0.022749685775353252,
0.11521197007481297,0.018861914146524425,
0.11526184538653367,0.02536275876326499,
0.11531172069825436,0.017109053752474103,
0.11536159600997506,0.028848075169658427,
0.11541147132169575,0.017746253092234168,
0.11546134663341646,0.024783801926993736,
0.11551122194513716,0.04142066784525589,
0.11556109725685786,0.013786138014674005,
0.11561097256857855,0.03254349883653041,
0.11566084788029925,0.021678112863405288,
0.11571072319201996,0.019860549234170827,
0.11576059850374065,0.02205938871555715,
0.11581047381546135,0.022767988830100786,
0.11586034912718204,0.041261530460448115,
0.11591022443890274,0.021558430377177,
0.11596009975062344,0.004653275725799041,
0.11600997506234415,0.04322979404596257,
0.11605985037406484,0.02104654931117702,
0.11610972568578554,0.027694226570585113,
0.11615960099750623,0.058492439307870854,
0.11620947630922693,0.03063192704719339,
0.11625935162094764,0.024289466726090614,
0.11630922693266833,0.037140579758354296,
0.11635910224438903,0.044735289195036824,
0.11640897755610972,0.05496383689926007,
0.11645885286783042,-0.00891960249591317,
0.11650872817955112,0.03712284053474264,
0.11655860349127183,0.032693836591156,
0.11660847880299252,0.031228357477698532,
0.11665835411471322,0.01127499496076047,
0.11670822942643391,0.016357279560251247,
0.11675810473815461,0.013593126516995528,
0.11680798004987532,-0.019176564821500174,
0.11685785536159601,0.010614919959580383,
0.11690773067331671,0.031290137237470234,
0.1169576059850374,0.028218808128234355,
0.1170074812967581,-0.00608982698569361,
0.1170573566084788,0.008079595234002958,
0.1171072319201995,0.03998292339379097,
0.1171571072319202,0.0025497077442140845,
0.1172069825436409,0.025488716378010545,
0.1172568578553616,0.02524229284984129,
0.11730673316708229,0.025754272530924393,
0.117356608478803,0.00993665368228208,
0.1174064837905237,0.006327947966480113,
0.11745635910224439,0.008266384725786863,
0.11750623441396509,0.0036905353246629267,
0.11755610972568578,0.03673797888876461,
0.11760598503740648,0.023655416148915587,
0.11765586034912719,0.029571448993442544,
0.11770573566084788,-0.014699757705460934,
0.11775561097256858,0.07010596474420541,
0.11780548628428927,0.012250246313149263,
0.11785536159600997,0.0012761390148816054,
0.11790523690773068,0.029046575459150698,
0.11795511221945137,0.011375993780285937,
0.11800498753117207,0.012137885954119437,
0.11805486284289277,0.008868754368975744,
0.11810473815461346,0.043345906278586435,
0.11815461346633417,0.013376963572139139,
0.11820448877805487,0.021570728891705204,
0.11825436408977556,0.010162512080897045,
0.11830423940149626,0.013337254939273183,
0.11835411471321695,0.020386591785205015,
0.11840399002493765,0.008392114448721677,
0.11845386533665836,0.04795186565817186,
0.11850374064837906,0.016877397552652725,
0.11855361596009975,-0.009706277160150706,
0.11860349127182045,-0.004493386180530294,
0.11865336658354114,0.034549188859183164,
0.11870324189526185,0.024756260935305092,
0.11875311720698255,0.007104358599250207,
0.11880299251870324,0.004820091048168282,
0.11885286783042394,0.015322084477771988,
0.11890274314214463,-0.025361650848437445,
0.11895261845386533,0.006393610343496247,
0.11900249376558604,-0.020339791690580554,
0.11905236907730674,-0.0023949831463374142,
0.11910224438902743,0.0032355506032262704,
0.11915211970074813,0.027529124874988445,
0.11920199501246882,0.017738351494390635,
0.11925187032418953,0.007176916627275515,
0.11930174563591023,0.01049470736991215,
0.11935162094763092,0.014373717755509762,
0.11940149625935162,-0.028686584972697552,
0.11945137157107232,-0.010734823351931511,
0.11950124688279301,0.01117096380246322,
0.11955112219451372,0.027447946682086274,
0.11960099750623442,0.00012891365819957864,
0.11965087281795511,0.006733507711439743,
0.11970074812967581,0.012299269054346196,
0.1197506234413965,0.0015290282781446106,
0.11980049875311721,-0.017235673218820968,
0.11985037406483791,0.00379349280151885,
0.1199002493765586,0.020785353885254165,
0.1199501246882793,0.024272670076902765,
0.12,0.01964066864208406,
0.1200498753117207,0.01409402002219709,
0.1200997506234414,0.02066286946780919,
0.1201496259351621,0.017378736627622807,
0.12019950124688279,0.0429827736710072,
0.12024937655860349,0.003683334421000136,
0.12029925187032418,0.035685982874062404,
0.1203491271820449,0.015015693175169455,
0.12039900249376559,0.018401041780248113,
0.12044887780548628,-0.0007534601570482143,
0.12049875311720698,-0.02993047316879619,
0.12054862842892768,0.010435429331747815,
0.12059850374064839,-0.014388159069225246,
0.12064837905236908,0.009999953810336124,
0.12069825436408978,-0.013185217319037596,
0.12074812967581047,0.0020299181055060986,
0.12079800498753117,0.010428606823608678,
0.12084788029925186,-0.015587054234864225,
0.12089775561097257,-0.0035140909663134924,
0.12094763092269327,-0.027426652209330868,
0.12099750623441397,0.010132612906323933,
0.12104738154613466,8.53911449876627e-06,
0.12109725685785536,-0.006322125034171454,
0.12114713216957607,-0.0011898043424706632,
0.12119700748129676,-0.03636764090625472,
0.12124688279301746,-0.025554905951506633,
0.12129675810473815,-0.016524799181192387,
0.12134663341645885,-0.01870104412463825,
0.12139650872817954,-0.005019874672850643,
0.12144638403990025,0.00067763338201857,
0.12149625935162095,0.0272710994784661,
0.12154613466334165,0.010218695076672623,
0.12159600997506234,0.0019640953552335343,
0.12164588528678304,0.0033561573870404347,
0.12169576059850375,-0.02165592280418216,
0.12174563591022444,-0.014301880163867456,
0.12179551122194514,-0.0252285620603869,
0.12184538653366583,-0.008467882876059369,
0.12189526184538653,-0.01605986935194826,
0.12194513715710723,-0.02099418433334862,
0.12199501246882793,-0.005634695677646172,
0.12204488778054863,-0.0041695128922268655,
0.12209476309226933,0.0086805989780033,
0.12214463840399002,-0.014393247968981325,
0.12219451371571072,0.00041637313614812776,
0.12224438902743143,-0.009306768915341962,
0.12229426433915212,-0.03564883953776915,
0.12234413965087282,-0.013917810519623867,
0.12239401496259351,-0.013205141014053845,
0.12244389027431421,-0.005092288624270777,
0.12249376558603492,-0.03275931517399152,
0.12254364089775562,-0.02467557469544238,
0.12259351620947631,0.0007981175160485954,
0.122643391521197,-0.026152838901739264,
0.1226932668329177,0.021854705630660304,
0.1227431421446384,-0.007436510730211909,
0.12279301745635911,-0.05141264872484527,
0.1228428927680798,-0.028852389359758552,
0.1228927680798005,-0.023027490979388082,
0.1229426433915212,-0.017621648835490222,
0.12299251870324189,-0.022409631499196572,
0.1230423940149626,-0.019770122076160343,
0.1230922693266833,-0.008151610798794957,
0.12314214463840399,-0.022298326419954186,
0.12319201995012469,0.00734819284790241,
0.12324189526184538,0.00010379777116547965,
0.12329177057356608,-0.009856038631547184,
0.12334164588528679,-0.02099767499313561,
0.12339152119700748,-0.013102205419288042,
0.12344139650872818,-0.026197238128931946,
0.12349127182044888,0.022402562936516577,
0.12354114713216957,0.012506265065614263,
0.12359102244389028,-0.0057315391075249775,
0.12364089775561098,-0.02721418030810686,
0.12369077306733167,-0.013276475433409863,
0.12374064837905237,-0.002484238860637077,
0.12379052369077306,-0.005043329166607909,
0.12384039900249376,-0.008045379706895214,
0.12389027431421447,-0.02953430890335844,
0.12394014962593516,0.004814684601050138,
0.12399002493765586,-0.012800178894452932,
0.12403990024937656,-0.02553378961034794,
0.12408977556109725,0.0026019703381070444,
0.12413965087281796,0.004108904398402547,
0.12418952618453866,-0.01733418071596686,
0.12423940149625935,0.0007818303766995889,
0.12428927680798005,-0.005797392780140333,
0.12433915211970074,-0.0354416799822298,
0.12438902743142144,0.002130593906402115,
0.12443890274314215,-0.0004317648507168072,
0.12448877805486284,-0.00031715593546484226,
0.12453865336658354,-0.03770760256405882,
0.12458852867830424,-0.03023273911039233,
0.12463840399002493,-0.019717872870208458,
0.12468827930174564,0.005211036239183547,
0.12473815461346634,-0.010763950818289781,
0.12478802992518703,0.014458422093658628,
0.12483790523690773,-0.015583499009538421,
0.12488778054862842,0.00921237014873016,
0.12493765586034913,-0.008112724445965022,
0.12498753117206983,0.011017760839170243,
0.12503740648379053,-0.005290070532643709,
0.12508728179551123,-0.0014339750557622322,
0.12513715710723192,-0.009201636038320945,
0.12518703241895263,-0.01322295109938557,
0.1252369077306733,0.014229330268919854,
0.12528678304239402,-0.02427423613549587,
0.1253366583541147,-0.012924087130417716,
0.1253865336658354,-0.009621037530492108,
0.12543640897755612,0.00973465386723569,
0.1254862842892768,0.0035322962674907785,
0.1255361596009975,-0.013207074540146965,
0.1255860349127182,-0.004791771983138639,
0.1256359102244389,-0.019606749694093747,
0.1256857855361596,0.004203841655323072,
0.1257356608478803,-0.017631488255109424,
0.125785536159601,-0.014730732259545997,
0.12583541147132168,-0.020557145089759803,
0.1258852867830424,-0.019447361414065455,
0.1259351620947631,-0.0028077796214235114,
0.12598503740648379,0.002048224228449195,
0.1260349127182045,-0.035513321092016006,
0.12608478802992518,-0.018905339927478643,
0.1261346633416459,-0.012633639266278624,
0.1261845386533666,-0.001095772192840864,
0.12623441396508728,0.0005439167288636398,
0.126284289276808,-0.008236975402604213,
0.12633416458852867,0.0036295846063176575,
0.12638403990024938,0.0035584599036714293,
0.1264339152119701,-0.0029633009920252452,
0.12648379052369077,-0.003377198966733138,
0.12653366583541148,-0.008189623899360784,
0.12658354114713216,0.014255464130384496,
0.12663341645885287,0.00036342782593830943,
0.12668329177057355,0.0051979474110028685,
0.12673316708229426,-0.016227398862556565,
0.12678304239401497,0.004808781485187654,
0.12683291770573565,-0.004976031144680008,
0.12688279301745636,0.012178154349709536,
0.12693266832917705,-0.02874368268842882,
0.12698254364089775,0.004238995286260202,
0.12703241895261846,-0.01702577653706499,
0.12708229426433915,0.015753613628276368,
0.12713216957605986,0.01618364600712384,
0.12718204488778054,-0.005171197579858709,
0.12723192019950125,0.012423245377314,
0.12728179551122196,0.005513485679581557,
0.12733167082294264,-0.011612394542906633,
0.12738154613466335,0.007663395199185189,
0.12743142144638403,-0.00792820762381347,
0.12748129675810474,0.0019580797176001323,
0.12753117206982545,-0.007271444419940359,
0.12758104738154613,-0.00694692754617025,
0.12763092269326684,0.010825826011635814,
0.12768079800498752,-0.00033613655640055433,
0.12773067331670823,-0.002932443152625568,
0.1277805486284289,0.0009777676165737441,
0.12783042394014962,0.004435439727909676,
0.12788029925187033,0.0011046071806321434,
0.12793017456359101,0.006482767035121411,
0.12798004987531172,-0.0035963077208420137,
0.1280299251870324,0.015055667642504938,
0.12807980049875312,0.009551218467816747,
0.12812967581047383,0.02571307762367869,
0.1281795511221945,0.0015460076472459921,
0.12822942643391522,0.0009359999177556795,
0.1282793017456359,0.0021805280926705133,
0.1283291770573566,0.0018725947669287358,
0.12837905236907732,-0.0025202481935731776,
0.128428927680798,0.016758179456415914,
0.1284788029925187,0.014599600098226155,
0.1285286783042394,-0.009911198693395785,
0.1285785536159601,0.009263670002127876,
0.1286284289276808,-0.0024361829784761996,
0.1286783042394015,-0.010236321651989478,
0.1287281795511222,0.017652804632829006,
0.12877805486284288,0.02657702139702102,
0.1288279301745636,-0.017391312221938682,
0.1288778054862843,-0.0015662452240921762,
0.12892768079800498,0.0015264768975967293,
0.1289775561097257,-0.020658844966229366,
0.12902743142144638,-0.011443968253883904,
0.12907730673316709,0.011412897458098774,
0.12912718204488777,0.0031266918224432576,
0.12917705735660848,0.0010426835395537896,
0.1292269326683292,0.027069749388921514,
0.12927680798004987,0.012605662171637874,
0.12932668329177058,-0.005693678829801065,
0.12937655860349126,0.024549851382390388,
0.12942643391521197,-0.00479165445008785,
0.12947630922693268,0.009985756578796925,
0.12952618453865336,0.008851062056323356,
0.12957605985037407,0.033100809200369403,
0.12962593516209475,0.012921833224424164,
0.12967581047381546,0.01570955278445311,
0.12972568578553617,-0.0026332044671429737,
0.12977556109725685,0.027729498887559635,
0.12982543640897756,0.017435946842880266,
0.12987531172069824,0.017491871655912067,
0.12992518703241895,0.03994147818386423,
0.12997506234413966,0.03483946922146344,
0.13002493765586035,0.025207946261817608,
0.13007481296758105,0.018370046599952793,
0.13012468827930174,0.018036585588438046,
0.13017456359102245,-0.024203705427292957,
0.13022443890274316,0.010402279095550072,
0.13027431421446384,-0.005947897419524589,
0.13032418952618455,0.016138386339804398,
0.13037406483790523,0.051653821161595836,
0.13042394014962594,-0.008615087600784437,
0.13047381546134662,-0.0004664550411507297,
0.13052369077306733,0.014498926858948508,
0.13057356608478804,0.0007602118131452944,
0.13062344139650872,0.026414123772011272,
0.13067331670822943,0.04458874044587524,
0.1307231920199501,-0.004561495991985697,
0.13077306733167082,0.04776835052490751,
0.13082294264339153,0.03541740563492131,
0.13087281795511221,0.033940343638821466,
0.13092269326683292,0.026054088433226184,
0.1309725685785536,-0.007938086958532087,
0.13102244389027431,0.024702001491053477,
0.13107231920199502,0.038902237248419486,
0.1311221945137157,0.014564259342443858,
0.13117206982543642,0.009822326952103819,
0.1312219451371571,0.004776275458874803,
0.1312718204488778,0.01646520086907693,
0.13132169576059852,0.024181402978203155,
0.1313715710723192,0.028902743302966098,
0.1314214463840399,0.02309814502689645,
0.1314713216957606,0.030082306518810074,
0.1315211970074813,0.0018992210717069628,
0.13157107231920198,0.04568887232890703,
0.1316209476309227,0.03235892597321483,
0.1316708229426434,0.022913588310444963,
0.13172069825436408,-0.008961890806167869,
0.1317705735660848,0.01630720869847823,
0.13182044887780547,0.024801901776138186,
0.13187032418952618,0.04761073357948392,
0.1319201995012469,0.035762346073531424,
0.13197007481296757,0.04894331030614179,
0.13201995012468828,0.048774464917911084,
0.13206982543640897,0.0347315165507172,
0.13211970074812968,0.04386972657780413,
0.13216957605985039,0.028995626999065827,
0.13221945137157107,0.028387216145269744,
0.13226932668329178,0.0427453749234361,
0.13231920199501246,0.027374371394994875,
0.13236907730673317,0.04534045156888535,
0.13241895261845388,0.02510949797119494,
0.13246882793017456,0.04080374045569204,
0.13251870324189527,0.015154868068284904,
0.13256857855361595,0.032099443009323964,
0.13261845386533666,0.016237931960461006,
0.13266832917705737,-0.007794783907030447,
0.13271820448877805,0.04165048216795526,
0.13276807980049876,0.01582000102436544,
0.13281795511221944,0.016816767047775127,
0.13286783042394015,0.012026084149057953,
0.13291770573566083,0.026109016995707432,
0.13296758104738154,0.033835884656971495,
0.13301745635910225,0.03880283494030149,
0.13306733167082294,0.02970596553014784,
0.13311720698254365,0.018558136118508154,
0.13316708229426433,0.05451752926473632,
0.13321695760598504,0.029570707457094152,
0.13326683291770575,0.04534081438990589,
0.13331670822942643,0.00776085498823792,
0.13336658354114714,0.04671698710613788,
0.13341645885286782,0.03962617229033047,
0.13346633416458853,0.03410457735321969,
0.13351620947630924,0.02337160106789009,
0.13356608478802992,0.044702230963783826,
0.13361596009975063,0.022857389399678036,
0.1336658354114713,0.0476933665612859,
0.13371571072319202,0.0492520767156952,
0.13376558603491273,0.01937110701162595,
0.1338154613466334,0.011610995126726548,
0.13386533665835412,0.03053157946887334,
0.1339152119700748,0.012928170813471966,
0.13396508728179551,0.051614530265345945,
0.1340149625935162,0.039307112668301884,
0.1340648379052369,0.033209127971305714,
0.13411471321695762,0.009993509344016847,
0.1341645885286783,0.037970407538941764,
0.134214463840399,0.05146566195023315,
0.1342643391521197,0.024401359506166845,
0.1343142144638404,0.03011216776332352,
0.1343640897755611,0.02495298651881908,
0.1344139650872818,0.027540060670112946,
0.1344638403990025,0.02471618443562276,
0.13451371571072318,0.04120844831700603,
0.1345635910224439,0.03901708790015278,
0.1346134663341646,0.039618082378808775,
0.13466334164588528,0.047591719527164865,
0.134713216957606,0.018634819321852777,
0.13476309226932667,0.031781784635381206,
0.13481296758104738,0.020236811104979185,
0.1348628428927681,0.023409180282675156,
0.13491271820448877,0.04371074479031822,
0.13496259351620948,0.0040308196209332195,
0.13501246882793017,0.02233377074622108,
0.13506234413965088,0.047476720512561396,
0.13511221945137158,0.018322987803357595,
0.13516209476309227,0.03374066172937901,
0.13521197007481298,0.060782213666132505,
0.13526184538653366,0.004950829838773145,
0.13531172069825437,0.031143264790817828,
0.13536159600997505,0.034101037222137476,
0.13541147132169576,0.049594186584640806,
0.13546134663341647,0.032070007651314694,
0.13551122194513715,0.032076493428170094,
0.13556109725685786,0.053741632810177506,
0.13561097256857854,0.03783019500631471,
0.13566084788029925,0.036563962014435444,
0.13571072319201996,0.026363096071609738,
0.13576059850374064,0.015413824361974707,
0.13581047381546135,0.026850681107036995,
0.13586034912718203,0.03522105796091998,
0.13591022443890274,0.02187643511777814,
0.13596009975062345,0.023609511338245116,
0.13600997506234414,0.021300144654849584,
0.13605985037406484,0.002414090586640664,
0.13610972568578553,0.0016013423296360393,
0.13615960099750624,0.029724177514158588,
0.13620947630922695,0.04394720530595967,
0.13625935162094763,0.06413193451477577,
0.13630922693266834,0.0009331059167743787,
0.13635910224438902,0.05000258120398625,
0.13640897755610973,0.010211805242229826,
0.1364588528678304,0.04399483535570646,
0.13650872817955112,0.014128643883301732,
0.13655860349127183,0.04480840593816722,
0.1366084788029925,0.021777401598158278,
0.13665835411471322,0.03592443571824294,
0.1367082294264339,0.045227495502372456,
0.1367581047381546,0.004129183250459533,
0.13680798004987532,0.04388054557589823,
0.136857855361596,0.035504758438861396,
0.1369077306733167,0.04932503283857069,
0.1369576059850374,0.0011493592651907955,
0.1370074812967581,0.027045344129796516,
0.13705735660847881,0.02366265330680739,
0.1371072319201995,0.045956871961436316,
0.1371571072319202,0.012277536674784317,
0.1372069825436409,0.00995571092610337,
0.1372568578553616,0.015000134787946415,
0.1373067331670823,0.023183255132458953,
0.137356608478803,0.005583157583613722,
0.1374064837905237,0.01594821357605853,
0.13745635910224438,0.04226081619910137,
0.1375062344139651,0.00903732921785974,
0.1375561097256858,0.009651917834430425,
0.13760598503740648,0.008802936190032612,
0.1376558603491272,0.00746628963979247,
0.13770573566084787,0.023391640407559845,
0.13775561097256858,-0.0019675809055255053,
0.13780548628428926,0.026893834282610496,
0.13785536159600997,0.02311826250828792,
0.13790523690773068,0.026639040143767292,
0.13795511221945136,0.02836840898390596,
0.13800498753117207,0.005019886688184285,
0.13805486284289276,0.03824470489727998,
0.13810473815461347,0.007831568112142773,
0.13815461346633418,0.012568694789236333,
0.13820448877805486,0.01587956660251512,
0.13825436408977557,0.04948434991910054,
0.13830423940149625,0.008399685645045375,
0.13835411471321696,0.02846130006349428,
0.13840399002493767,-0.0004572724368070071,
0.13845386533665835,0.027193773209892965,
0.13850374064837906,-0.007184457637063695,
0.13855361596009974,-0.017811836458556496,
0.13860349127182045,0.01944261762146196,
0.13865336658354116,0.00338620957544848,
0.13870324189526184,0.01838917665606081,
0.13875311720698255,0.03888873239385528,
0.13880299251870323,-0.0171062945188796,
0.13885286783042394,0.023918823654814694,
0.13890274314214462,0.04192630085369692,
0.13895261845386533,0.0014340000658579367,
0.13900249376558604,0.02294931011800251,
0.13905236907730673,0.017232159419234408,
0.13910224438902744,0.016311278303416468,
0.13915211970074812,0.02506751977019437,
0.13920199501246883,-0.01428480772109722,
0.13925187032418954,0.027248178600324566,
0.13930174563591022,0.005262565230047158,
0.13935162094763093,0.034312523152451625,
0.1394014962593516,0.01071559743712101,
0.13945137157107232,0.015042204327001627,
0.13950124688279303,0.022601721111487283,
0.1395511221945137,-0.01028910116849889,
0.13960099750623442,-0.003867800814125381,
0.1396508728179551,0.026559396652180448,
0.1397007481296758,0.005149882728005329,
0.13975062344139652,0.0028499405302107117,
0.1398004987531172,0.006866006769176778,
0.1398503740648379,-0.015697439726614054,
0.1399002493765586,0.021750778438426235,
0.1399501246882793,0.014063732665707464,
0.14,0.006535720534960227,
0.1400498753117207,0.013458361496169375,
0.1400997506234414,0.014579610814442224,
0.1401496259351621,0.0010761427622845545,
0.1401995012468828,0.027466177766865017,
0.14024937655860348,0.015809509805739787,
0.1402992518703242,0.03277881360386551,
0.1403491271820449,-0.011047405424989557,
0.14039900249376558,0.0009928712331414243,
0.1404488778054863,-0.0024883554875388247,
0.14049875311720697,0.004062807294350564,
0.14054862842892768,-0.01748335671204409,
0.1405985037406484,0.004411671001730266,
0.14064837905236907,-0.0036127686386616736,
0.14069825436408978,-0.026354584485991747,
0.14074812967581046,0.008389573402506009,
0.14079800498753117,0.019537631686538968,
0.14084788029925188,-0.0011980888362240834,
0.14089775561097256,0.00915860468933418,
0.14094763092269327,-0.016756070395416482,
0.14099750623441396,-0.004873142281195951,
0.14104738154613466,0.0031787162949621244,
0.14109725685785537,0.03503935786322782,
0.14114713216957606,-0.005110555795607982,
0.14119700748129677,-0.007339290784349348,
0.14124688279301745,-0.00992524989618597,
0.14129675810473816,-0.027723223351246044,
0.14134663341645887,0.0012807570611576675,
