time,amplitude,label
0.0,0.0060543441375790485,
4.987531172069826e-05,-0.004302802131533851,
9.975062344139652e-05,0.013284308079917491,
0.00014962593516209475,-0.005023457887315717,
0.00019950124688279303,-0.006378835108790008,
0.00024937655860349125,0.00995614601680521,
0.0002992518703241895,0.02883478361743296,
0.00034912718204488776,0.02537614045585462,
0.00039900249376558606,0.02358376954164072,
0.0004488778054862843,-0.014029332526333182,
0.0004987531172069825,-0.0015152119921672171,
0.0005486284289276808,0.018637979482142002,
0.000598503740648379,0.00814734235211913,
0.0006483790523690773,0.017117356209959318,
0.0006982543640897755,0.0009446793067102825,
0.0007481296758104738,0.020472646218063953,
0.0007980049875311721,0.009637510272327399,
0.0008478802992518703,0.0024228735188783048,
0.0008977556109725686,0.0018938907703720499,
0.0009476309226932668,0.012831204042718005,
0.000997506234413965,0.02181466695155531,
0.0010473815461346633,0.018018436270797755,
0.0010972568578553616,0.01532292035663741,
0.00114713216957606,-0.0014995643234575985,
0.001197007481296758,-0.018063047423916075,
0.0012468827930174563,0.003368418824000032,
0.0012967581047381546,-0.021426465327659898,
0.001346633416458853,-0.018478645050778755,
0.001396508728179551,0.021195531975163676,
0.0014463840399002493,0.028719633702575915,
0.0014962593516209476,0.010900307777256445,
0.001546134663341646,0.014793115096405952,
0.0015960099750623442,-0.0037549679096086684,
0.0016458852867830423,0.008720069278834128,
0.0016957605985037406,0.020734114230385563,
0.001745635910224439,-0.009469105684350249,
0.0017955112219451373,-0.0036088308318917815,
0.0018453865336658353,0.01591202517495916,
0.0018952618453865336,0.010233971288731854,
0.001945137157107232,0.003223721597547893,
0.00199501246882793,-0.01124980199016848,
0.0020448877805486283,0.03329420484737565,
0.0020947630922693266,-0.0003184100794278565,
0.002144638403990025,0.007012900088804337,
0.0021945137157107233,0.012580382258294812,
0.0022443890274314216,0.023162937302142764,
0.00229426433915212,0.008329445970695595,
0.0023441396508728177,0.006814424128669421,
0.002394014962593516,0.016924027542061133,
0.0024438902743142144,0.0061354458350311005,
0.0024937655860349127,-0.01756345818521246,
0.002543640897755611,-0.0036811665104171335,
0.0025935162094763093,0.0018375102935879878,
0.0026433915211970076,-0.026116819854839816,
0.002693266832917706,0.010867648639967385,
0.002743142144638404,0.003561106071553837,
0.002793017456359102,0.023019387859077343,
0.0028428927680798004,0.008161614254077975,
0.0028927680798004987,0.009607297269950216,
0.002942643391521197,0.023520087645864857,
0.0029925187032418953,0.015072427722073933,
0.0030423940149625936,0.007403240605916523,
0.003092269326683292,-0.010782600730506499,
0.00314214463840399,0.012674680565622078,
0.0031920199501246885,0.01877212410304906,
0.0032418952618453864,-0.007366229068964059,
0.0032917705735660847,0.022378874112400183,
0.003341645885286783,0.006924272582328942,
0.0033915211970074813,0.008474792688908314,
0.0034413965087281796,0.007049068219292631,
0.003491271820448878,-0.002414553051583765,
0.003541147132169576,0.01355557448201358,
0.0035910224438902745,0.030325307200607294,
0.0036408977556109724,0.02692057121423845,
0.0036907730673316707,0.010783718782210343,
0.003740648379052369,0.024778924924028438,
0.0037905236907730673,0.022409936760691255,
0.0038403990024937656,-0.016333709561515496,
0.003890274314214464,0.05181052167029537,
0.003940149625935162,0.026122555481383324,
0.00399002493765586,0.005675256858884837,
0.004039900249376558,0.013376057239219108,
0.004089775561097257,0.006651136506059918,
0.004139650872817955,0.012625055184024885,
0.004189526184538653,0.03173535532082598,
0.004239401496259352,0.007907068571946702,
0.00428927680798005,0.01661422586382937,
0.004339152119700748,-0.0044354509865242135,
0.0043890274314214465,0.00010588928657000521,
0.004438902743142145,0.03902814836951164,
0.004488778054862843,0.04872438154858313,
0.004538653366583541,0.02562353916887166,
0.00458852867830424,0.016666420722361158,
0.004638403990024938,0.017101774995503714,
0.0046882793017456355,0.029299450600802503,
0.004738154613466334,0.00916820473328877,
0.004788029925187032,0.02114125540382342,
0.00483790523690773,0.00856408545207871,
0.004887780548628429,-0.0037762955692523387,
0.004937655860349127,0.01691531302227322,
0.004987531172069825,0.024350542196619928,
0.005037406483790524,0.013848790480588506,
0.005087281795511222,-0.009519822912699524,
0.00513715710723192,0.04069298366647663,
0.0051870324189526185,0.03000117913007324,
0.005236907730673317,0.032802502703033184,
0.005286783042394015,0.04343969977094646,
0.0053366583541147134,0.010125697971079239,
0.005386533665835412,0.024502322103563262,
0.00543640897755611,0.032953959839816305,
0.005486284289276808,0.024434162543367142,
0.005536159600997507,0.030033094801440507,
0.005586034912718204,0.0249498507355401,
0.005635910224438902,0.033270173868952285,
0.005685785536159601,0.013558301930385657,
0.005735660847880299,0.03230830839338933,
0.005785536159600997,0.025617502419847886,
0.005835411471321696,-0.0007715872091956823,
0.005885286783042394,-0.002118394750538686,
0.005935162094763092,0.040234589341700024,
0.0059850374064837905,0.04733364754837073,
0.006034912718204489,0.046572531367779876,
0.006084788029925187,0.0029040372240558276,
0.0061346633416458855,0.04057129077146379,
0.006184538653366584,0.013372812978070931,
0.006234413965087282,0.04589423542391065,
0.00628428927680798,0.012806705587972762,
0.006334164588528679,0.003263820180002045,
0.006384039900249377,0.022185645335430614,
0.006433915211970074,0.010654667797052987,
0.006483790523690773,0.011428400428905767,
0.006533665835411471,0.013777564126676595,
0.006583541147132169,0.0013371689448504614,
0.006633416458852868,0.03438394211051242,
0.006683291770573566,0.016593637884327835,
0.006733167082294264,0.020440358694206833,
0.0067830423940149626,0.03565775273853532,
0.006832917705735661,0.032658593131097785,
0.006882793017456359,0.020650366221976663,
0.0069326683291770575,0.03817317084988446,
0.006982543640897756,0.04553811477498789,
0.007032418952618454,0.03519317990357002,
0.007082294264339152,0.023588221285571188,
0.007132169576059851,0.010012971707991446,
0.007182044887780549,0.03856848153099847,
0.007231920199501247,0.027251969449990136,
0.007281795511221945,0.0374535795152343,
0.007331670822942643,0.013685936900280967,
0.007381546134663341,0.0019293460760971947,
0.00743142144638404,0.006351552930369734,
0.007481296758104738,-0.0006080137870017426,
0.007531172069825436,0.029819204954738367,
0.007581047381546135,0.030186231810311513,
0.007630922693266833,0.023826016971293468,
0.007680798004987531,0.00020988465607102956,
0.0077306733167082295,0.036002090462891385,
0.007780548628428928,0.023710175603869846,
0.007830423940149626,0.019047728919242973,
0.007880299251870324,0.03833341053378331,
0.007930174563591023,0.005261742922092961,
0.00798004987531172,0.04993757805823047,
0.00802992518703242,0.015640039721274826,
0.008079800498753117,-0.003551705698235116,
0.008129675810473816,0.004146339187003948,
0.008179551122194513,-0.0018474633364797492,
0.008229426433915213,0.02477393661266626,
0.00827930174563591,0.026794123780172176,
0.00832917705735661,0.018260620692498675,
0.008379052369077307,0.01375881568171909,
0.008428927680798006,0.01824451585049649,
0.008478802992518703,0.012077977872364391,
0.0085286783042394,0.01170837713552417,
0.0085785536159601,0.022673469541429243,
0.008628428927680797,0.002485852847312819,
0.008678304239401496,0.019108113985601534,
0.008728179551122194,0.01840682773955798,
0.008778054862842893,0.010788554631173824,
0.00882793017456359,0.009780860847434727,
0.00887780548628429,0.037897891402173776,
0.008927680798004987,0.01342648596313208,
0.008977556109725686,-0.017521621420711866,
0.009027431421446384,-0.0016161139698361322,
0.009077306733167083,0.030515440935518272,
0.00912718204488778,0.027726948464756387,
0.00917705735660848,0.007933249694913292,
0.009226932668329177,0.012734046597222926,
0.009276807980049876,0.006995113958835977,
0.009326683291770574,0.012565002029463427,
0.009376558603491271,0.012367462159251424,
0.00942643391521197,0.010004601204408785,
0.009476309226932668,-0.012976883708260256,
0.009526184538653367,-0.005737567224566882,
0.009576059850374064,-0.005546398066516306,
0.009625935162094763,0.026767137716535112,
0.00967581047381546,0.022428519716515348,
0.00972568578553616,0.028190667711812264,
0.009775561097256857,-0.008972239960322105,
0.009825436408977557,0.004361083859474205,
0.009875311720698254,0.008148646668223531,
0.009925187032418953,-0.010655624235353326,
0.00997506234413965,0.04072198267807599,
0.01002493765586035,0.005204879783253678,
0.010074812967581047,0.02721510312660711,
0.010124688279301746,-0.0022571644440439916,
0.010174563591022444,0.0038130591459895834,
0.010224438902743141,0.0016191171373113823,
0.01027431421446384,0.009654997754708312,
0.010324189526184538,0.005837511573663854,
0.010374064837905237,-0.00594047095698047,
0.010423940149625935,0.00493067979398182,
0.010473815461346634,0.017525566724202368,
0.010523690773067331,0.002139592509212363,
0.01057356608478803,-0.006273198086659506,
0.010623441396508728,0.00023679527508756128,
0.010673316708229427,-0.018326709448780117,
0.010723192019950124,0.0030929083914077553,
0.010773067331670824,-0.011686562508980133,
0.010822942643391521,-0.004417044360727959,
0.01087281795511222,-0.0038062219303005096,
0.010922693266832918,-0.001699844341349242,
0.010972568578553617,0.010275775293891022,
0.011022443890274314,0.005348675004315424,
0.011072319201995013,-0.01850979428507179,
0.01112219451371571,-0.011338208837055542,
0.011172069825436408,-0.007887911341906303,
0.011221945137157107,-0.003294998406136036,
0.011271820448877805,-0.018965875170478454,
0.011321695760598504,0.016718013432753722,
0.011371571072319201,0.00852330891330226,
0.0114214463840399,-0.015149419499435225,
0.011471321695760598,-0.02445905602866494,
0.011521197007481297,-0.01134294369763779,
0.011571072319201995,-0.008807247211112958,
0.011620947630922694,-0.018118729431213496,
0.011670822942643391,0.002916723388594598,
0.01172069825436409,-0.007527468308909581,
0.011770573566084788,0.018699501639786252,
0.011820448877805487,-0.021254977715230307,
0.011870324189526184,-0.02458129004558867,
0.011920199501246884,-0.03483044925564636,
0.011970074812967581,-0.029871624173827764,
0.012019950124688279,0.02019142160669884,
0.012069825436408978,-0.016937629048304488,
0.012119700748129675,0.004614980625535741,
0.012169576059850374,-0.004451172445423268,
0.012219451371571072,-0.022893897482149348,
0.012269326683291771,-0.009380249563005906,
0.012319201995012468,-0.036367961603375396,
0.012369077306733168,-0.007877623326351248,
0.012418952618453865,-0.014080770586043628,
0.012468827930174564,-0.025455850457911863,
0.012518703241895262,-0.03379045303586511,
0.01256857855361596,-0.019726024397727124,
0.012618453865336658,-0.01888929534919895,
0.012668329177057357,-0.04196285757680232,
0.012718204488778055,-0.02121689919448957,
0.012768079800498754,-0.022934903830915163,
0.012817955112219451,-0.009637895383069126,
0.012867830423940149,-0.012807036848784557,
0.012917705735660848,-0.02032713833750943,
0.012967581047381545,0.019791294553167124,
0.013017456359102245,-0.014465079641737134,
0.013067331670822942,-0.003298170551575077,
0.013117206982543641,-0.0041030339310735645,
0.013167082294264339,-0.008898539573024082,
0.013216957605985038,-0.027411429433952007,
0.013266832917705735,-0.01534411360515147,
0.013316708229426434,-0.021861638757695253,
0.013366583541147132,0.026751198758877073,
0.013416458852867831,-0.020001395692621028,
0.013466334164588529,0.0026991137165464536,
0.013516209476309228,-0.010078845986747093,
0.013566084788029925,-0.033852274766499185,
0.013615960099750624,0.00366082039678,
0.013665835411471322,-0.029722268445391498,
0.01371571072319202,-0.03568203304394825,
0.013765586034912718,-0.0215920105076573,
0.013815461346633416,-0.013461139352888321,
0.013865336658354115,-0.05460238328110696,
0.013915211970074812,-0.025838155961912065,
0.013965087281795512,-0.02608544658419907,
0.014014962593516209,-0.0014846501402595406,
0.014064837905236908,-0.0027043187694163542,
0.014114713216957606,-0.024766991547540092,
0.014164588528678305,0.01620955943726614,
0.014214463840399002,-0.02083170594649724,
0.014264339152119701,0.0010392390830568365,
0.014314214463840399,-0.031179019736716315,
0.014364089775561098,-0.007799921059926848,
0.014413965087281795,0.02052295486777658,
0.014463840399002495,-0.018632407338455347,
0.014513715710723192,-0.028915613868239348,
0.01456359102244389,-0.01155101700834514,
0.014613466334164589,-0.015651547222650566,
0.014663341645885286,-0.02488820485145892,
0.014713216957605985,-0.025357769009551917,
0.014763092269326683,-0.01217023718015936,
0.014812967581047382,0.0029499133564300055,
0.01486284289276808,0.005517516826053746,
0.014912718204488778,-0.03287343753825104,
0.014962593516209476,-0.013069917430734062,
0.015012468827930175,-0.04727995186808677,
0.015062344139650873,-0.0106284803760817,
0.015112219451371572,-0.028355996706464257,
0.01516209476309227,-0.024430609229331726,
0.015211970074812968,0.0005113731323172152,
0.015261845386533666,-0.048659080596377136,
0.015311720698254365,-0.022823312006913708,
0.015361596009975062,-0.01735147836107517,
0.01541147132169576,-0.04367008859829637,
0.015461346633416459,-0.017779269601621992,
0.015511221945137156,-0.020108434239794547,
0.015561097256857856,0.005923085904838445,
0.015610972568578553,-0.032869892621417346,
0.015660847880299252,-0.043533118595117604,
0.01571072319201995,-0.01875339988187504,
0.015760598503740647,-0.0002348804198972175,
0.015810473815461346,-0.005546886530438264,
0.015860349127182045,-0.04023543155875818,
0.015910224438902745,-0.04340067784664271,
0.01596009975062344,0.0005985344203659135,
0.01600997506234414,-0.009389312133888255,
0.01605985037406484,-0.0028397148693196303,
0.016109725685785538,-0.05064832375450285,
0.016159600997506234,-0.015827307770737178,
0.016209476309226933,-0.025971236649755137,
0.016259351620947632,-0.012577380597762576,
0.016309226932668328,-0.02519415244454108,
0.016359102244389027,-0.027008150805096456,
0.016408977556109726,-0.01776425654577495,
0.016458852867830425,-0.0013732606563698346,
0.01650872817955112,-0.02279036314905771,
0.01655860349127182,-0.043669954648779846,
0.01660847880299252,-0.021792614871689174,
0.01665835411471322,-0.024728790385710797,
0.016708229426433914,-0.03155119161646786,
0.016758104738154613,-0.03600882636567462,
0.016807980049875312,-0.014258986500619717,
0.01685785536159601,-0.019937834065427047,
0.016907730673316707,-0.02299029230450644,
0.016957605985037406,-0.02843110412129115,
0.017007481296758106,-0.032843827248283206,
0.0170573566084788,-0.01683496727156645,
0.0171072319201995,-0.025060031394052884,
0.0171571072319202,0.02317256717377894,
0.0172069825436409,-0.03133062387930907,
0.017256857855361595,0.012093819640645678,
0.017306733167082294,0.008145333370401147,
0.017356608478802993,-0.01560811141324148,
0.017406483790523692,-0.010779745279044767,
0.017456359102244388,-0.009587075307351006,
0.017506234413965087,-0.011384150363153354,
0.017556109725685786,-0.01231969398618332,
0.017605985037406485,0.002341531622067697,
0.01765586034912718,-0.0024253579630720817,
0.01770573566084788,-0.0018256870515474862,
0.01775561097256858,-0.002655372749318175,
0.01780548628428928,-0.027389883270111666,
0.017855361596009974,-0.008572126389798283,
0.017905236907730673,-0.008341110923404046,
0.017955112219451373,-0.0026895909683267317,
0.018004987531172068,-0.026724104666025636,
0.018054862842892767,-0.014517642653338873,
0.018104738154613467,-0.03144067940423118,
0.018154613466334166,-0.022448427280434925,
0.01820448877805486,-0.009986358414238406,
0.01825436408977556,-0.033037260808947866,
0.01830423940149626,0.008120939389506964,
0.01835411471321696,-0.013232889141207791,
0.018403990024937655,-0.00818391133278556,
0.018453865336658354,-0.014671322143210624,
0.018503740648379053,-0.007814011525648002,
0.018553615960099752,0.022351317392032596,
0.018603491271820448,-0.019361797640794445,
0.018653366583541147,-0.0009635971433909554,
0.018703241895261846,0.0009220993834016759,
0.018753117206982542,0.009233596212851521,
0.01880299251870324,0.017821517680445386,
0.01885286783042394,-0.02713436197302502,
0.01890274314214464,-0.002989772995723801,
0.018952618453865335,-0.01169525994733748,
0.019002493765586034,-0.005891183293186577,
0.019052369077306733,0.008347122131979011,
0.019102244389027433,-0.008654450573460851,
0.01915211970074813,0.006896955423764908,
0.019201995012468828,-0.015190488163262544,
0.019251870324189527,0.005515676446033934,
0.019301745635910226,0.0062516183748153814,
0.01935162094763092,-0.009240179731317013,
0.01940149625935162,-0.0017595472866892797,
0.01945137157107232,-0.0306766940747574,
0.01950124688279302,0.009673398235933637,
0.019551122194513715,0.00017738281585020317,
0.019600997506234414,-0.0007052266052586199,
0.019650872817955113,0.009891662552173813,
0.01970074812967581,0.015199747651401379,
0.019750623441396508,0.0011935845795558956,
0.019800498753117207,-0.014857349412910108,
0.019850374064837906,-0.016281771429979698,
0.019900249376558602,-0.0033182019943599605,
0.0199501246882793,-0.01692237103142219,
0.02,-0.00802972509041544,
0.0200498753117207,0.013786783139157035,
0.020099750623441395,0.0020963062882963547,
0.020149625935162094,0.023272789993493262,
0.020199501246882794,-0.003174799133131999,
0.020249376558603493,-0.003961088002026441,
0.02029925187032419,0.009414293627252567,
0.020349127182044888,-0.0020574065101431364,
0.020399002493765587,-0.0017558368917209451,
0.020448877805486283,-0.00877941040068067,
0.02049875311720698,0.019106936304649463,
0.02054862842892768,0.002575330231194244,
0.02059850374064838,-0.012722744615993976,
0.020648379052369076,0.006509646505472622,
0.020698254364089775,-0.0015872737619607872,
0.020748129675810474,0.005573136468623563,
0.020798004987531173,0.0070141549029446425,
0.02084788029925187,0.0013517101459831126,
0.020897755610972568,0.006458996287298214,
0.020947630922693267,0.0017866742819537818,
0.020997506234413967,0.021654273568389955,
0.021047381546134662,0.019565994355809118,
0.02109725685785536,0.01685729943581677,
0.02114713216957606,0.01197094002960485,
0.02119700748129676,0.013511205228808837,
0.021246882793017455,0.02998065713481167,
0.021296758104738155,0.023231722868829737,
0.021346633416458854,-0.008715718076468777,
0.02139650872817955,-0.009065792177004678,
0.02144638403990025,-0.004590065250748164,
0.021496259351620948,0.02195939481510121,
0.021546134663341647,0.024345700794672073,
0.021596009975062343,0.010741152629351906,
0.021645885286783042,0.018035707856173755,
0.02169576059850374,0.03026638764188725,
0.02174563591022444,0.022448167771844385,
0.021795511221945136,0.0228658829998898,
0.021845386533665835,0.0033151372078453183,
0.021895261845386534,-0.004062526881971585,
0.021945137157107233,0.03655514445576995,
0.02199501246882793,-0.005614979103448117,
0.02204488778054863,0.035999190783265356,
0.022094763092269327,0.007377219997986031,
0.022144638403990027,-0.015638983195563387,
0.022194513715710722,-0.00841152190012139,
0.02224438902743142,0.011268482843400273,
0.02229426433915212,0.011529939930265347,
0.022344139650872816,0.010876544903198499,
0.022394014962593516,-0.014486956789899898,
0.022443890274314215,0.011923444476568854,
0.022493765586034914,0.03135113124867801,
0.02254364089775561,0.005637585117124104,
0.02259351620947631,0.009495622463647026,
0.022643391521197008,0.06913962188454202,
0.022693266832917707,0.013476387768810124,
0.022743142144638403,0.01411214928385054,
0.022793017456359102,0.025391578477747416,
0.0228428927680798,0.03878790854234544,
0.0228927680798005,0.0213972000462149,
0.022942643391521196,0.030451343680766213,
0.022992518703241895,0.03211319194900689,
0.023042394014962594,0.005258896635831822,
0.02309226932668329,0.008865323452697584,
0.02314214463840399,-0.0031205840404671115,
0.02319201995012469,0.02319893576912464,
0.023241895261845388,0.010466365028054456,
0.023291770573566083,0.008497120049239531,
0.023341645885286783,-0.0014572202726319886,
0.02339152119700748,0.020298705412001787,
0.02344139650872818,0.006300744716349558,
0.023491271820448877,-0.01208514862136065,
0.023541147132169576,-0.009763193581799827,
0.023591022443890275,0.05675085241473324,
0.023640897755610974,0.022181089594601782,
0.02369077306733167,0.02513153217885228,
0.02374064837905237,-0.006272384066391287,
0.023790523690773068,-0.009659583884812573,
0.023840399002493767,0.0010104070644673044,
0.023890274314214463,0.04521449483169018,
0.023940149625935162,0.03281937808502077,
0.02399002493765586,0.030501159393388433,
0.024039900249376557,0.011398525486471406,
0.024089775561097256,0.02332812948379046,
0.024139650872817955,-0.007598996787033633,
0.024189526184538655,0.042939512167191454,
0.02423940149625935,-0.011477472517672348,
0.02428927680798005,0.02679106936571406,
0.02433915211970075,0.0197005224198951,
0.024389027431421448,0.0324750993226926,
0.024438902743142144,0.01974757930480009,
0.024488778054862843,0.030196915787119562,
0.024538653366583542,0.02501398831079271,
0.02458852867830424,0.006491192078259787,
0.024638403990024937,0.01898889002174309,
0.024688279301745636,0.00212621795252042,
0.024738154613466335,0.028577163037143066,
0.02478802992518703,0.008569641347033507,
0.02483790523690773,-0.020017270162654418,
0.02488778054862843,0.014823930496278387,
0.02493765586034913,0.0292071703396646,
0.024987531172069824,0.022996697420928726,
0.025037406483790523,0.007977352152149132,
0.025087281795511222,0.045325676594296246,
0.02513715710723192,0.013406491231576305,
0.025187032418952617,0.006814507727313018,
0.025236907730673316,0.03864089380990986,
0.025286783042394016,0.02149906643083057,
0.025336658354114715,0.03133297439245511,
0.02538653366583541,0.004398654997454152,
0.02543640897755611,0.02399542101930309,
0.02548628428927681,0.015142467933174367,
0.025536159600997508,0.013238786883624504,
0.025586034912718204,0.0019447544641819706,
0.025635910224438903,0.035907625073571404,
0.025685785536159602,0.029368134190735022,
0.025735660847880298,0.001748658555969465,
0.025785536159600997,0.01893464896481654,
0.025835411471321696,-0.0008191520041010251,
0.025885286783042395,0.01919978483882234,
0.02593516209476309,0.008441861527933168,
0.02598503740648379,0.02799202998963449,
0.02603491271820449,0.05294983310445317,
0.02608478802992519,0.002688910135388998,
0.026134663341645884,0.018649165646162293,
0.026184538653366583,0.03414618371198986,
0.026234413965087282,0.024020712483151588,
0.02628428927680798,0.014557036883922656,
0.026334164588528677,0.0250047625690853,
0.026384039900249377,0.03974402985247241,
0.026433915211970076,0.022819523118894222,
0.02648379052369077,0.020688374676835417,
0.02653366583541147,0.004885871208508478,
0.02658354114713217,0.013323286665056864,
0.02663341645885287,-0.004298494841374831,
0.026683291770573565,0.02729899903243079,
0.026733167082294264,0.0026970024119925967,
0.026783042394014963,0.009723038773574638,
0.026832917705735662,0.00943965672984131,
0.026882793017456358,-0.0010728267420720104,
0.026932668329177057,0.00809797411058265,
0.026982543640897756,0.03192542583793377,
0.027032418952618455,-0.005539137036611411,
0.02708229426433915,0.04469631962354092,
0.02713216957605985,0.06260145165298264,
0.02718204488778055,0.021462936512225667,
0.02723192019950125,0.005522891555963324,
0.027281795511221944,0.00949200271610263,
0.027331670822942643,0.03744544858545871,
0.027381546134663343,0.03554271725394398,
0.02743142144638404,0.02518320563508616,
0.027481296758104738,0.01968342773538511,
0.027531172069825437,-0.003650009616965051,
0.027581047381546136,-0.007221633430029364,
0.02763092269326683,0.014541079173893507,
0.02768079800498753,0.018144878249242782,
0.02773067331670823,0.024821241777698448,
0.02778054862842893,0.04030608178774258,
0.027830423940149625,0.0078103808016521965,
0.027880299251870324,0.045215742224226196,
0.027930174563591023,9.561026042625986e-05,
0.027980049875311722,0.0025480864388433676,
0.028029925187032418,0.0505537692227923,
0.028079800498753117,0.01252655581894686,
0.028129675810473816,0.03768078602056006,
0.028179551122194512,0.025537967000938265,
0.02822942643391521,0.023503814290186466,
0.02827930174563591,0.0048321308308214884,
0.02832917705735661,0.003229273658494295,
0.028379052369077305,0.019620320567110883,
0.028428927680798004,0.021570321365652255,
0.028478802992518704,-0.008648754228178512,
0.028528678304239403,-0.002174292744679472,
0.0285785536159601,0.034800932344406066,
0.028628428927680798,0.004190394708924416,
0.028678304239401497,-0.0066157803694346425,
0.028728179551122196,-0.009630440057186357,
0.02877805486284289,0.02855643564690003,
0.02882793017456359,0.03856819885313537,
0.02887780548628429,0.008852058840416968,
0.02892768079800499,-0.010544808721788377,
0.028977556109725685,0.010902339870343936,
0.029027431421446384,0.01800581559150642,
0.029077306733167083,0.03699682110876777,
0.02912718204488778,-0.00988415321891959,
0.029177057356608478,0.008884663894795178,
0.029226932668329177,0.02855540939714399,
0.029276807980049877,-0.0009803830596939855,
0.029326683291770572,0.0029307510795602027,
0.02937655860349127,0.007876906068227942,
0.02942643391521197,0.024328611731662196,
0.02947630922693267,-0.014203855415920116,
0.029526184538653365,-0.012010374115731316,
0.029576059850374065,0.0005452241064496308,
0.029625935162094764,0.029104085756682732,
0.029675810473815463,0.027600012170376283,
0.02972568578553616,0.01148765925431603,
0.029775561097256858,0.03081239181864013,
0.029825436408977557,-0.00751418052667512,
0.029875311720698253,0.016398364733900873,
0.029925187032418952,-0.027504127626419253,
0.02997506234413965,-0.004450169239080193,
0.03002493765586035,0.00932341110808541,
0.030074812967581046,0.009830305379713918,
0.030124688279301745,-0.0005288765672103301,
0.030174563591022444,-0.0011711659583633302,
0.030224438902743143,0.027347461059517887,
0.03027431421446384,-0.015533438345348758,
0.03032418952618454,0.007988002628961901,
0.030374064837905237,-0.01705826957160446,
0.030423940149625937,-0.017167282904373513,
0.030473815461346632,0.021714407119101626,
0.03052369077306733,-0.0008879090662120093,
0.03057356608478803,0.005284888026401372,
0.03062344139650873,0.016757583503966843,
0.030673316708229426,-0.029489379977403005,
0.030723192019950125,0.022429501929507975,
0.030773067331670824,-9.51434843773454e-05,
0.03082294264339152,-0.012257764031613232,
0.03087281795511222,-0.001924703442238974,
0.030922693266832918,-0.010706491179537637,
0.030972568578553617,0.014223051389709165,
0.031022443890274313,0.004924812496599552,
0.031072319201995012,0.0068752986922402054,
0.03112219451371571,3.5058935287506e-05,
0.03117206982543641,0.005047096575353219,
0.031221945137157106,-0.012777663183562254,
0.03127182044887781,0.0005371337582153694,
0.031321695760598504,0.021923369104319537,
0.0313715710723192,0.014588969508204172,
0.0314214463840399,-0.01355832909655287,
0.0314713216957606,0.003493012068595272,
0.031521197007481294,-0.0072317302053109475,
0.031571072319202,-0.021506483091165148,
0.03162094763092269,-0.005084011372017881,
0.03167082294264339,0.014058591795001175,
0.03172069825436409,-0.05149032791298107,
0.03177057356608479,-0.015376902531853963,
0.03182044887780549,0.028547427596605016,
0.031870324189526185,-0.0053355012511569965,
0.03192019950124688,0.004478257220466734,
0.03197007481296758,-0.03238914930262009,
0.03201995012468828,-0.003720257088304309,
0.032069825436408975,0.0018574574675527655,
0.03211970074812968,-0.019522919367927508,
0.03216957605985037,-0.0226082609471177,
0.032219451371571076,-0.012530371869293604,
0.03226932668329177,-0.0070019060253377185,
0.03231920199501247,-0.007458504419994857,
0.03236907730673317,-0.01790515569241455,
0.032418952618453865,-0.004766836435320952,
0.03246882793017456,0.0019537343785299994,
0.032518703241895264,-0.001548815805476108,
0.03256857855361596,-0.010597340317717582,
0.032618453865336655,-0.014819456408449982,
0.03266832917705736,-0.011079609998359599,
0.032718204488778053,-0.015539642935545037,
0.032768079800498756,-0.047634990356771705,
0.03281795511221945,-0.013626931640777409,
0.03286783042394015,0.005621846587946417,
0.03291770573566085,-0.015597556110169638,
0.032967581047381546,-0.017169860494882064,
0.03301745635910224,0.0275961370232003,
0.033067331670822944,-0.02987923473256096,
0.03311720698254364,-0.019161830111552185,
0.03316708229426434,0.0073790508461246095,
0.03321695760598504,-0.008383257315358624,
0.033266832917705734,0.012265522674621717,
0.03331670822942644,0.011212131727753285,
0.03336658354114713,-0.01942042474471329,
0.03341645885286783,-0.03248548758740302,
0.03346633416458853,0.000565782698264624,
0.033516209476309226,-0.03671560406497531,
0.03356608478802992,-0.013622027632387505,
0.033615960099750625,-0.006979272409124654,
0.03366583541147132,-0.006066194239427655,
0.03371571072319202,0.00060601976947104,
0.03376558603491272,-0.0002737579269377604,
0.033815461346633414,-0.024720994576166052,
0.03386533665835412,-0.013841546799925724,
0.03391521197007481,0.0043339836941568705,
0.03396508728179551,-0.03246136074782783,
0.03401496259351621,-0.02050791841736071,
0.03406483790523691,-0.026354891562977094,
0.0341147132169576,-0.02496376687366842,
0.034164588528678305,-0.045237111521479766,
0.034214463840399,-0.02856108813206141,
0.034264339152119704,-0.0019088953966902578,
0.0343142144638404,-0.015652076381039718,
0.034364089775561095,-0.02777103368360921,
0.0344139650872818,-0.007992730634076328,
0.03446384039900249,-0.04736087576654184,
0.03451371571072319,-0.022595091110023207,
0.03456359102244389,-0.011099717302281695,
0.03461346633416459,-0.02353353779926899,
0.03466334164588529,-0.03307367454775078,
0.034713216957605986,-0.03219986893025427,
0.03476309226932668,-0.018563343185270715,
0.034812967581047384,0.006048788692276309,
0.03486284289276808,-0.04233586314662728,
0.034912718204488775,-0.009747697497392823,
0.03496259351620948,-0.02093469393980083,
0.035012468827930174,-0.03606748200021391,
0.03506234413965087,-0.00827852040767384,
0.03511221945137157,0.00014826119839651472,
0.03516209476309227,-0.007164596069998445,
0.03521197007481297,-0.001415550268287425,
0.035261845386533666,-0.014739440139819116,
0.03531172069825436,-0.0012248884796951312,
0.035361596009975065,0.013704853799650623,
0.03541147132169576,-0.014777623390899,
0.035461346633416456,-0.024168558679503203,
0.03551122194513716,-0.016557698582530065,
0.035561097256857854,-0.0208999887733187,
0.03561097256857856,-0.007607594726810208,
0.03566084788029925,-0.010719305575289436,
0.03571072319201995,-0.04105927827584932,
0.03576059850374065,-0.024133576818967006,
0.03581047381546135,-0.009061724421830303,
0.03586034912718204,-0.028742387396205233,
0.035910224438902745,-0.006230709569471585,
0.03596009975062344,-0.012560639551928102,
0.036009975062344136,-0.03699308333527158,
0.03605985037406484,0.0011678043004417077,
0.036109725685785535,-0.002003908990807938,
0.03615960099750624,-0.008697238897762855,
0.03620947630922693,-0.0459963676691335,
0.03625935162094763,-0.028435584606201623,
0.03630922693266833,-0.02110686414596337,
0.03635910224438903,-0.011001250902986889,
0.03640897755610972,-0.03548850238826239,
0.036458852867830426,-0.05054835787363794,
0.03650872817955112,0.0038013547419377576,
0.036558603491271824,-0.024196431155324636,
0.03660847880299252,-0.002888997672532888,
0.036658354114713215,-0.001966770972615415,
0.03670822942643392,-0.015438707690879827,
0.036758104738154614,-0.011430055664029442,
0.03680798004987531,-0.0064460455198041226,
0.03685785536159601,-0.013200573105444525,
0.03690773067331671,-0.011179839020050753,
0.0369576059850374,-0.06277651072728747,
0.037007481296758106,-0.006640708395323273,
0.0370573566084788,0.0052418648381578736,
0.037107231920199504,0.00909841017050444,
0.0371571072319202,-0.010762506961901896,
0.037206982543640896,-0.014729772079606808,
0.0372568578553616,-0.011384659073320737,
0.037306733167082294,-0.03303653788797686,
0.03735660847880299,-0.027473891525512287,
0.03740648379052369,-0.002471670642451601,
0.03745635910224439,-0.0007393698459555297,
0.037506234413965084,-0.02078396622131307,
0.037556109725685786,-0.025935374048972257,
0.03760598503740648,-0.008141863517626968,
0.037655860349127185,-0.02615223212448347,
0.03770573566084788,-0.028831911891211044,
0.037755610972568576,0.011095099660949903,
0.03780548628428928,-0.01577963477945731,
0.037855361596009975,0.01241334370349192,
0.03790523690773067,-0.0233343941125198,
0.03795511221945137,-0.00530111453263684,
0.03800498753117207,-0.04622414832643569,
0.03805486284289277,-0.011760147927595822,
0.03810473815461347,-0.018351083959747008,
0.03815461346633416,-0.015211863153213455,
0.038204488778054865,0.0355523776840566,
0.03825436408977556,-0.020743152261168886,
0.03830423940149626,-0.019051695603310145,
0.03835411471321696,-0.016751208086076774,
0.038403990024937655,-0.019628072014002806,
0.03845386533665835,-0.020791784189157402,
0.03850374064837905,-0.0005898433167086971,
0.03855361596009975,0.0032484471638746376,
0.03860349127182045,0.027562963829717717,
0.03865336658354115,-0.017012535683401463,
0.03870324189526184,-0.007262070365133035,
0.038753117206982546,-0.020071911714972114,
0.03880299251870324,0.02218323992652587,
0.03885286783042394,-0.011829454420050973,
0.03890274314214464,0.003380064260426378,
0.038952618453865336,0.00027918125763571125,
0.03900249376558604,-0.02503166194276553,
0.039052369077306734,-0.014581841569313615,
0.03910224438902743,-0.016602508186118116,
0.03915211970074813,-0.013147962696523359,
0.03920199501246883,0.003373718663014387,
0.039251870324189524,-0.015567983762692151,
0.039301745635910226,-0.01024923720407158,
0.03935162094763092,-0.011302030852970452,
0.03940149625935162,-0.0183998518241012,
0.03945137157107232,0.002011657056820376,
0.039501246882793016,-0.010631983347401956,
0.03955112219451372,0.009866704692385896,
0.039600997506234414,-0.021309676129241645,
0.03965087281795511,-0.03885720475114333,
0.03970074812967581,-0.013925404985484644,
0.03975062344139651,0.0017799548645925423,
0.039800498753117204,-0.05263892628415567,
0.03985037406483791,0.00831530344406033,
0.0399002493765586,0.011697239508841419,
0.039950124688279305,-0.0017169720333843588,
0.04,-0.003031525095476953,
0.0400498753117207,0.017261714292021314,
0.0400997506234414,0.010406456532572633,
0.040149625935162095,-0.0003567428126466962,
0.04019950124688279,-0.009260230809517742,
0.04024937655860349,0.008092165589226166,
0.04029925187032419,0.0029701775403104458,
0.040349127182044885,0.011046221739677287,
0.04039900249376559,0.009727863999531815,
0.04044887780548628,0.042608519717776065,
0.040498753117206986,-0.005534690334859104,
0.04054862842892768,0.006404236059713517,
0.04059850374064838,0.0006070684160436315,
0.04064837905236908,0.0062755444162629626,
0.040698254364089775,0.032817336171119656,
0.04074812967581047,-0.00604124352070882,
0.040798004987531174,-0.008576617772594162,
0.04084788029925187,0.002680560355029359,
0.040897755610972565,-0.010164630144342157,
0.04094763092269327,0.023117557042366413,
0.04099750623441396,0.014380397824303556,
0.041047381546134666,-0.005683244499738751,
0.04109725685785536,0.011021756890066495,
0.04114713216957606,0.007693336360135454,
0.04119700748129676,0.008304092271626316,
0.041246882793017456,0.016128204121189753,
0.04129675810473815,-0.007941504912445344,
0.041346633416458854,0.015725053622330107,
0.04139650872817955,-0.010507398123523314,
0.04144638403990025,0.0019691204955408284,
0.04149625935162095,0.022124801753446468,
0.041546134663341644,0.05200778630433106,
0.04159600997506235,0.017333181845812597,
0.04164588528678304,0.004405485931349926,
0.04169576059850374,-0.01664103866561856,
0.04174563591022444,0.0194083623716987,
0.041795511221945136,0.0060012391681254175,
0.04184538653366583,0.031225213567093065,
0.041895261845386535,0.02230611797220641,
0.04194513715710723,-0.007507453019677366,
0.04199501246882793,0.048845149357249706,
0.04204488778054863,0.015506843348642762,
0.042094763092269324,0.013794387397008095,
0.04214463840399003,-0.0023492620122514355,
0.04219451371571072,-0.004223083737183799,
0.04224438902743142,-0.0006978839730214723,
0.04229426433915212,0.011421688174729336,
0.04234413965087282,-0.020753584013910933,
0.04239401496259352,0.008622911570284844,
0.042443890274314215,0.007569026477645118,
0.04249376558603491,0.017702645939897954,
0.042543640897755614,0.00300799035450567,
0.04259351620947631,-0.010857500512684835,
0.042643391521197005,0.023648027133457646,
0.04269326683291771,0.02814478913716053,
0.0427431421446384,0.006589276536197192,
0.0427930174563591,0.01579176303341279,
0.0428428927680798,0.04012349098781007,
0.0428927680798005,0.009414704411562533,
0.0429426433915212,0.02603603336643863,
0.042992518703241896,0.03331916941604734,
0.04304239401496259,0.01001916454055043,
0.043092269326683294,0.03382731897409273,
0.04314214463840399,0.030210575967220113,
0.043192019950124685,0.016930306012465344,
0.04324189526184539,0.007145239307995143,
0.043291770573566084,0.0037370011192191157,
0.043341645885286786,0.013734946707264654,
0.04339152119700748,0.037217834463642054,
0.04344139650872818,0.0355254536226115,
0.04349127182044888,0.02270959006112906,
0.043541147132169576,-0.005952142146581095,
0.04359102244389027,0.04353419428916806,
0.043640897755610975,0.006487595476066385,
0.04369077306733167,-0.007779044781474936,
0.043740648379052366,0.033370925386968384,
0.04379052369077307,0.0275112864889418,
0.043840399002493764,0.01715493338732121,
0.04389027431421447,0.010840072726046611,
0.04394014962593516,0.028721416320569133,
0.04399002493765586,0.03348096300989996,
0.04403990024937656,0.03771211430634347,
0.04408977556109726,0.009657347346257263,
0.04413965087281795,0.023737810997706953,
0.044189526184538655,0.0045746370395591505,
0.04423940149625935,0.030672633234904382,
0.04428927680798005,0.009953974267550682,
0.04433915211970075,0.021663835740872103,
0.044389027431421445,0.022950037592329563,
0.04443890274314215,0.04749915102636353,
0.04448877805486284,0.032855857272061556,
0.04453865336658354,0.009374443880656757,
0.04458852867830424,0.01952159002392715,
0.04463840399002494,0.04804815380806572,
0.04468827930174563,0.005535596165226673,
0.044738154613466335,0.03272074293717335,
0.04478802992518703,0.03813682442774243,
0.044837905236907734,0.03306933414028895,
0.04488778054862843,0.025526671731580627,
0.044937655860349125,0.025410595872970527,
0.04498753117206983,0.024657143574582232,
0.045037406483790524,0.00711212018715808,
0.04508728179551122,0.04454658938685335,
0.04513715710723192,0.027548270907649035,
0.04518703241895262,0.012739189946129556,
0.04523690773067331,0.012369760740080974,
0.045286783042394016,0.03634849076225291,
0.04533665835411471,0.028799652697164467,
0.045386533665835414,0.04616560510594729,
0.04543640897755611,0.024061843649408672,
0.045486284289276806,0.014065642160572682,
0.04553615960099751,0.009286737355760384,
0.045586034912718204,0.028787316129971072,
0.0456359102244389,0.03338274517238901,
0.0456857855361596,0.032061447248351284,
0.0457356608478803,0.038327369585522325,
0.045785536159601,0.0045699690637309685,
0.045835411471321696,0.03348688601556038,
0.04588528678304239,0.040374313154393965,
0.045935162094763095,0.05438954880610677,
0.04598503740648379,0.04337197261278817,
0.046034912718204486,0.02160745112047106,
0.04608478802992519,0.023264621393426194,
0.046134663341645885,0.036319199338631494,
0.04618453865336658,0.019588288768777513,
0.04623441396508728,0.014512944208156017,
0.04628428927680798,0.045587474805506706,
0.04633416458852868,0.00716242208885789,
0.04638403990024938,0.01734760039220199,
0.04643391521197007,-0.0093285578788623,
0.046483790523690775,0.014034389980174018,
0.04653366583541147,0.03941869927314175,
0.04658354114713217,0.015952907763168628,
0.04663341645885287,0.022750558708293362,
0.046683291770573565,0.03696373019400187,
0.04673316708229427,0.03037701117940752,
0.04678304239401496,0.018449078705648606,
0.04683291770573566,0.03817259305322968,
0.04688279301745636,0.021139446840277864,
0.04693266832917706,0.004177030684736696,
0.04698254364089775,0.0038471707031851494,
0.047032418952618456,0.009532064983806227,
0.04708229426433915,0.007613424407251986,
0.04713216957605985,0.0304081206254559,
0.04718204488778055,0.005811790571791887,
0.047231920199501246,0.03324352538944479,
0.04728179551122195,0.0073499399411454825,
0.047331670822942644,0.0063373644069449776,
0.04738154613466334,0.016889145834015726,
0.04743142144638404,-0.010637901073359109,
0.04748129675810474,0.007976801744623186,
0.047531172069825434,0.02742786253490901,
0.047581047381546136,-0.0015646728666329976,
0.04763092269326683,0.011867202435423541,
0.047680798004987535,-0.0016960287415671883,
0.04773067331670823,0.013336961934284927,
0.047780548628428926,0.007253933246142293,
0.04783042394014963,0.009749658562145963,
0.047880299251870324,0.03221098901133779,
0.04793017456359102,0.027137278677586703,
0.04798004987531172,0.03975594668147525,
0.04802992518703242,0.003626785385709109,
0.048079800498753114,0.02234279634937708,
0.04812967581047382,0.015531444909737185,
0.04817955112219451,-0.0005179367503077535,
0.048229426433915215,0.021176857856567397,
0.04827930174563591,0.035412467138089376,
0.048329177057356607,0.010303001616474936,
0.04837905236907731,0.024846213186166873,
0.048428927680798005,-0.002875026151056276,
0.0484788029925187,0.038680939736910835,
0.0485286783042394,0.019822684950649167,
0.0485785536159601,0.026010126469785386,
0.048628428927680795,0.0176249972056343,
0.0486783042394015,0.043698837276613466,
0.04872817955112219,0.016661574199949892,
0.048778054862842896,0.020612116364013416,
0.04882793017456359,0.0009224447098502148,
0.04887780548628429,0.015103886303220584,
0.04892768079800499,0.009048570550146923,
0.048977556109725685,-0.00991970879575249,
0.04902743142144638,0.019623278329666104,
0.049077306733167084,-0.00689875270057445,
0.04912718204488778,0.03111046061567274,
0.04917705735660848,0.04323218504278742,
0.04922693266832918,-0.0031942101528656588,
0.04927680798004987,0.001441673403306953,
0.049326683291770576,-0.0048173320577538006,
0.04937655860349127,0.006822905014306914,
0.04942643391521197,0.006812152407655274,
0.04947630922693267,0.010261014697715122,
0.049526184538653366,0.003925051303047028,
0.04957605985037406,0.015187818834104506,
0.049625935162094764,-0.007809801889406286,
0.04967581047381546,0.003828572866659127,
0.04972568578553616,0.03416230698207644,
0.04977556109725686,0.03818893768744822,
0.049825436408977554,-0.005460296774204919,
0.04987531172069826,0.03610194715704693,
0.04992518703241895,-0.004944460372676812,
0.04997506234413965,0.027942935520554435,
0.05002493765586035,0.024850350960607774,
0.050074812967581046,-0.004286202628739165,
0.05012468827930175,0.008352117023131938,
0.050174563591022445,0.010015110297838099,
0.05022443890274314,0.010337255834602078,
0.05027431421446384,0.0280254205301653,
0.05032418952618454,-0.006887330294501391,
0.050374064837905234,-0.0036520372859926123,
0.05042394014962594,0.02593410154038984,
0.05047381546134663,0.007176779819137385,
0.05052369077306733,0.013807053371270703,
0.05057356608478803,0.01367074708507926,
0.05062344139650873,0.014477229829066613,
0.05067331670822943,-0.0005281677728002573,
0.050723192019950125,0.011387357829384099,
0.05077306733167082,0.0228396681507233,
0.050822942643391524,0.009200822365935458,
0.05087281795511222,0.005454759186204494,
0.050922693266832915,0.009420703557995196,
0.05097256857855362,-0.021623472288210457,
0.05102244389027431,0.022592584749964416,
0.051072319201995016,-0.006392200635791991,
0.05112219451371571,-0.005427925435515631,
0.05117206982543641,-0.008071241225063717,
0.05122194513715711,0.0177023373021935,
0.051271820448877806,0.014251140494725454,
0.0513216957605985,0.007769788897228715,
0.051371571072319204,0.004118799186773804,
0.0514214463840399,-0.015656353687910386,
0.051471321695760595,-0.01011104695606711,
0.0515211970074813,-0.013251276364823237,
0.051571072319201994,-0.008582142000761074,
0.051620947630922696,0.012289230608102894,
0.05167082294264339,0.008230866894620915,
0.05172069825436409,0.004881819745034219,
0.05177057356608479,-0.029443829823065173,
0.051820448877805486,-0.00326343874689727,
0.05187032418952618,-0.00047767164911819305,
0.051920199501246884,0.015394169518175878,
0.05197007481296758,0.0010869034345410977,
0.052019950124688276,0.008216373903004542,
0.05206982543640898,-0.02705884505597667,
0.052119700748129674,-0.01409707943268313,
0.05216957605985038,-0.0015506505412871017,
0.05221945137157107,-0.0354216261046913,
0.05226932668329177,-0.016947603778527314,
0.05231920199501247,-0.010345418660224542,
0.05236907730673317,-0.002155664657734698,
0.05241895261845386,-0.0020892031467809238,
0.052468827930174565,0.004914810449392579,
0.05251870324189526,0.013698783726095877,
0.05256857855361596,-0.0071060903980560836,
0.05261845386533666,-0.0032967600897569876,
0.052668329177057355,-0.037964671829842415,
0.05271820448877806,-0.007059347156249712,
0.05276807980049875,-0.01474590701431806,
0.05281795511221945,-0.010972241077061346,
0.05286783042394015,-0.021989169211879274,
0.05291770573566085,0.004337284394724174,
0.05296758104738154,0.008058092661734653,
0.053017456359102245,-0.03174703441149074,
0.05306733167082294,-0.02033776776869435,
0.053117206982543644,-0.010084056287037011,
0.05316708229426434,-0.017407924845760155,
0.053216957605985035,0.0062147755853646965,
0.05326683291770574,0.001126301151760772,
0.053316708229426434,-0.005049140734368946,
0.05336658354114713,0.010470896074948263,
0.05341645885286783,-0.03270848626061648,
0.05346633416458853,0.0026479410665844073,
0.05351620947630923,-0.012576018882756165,
0.053566084788029926,-0.02267350759166967,
0.05361596009975062,-0.06222843141954314,
0.053665835411471324,-0.020054538603145544,
0.05371571072319202,0.007136942283087873,
0.053765586034912716,-0.010004464063044465,
0.05381546134663342,-0.02039093866420149,
0.053865336658354114,0.0048656482795290164,
0.05391521197007481,-0.007200722355184318,
0.05396508728179551,-0.014755868144189098,
0.05401496259351621,-0.024621073217914905,
0.05406483790523691,0.010470312246259949,
0.054114713216957606,-0.006005491975377435,
0.0541645885286783,-0.0039863278863126825,
0.054214463840399005,-0.026759033258183757,
0.0542643391521197,0.0026850437105214488,
0.054314214463840396,-0.01724405960912499,
0.0543640897755611,-0.017096972272814072,
0.054413965087281795,0.00929866009633289,
0.0544638403990025,0.02542337645548308,
0.05451371571072319,-0.02504241071006642,
0.05456359102244389,-0.03442718824461444,
0.05461346633416459,-0.021940967969836807,
0.05466334164588529,-0.03570592015057443,
0.05471321695760598,-0.009715919232714738,
0.054763092269326685,-0.02716311393893536,
0.05481296758104738,-0.03436273364100854,
0.05486284289276808,0.010883924528084054,
0.05491271820448878,-0.015150062271967545,
0.054962593516209475,-0.010133235577585333,
0.05501246882793018,-0.007384815502050997,
0.05506234413965087,-0.0048428514743039126,
0.05511221945137157,-0.025303047978300977,
0.05516209476309227,-0.02041187365398514,
0.05521197007481297,-0.02614556500779091,
0.05526184538653366,-0.023087741454555392,
0.055311720698254366,-0.01424406291321904,
0.05536159600997506,-0.017653320601305623,
0.05541147132169576,-0.013186100410572957,
0.05546134663341646,-0.01755592550537309,
0.055511221945137156,-0.02677080699577581,
0.05556109725685786,-0.03451199015886007,
0.055610972568578554,-0.00800989575500598,
0.05566084788029925,-0.005343616179530646,
0.05571072319201995,-0.02809894252086531,
0.05576059850374065,0.010551117949901476,
0.055810473815461344,-0.0009910404721667522,
0.055860349127182046,-0.021557665659461853,
0.05591022443890274,0.0072039216821225514,
0.055960099750623445,-0.02626285328086677,
0.05600997506234414,0.010021273246372565,
0.056059850374064836,-0.004219276059935313,
0.05610972568578554,0.003354467801715168,
0.056159600997506234,0.003514006166906218,
0.05620947630922693,-0.007899028417475893,
0.05625935162094763,0.010642511002177744,
0.05630922693266833,-0.015648755488303287,
0.056359102244389024,-0.016534069938884812,
0.05640897755610973,-0.013501507123320695,
0.05645885286783042,-0.002764211010832395,
0.056508728179551125,-0.014654978224223212,
0.05655860349127182,-0.007170023525119078,
0.056608478802992516,-0.024687449025127997,
0.05665835411471322,0.005451319060941318,
0.056708229426433915,-0.002523143190298515,
0.05675810473815461,0.003014220168823011,
0.05680798004987531,-0.002874334607875598,
0.05685785536159601,-0.005374655561706817,
0.05690773067331671,0.01447292953393604,
0.05695760598503741,-0.009328942412745534,
0.0570074812967581,-0.008780653809549004,
0.057057356608478806,-0.012262479675514675,
0.0571072319201995,-0.02888258023522833,
0.0571571072319202,-0.004817620624323377,
0.0572069825436409,-0.031115642101138208,
0.057256857855361595,-0.03394088458048446,
0.05730673316708229,0.005501474947497611,
0.057356608478802994,-0.019067068464021796,
0.05740648379052369,-0.009930826702021844,
0.05745635910224439,0.015810774104834602,
0.05750623441396509,-0.008462223004024492,
0.05755610972568578,-0.02148344475424968,
0.057605985037406486,-0.008505063726512213,
0.05765586034912718,-0.018634299253908117,
0.05770573566084788,-0.010077967404330094,
0.05775561097256858,-0.012331911097993383,
0.057805486284289276,-0.0064518605477560985,
0.05785536159600998,-0.007849317980503479,
0.057905236907730674,-0.019946616989259112,
0.05795511221945137,-0.005731835637282162,
0.05800498753117207,-0.010172641286970537,
0.05805486284289277,-0.008741699924578076,
0.058104738154613464,-0.026342640106424384,
0.05815461346633417,-0.0009205834503673979,
0.05820448877805486,-0.02052720928056352,
0.05825436408977556,-0.004917583594224074,
0.05830423940149626,-0.018351882807551744,
0.058354114713216956,0.014827508928593216,
0.05840399002493766,0.016996920890828514,
0.058453865336658355,0.004622349722167967,
0.05850374064837905,-0.01985972249813587,
0.05855361596009975,-0.01955850226275129,
0.05860349127182045,0.018177724084027465,
0.058653366583541144,-0.01388400386896552,
0.05870324189526185,0.00987528463547675,
0.05875311720698254,0.005872822917589297,
0.05880299251870324,-0.004270484220353552,
0.05885286783042394,-0.002783619219604477,
0.05890274314214464,-0.0027098385459306314,
0.05895261845386534,0.02630355860419073,
0.059002493765586035,-0.01949202564991812,
0.05905236907730673,-0.010661040957549127,
0.059102244389027433,-0.034692982316887694,
0.05915211970074813,-0.014336328739660498,
0.059201995012468825,0.012273175986855522,
0.05925187032418953,-0.0389430472137311,
0.05930174563591022,-0.034143153302332,
0.059351620947630926,-0.0199326485394147,
0.05940149625935162,0.002141712383806518,
0.05945137157107232,0.014096523847513264,
0.05950124688279302,-0.02988165519540692,
0.059551122194513716,-0.00296384738232601,
0.05960099750623441,-0.021774732255077766,
0.059650872817955114,-0.0048733397114906945,
0.05970074812967581,-0.003972976958211465,
0.059750623441396505,-0.01116195915292438,
0.05980049875311721,-0.025838087193376682,
0.059850374064837904,-0.0430189895659473,
0.059900249376558606,-0.0012381132763802107,
0.0599501246882793,-0.014544643372525081,
0.06,-0.014862121259832465,
0.0600498753117207,0.0018999980634448479,
0.060099750623441396,-5.667526613786604e-05,
0.06014962593516209,-0.022976874964939335,
0.060199501246882794,-0.01663299362078037,
0.06024937655860349,-0.005715835548927985,
0.06029925187032419,-0.016524430611820524,
0.06034912718204489,0.003899198527930553,
0.060399002493765584,0.012500764768636673,
0.06044887780548629,0.005000061527407914,
0.06049875311720698,-0.0022542623423460603,
0.06054862842892768,-0.012821103589668491,
0.06059850374064838,0.01011941618706673,
0.06064837905236908,0.0018446306715912044,
0.06069825436408977,0.010721804442425327,
0.060748129675810475,0.016109591327154834,
0.06079800498753117,-0.0044561210495367015,
0.06084788029925187,0.02109033834016656,
0.06089775561097257,-0.00423446585733581,
0.060947630922693265,-0.010575134377785123,
0.06099750623441397,-0.01763335126168828,
0.06104738154613466,0.005955513295280159,
0.06109725685785536,0.011050570099028531,
0.06114713216957606,-0.0025974518517597207,
0.06119700748129676,0.007012757664252136,
0.06124688279301746,0.018031472733447004,
0.061296758104738155,-0.0039683733328200795,
0.06134663341645885,0.027499228016501783,
0.061396508728179554,0.009465562271130904,
0.06144638403990025,0.04270562810987636,
0.061496259351620945,-0.005770255261437235,
0.06154613466334165,0.005538632056860438,
0.061596009975062344,0.024256710236437336,
0.06164588528678304,0.01483874196777692,
0.06169576059850374,0.016621399623812413,
0.06174563591022444,0.007597134470265653,
0.06179551122194514,0.022969499885397184,
0.061845386533665836,0.016936348518356188,
0.06189526184538653,0.003734188402292598,
0.061945137157107234,0.006506840731845457,
0.06199501246882793,0.020756167226653084,
0.062044887780548626,0.01054880746242871,
0.06209476309226933,0.00653991619921458,
0.062144638403990024,0.004079238449121069,
0.06219451371571072,0.018853048999322795,
0.06224438902743142,0.0023151309897419935,
0.06229426433915212,-0.004519220604471224,
0.06234413965087282,0.028550728314399518,
0.062394014962593516,-0.004269653106264561,
0.06244389027431421,0.0022528356119219297,
0.062493765586034915,0.017688830766811124,
0.06254364089775562,0.018988433033267284,
0.06259351620947631,0.009893326029727355,
0.06264339152119701,0.0027177127710850194,
0.0626932668329177,0.04791802348121232,
0.0627431421446384,0.01574729793503887,
0.0627930174563591,0.011855126553971102,
0.0628428927680798,0.007481568019059418,
0.0628927680798005,0.00748568293298673,
0.0629426433915212,0.027182555348869875,
0.06299251870324189,0.03982548722449474,
0.06304239401496259,0.032467959074460616,
0.0630922693266833,0.028617111689127474,
0.063142144638404,0.026228555577670246,
0.06319201995012469,0.024596751931498143,
0.06324189526184539,0.013732993043545319,
0.06329177057356608,0.008614247976781933,
0.06334164588528678,0.003875127199811375,
0.06339152119700749,0.02235113794110248,
0.06344139650872818,0.010639561563122726,
0.06349127182044888,0.01281751419950726,
0.06354114713216957,0.019755237002992233,
0.06359102244389027,0.00939020135656496,
0.06364089775561098,0.03130765224608151,
0.06369077306733167,0.05175473619511797,
0.06374064837905237,0.005523262964257838,
0.06379052369077307,0.0072977840832873404,
0.06384039900249376,0.027261293859592854,
0.06389027431421446,0.017341034191415926,
0.06394014962593517,0.021657059990275604,
0.06399002493765586,0.015610334515435208,
0.06403990024937656,0.02670112041772833,
0.06408977556109725,0.031298361651411075,
0.06413965087281795,0.02348335501375021,
0.06418952618453866,0.026808596973762835,
0.06423940149625935,0.019914332965404655,
0.06428927680798005,0.020238464454229953,
0.06433915211970075,0.014831233061969007,
0.06438902743142144,0.03344973138559407,
0.06443890274314215,0.04592430491671916,
0.06448877805486285,0.020713989913253114,
0.06453865336658354,0.0235945221646016,
0.06458852867830424,0.008816725089636174,
0.06463840399002493,0.031484052323793636,
0.06468827930174563,0.025577581801367523,
0.06473815461346634,0.04899947811039122,
0.06478802992518704,0.018233337482460435,
0.06483790523690773,0.011150608777916241,
0.06488778054862843,0.030978216522251183,
0.06493765586034912,0.03740163196158721,
0.06498753117206983,0.020770675920969126,
0.06503740648379053,0.011100837591040441,
0.06508728179551122,0.018210555583752144,
0.06513715710723192,-0.0009052707463890926,
0.06518703241895261,0.012916974552260353,
0.06523690773067331,0.056423558998928106,
0.06528678304239402,0.03310519814716495,
0.06533665835411472,0.04258358459131724,
0.06538653366583541,0.030074428653566878,
0.06543640897755611,0.04253707198766012,
0.0654862842892768,0.0367450959614751,
0.06553615960099751,0.009690585580161247,
0.06558603491271821,0.025414673837087627,
0.0656359102244389,0.01716651952170444,
0.0656857855361596,0.006391008141402928,
0.0657356608478803,0.029775723450188942,
0.06578553615960099,0.0070792546448045605,
0.0658354114713217,0.028909436231117303,
0.0658852867830424,0.028077022740742752,
0.06593516209476309,0.026492365337337658,
0.06598503740648379,0.01886389562771082,
0.06603491271820448,0.028296296823556433,
0.06608478802992519,0.035363451235167646,
0.06613466334164589,0.009840887599812725,
0.06618453865336658,0.02534401025297973,
0.06623441396508728,-0.01051222273462598,
0.06628428927680798,0.04472762299740919,
0.06633416458852869,0.028345634307901928,
0.06638403990024938,0.0011625887263928998,
0.06643391521197008,0.007208314709762954,
0.06648379052369077,0.009901808629966249,
0.06653366583541147,0.007014482409153564,
0.06658354114713216,0.012115388282984323,
0.06663341645885287,0.02649437823758585,
0.06668329177057357,0.02925464409505043,
0.06673316708229426,0.04379678570264242,
0.06678304239401496,0.007857498426501163,
0.06683291770573566,0.03553552479927128,
0.06688279301745637,0.05645855950030629,
0.06693266832917706,0.0231110816841268,
0.06698254364089776,0.015847413847619604,
0.06703241895261845,0.02676564274360676,
0.06708229426433915,0.030429097260570966,
0.06713216957605984,0.00529186336019026,
0.06718204488778055,0.004449431989336797,
0.06723192019950125,0.018426360814171355,
0.06728179551122195,0.04420652596377457,
0.06733167082294264,0.035544474373934716,
0.06738154613466334,0.02467871398229366,
0.06743142144638405,0.009347385371853398,
0.06748129675810474,0.010157284009095977,
0.06753117206982544,0.02801201690729055,
0.06758104738154613,0.04523093687455833,
0.06763092269326683,0.04326555990930315,
0.06768079800498752,0.01733653390556602,
0.06773067331670823,0.035775207586068614,
0.06778054862842893,0.03129272572219042,
0.06783042394014963,0.013451425232640854,
0.06788029925187032,0.03649892113855488,
0.06793017456359102,0.002343805357989559,
0.06798004987531173,0.03921585366039797,
0.06802992518703242,0.0068619773473255884,
0.06807980049875312,0.012495826935407597,
0.06812967581047381,0.017920903561619364,
0.06817955112219451,0.027864572927831798,
0.0682294264339152,0.02438934492125298,
0.06827930174563591,0.0011976408456649754,
0.06832917705735661,0.001119858004109263,
0.0683790523690773,-0.010016149788743996,
0.068428927680798,0.03632101499039592,
0.0684788029925187,0.0026253681737545415,
0.06852867830423941,0.009827999952967478,
0.0685785536159601,-0.0013412199750463503,
0.0686284289276808,0.031381583595904074,
0.0686783042394015,0.020646651402058507,
0.06872817955112219,-0.009690863158660664,
0.0687780548628429,0.027943958157816334,
0.0688279301745636,0.011845263353572381,
0.06887780548628429,0.03812176063884981,
0.06892768079800499,0.013289678922889452,
0.06897755610972568,0.003294719362711109,
0.06902743142144638,-0.015731093918881986,
0.06907730673316709,0.0024497164772467675,
0.06912718204488778,0.03129741505240133,
0.06917705735660848,0.0033986743104975053,
0.06922693266832917,0.0007461157053391954,
0.06927680798004987,-0.011468651036911623,
0.06932668329177058,0.02103686476830456,
0.06937655860349128,0.009009178173703726,
0.06942643391521197,0.006123265098101942,
0.06947630922693267,-0.010935953518006115,
0.06952618453865336,0.0074704162212021145,
0.06957605985037406,0.010514309661575754,
0.06962593516209477,-0.0017379103278432981,
0.06967581047381546,0.011481294109722618,
0.06972568578553616,0.01168557426660728,
0.06977556109725686,-0.01885464291900655,
0.06982543640897755,-0.006961073394909275,
0.06987531172069826,0.018764412318200033,
0.06992518703241896,-0.017811398187320325,
0.06997506234413965,0.005988598145880939,
0.07002493765586035,0.01774589734544531,
0.07007481296758104,0.009674445152289693,
0.07012468827930174,-0.010295264640579033,
0.07017456359102245,0.014042073820685144,
0.07022443890274314,-0.0196168428399473,
0.07027431421446384,0.009871365771990534,
0.07032418952618454,-0.033855076429556354,
0.07037406483790523,0.011187066733935474,
0.07042394014962594,0.020902283264251864,
0.07047381546134664,0.005934877097214731,
0.07052369077306733,0.031232425308305806,
0.07057356608478803,-0.022190475486036337,
0.07062344139650872,0.009631774196800415,
0.07067331670822943,0.025367975560019927,
0.07072319201995013,0.022516804255400834,
0.07077306733167082,-0.0029259130548385526,
0.07082294264339152,-0.017587414904844702,
0.07087281795511222,-0.0062267794307098836,
0.07092269326683291,-0.02895732039131653,
0.07097256857855362,0.019072681604519345,
0.07102244389027432,-0.006760478629322469,
0.07107231920199501,-0.008619113816871481,
0.07112219451371571,-0.021078063545219558,
0.0711720698254364,0.014165051215310587,
0.07122194513715711,-0.014388970071536765,
0.07127182044887781,0.0002941633358557592,
0.0713216957605985,-0.0064321437004331615,
0.0713715710723192,-0.015251789594734489,
0.0714214463840399,0.0027029418690715174,
0.07147132169576059,-0.03159195568327323,
0.0715211970074813,0.0027393548488637677,
0.071571072319202,-0.020193338425318032,
0.0716209476309227,-0.014150718976525891,
0.07167082294264339,-0.018986666194179838,
0.07172069825436408,-0.0066741294200809015,
0.0717705735660848,-0.004097459945900394,
0.07182044887780549,-0.016464916782432247,
0.07187032418952619,-0.007675528590952658,
0.07192019950124688,-0.011080738981622186,
0.07197007481296758,0.003425015730650114,
0.07201995012468827,-0.006928716288830957,
0.07206982543640898,-0.0022717826186043053,
0.07211970074812968,0.009626602156486634,
0.07216957605985037,-0.011622821615787936,
0.07221945137157107,-0.0023668366399139515,
0.07226932668329177,0.03619912254645395,
0.07231920199501247,2.2353628237634787e-05,
0.07236907730673317,0.005080942111276824,
0.07241895261845387,0.005905200953228673,
0.07246882793017456,-0.007815233870798997,
0.07251870324189526,-0.006777566894208184,
0.07256857855361595,0.0076217475947161425,
0.07261845386533666,-0.011680187384965747,
0.07266832917705736,-0.017983694468399022,
0.07271820448877805,0.0018978100168248278,
0.07276807980049875,0.0032081843364018085,
0.07281795511221945,0.009193828963323731,
0.07286783042394016,-0.0006489191135789045,
0.07291770573566085,-0.004932409754022441,
0.07296758104738155,-0.018931160049183042,
0.07301745635910224,-0.015143242772776642,
0.07306733167082294,-0.009886450271351363,
0.07311720698254365,-0.011999904729537988,
0.07316708229426434,-0.01582336804056529,
0.07321695760598504,0.004205893114217299,
0.07326683291770573,-0.01157881232671047,
0.07331670822942643,-0.008387601184328582,
0.07336658354114713,-0.019738541836574072,
0.07341645885286784,-0.020377934901547937,
0.07346633416458853,-0.007468015249025947,
0.07351620947630923,-0.012275156449779058,
0.07356608478802992,-0.013948963913623248,
0.07361596009975062,3.6664578064019016e-05,
0.07366583541147133,-0.016547122008352427,
0.07371571072319202,-0.011177245610142767,
0.07376558603491272,-0.023005060472903904,
0.07381546134663342,-0.02263455771633411,
0.07386533665835411,-0.008084355127927087,
0.0739152119700748,-0.02784343590331506,
0.07396508728179552,-0.004897659437064366,
0.07401496259351621,0.016222684898263735,
0.07406483790523691,-0.007359169962201771,
0.0741147132169576,-0.03884883874211964,
0.0741645885286783,-0.013141209911697418,
0.07421446384039901,0.0032843958703237114,
0.0742643391521197,-0.018621209153497645,
0.0743142144638404,0.019903138725806305,
0.0743640897755611,0.0028592879861453185,
0.07441396508728179,0.006459706242848263,
0.07446384039900249,-0.008249168801590209,
0.0745137157107232,-0.01704674277403052,
0.07456359102244389,0.015043525615341207,
0.07461346633416459,-0.011559647015008603,
0.07466334164588528,-0.04297613762358729,
0.07471321695760598,-0.009108881677531079,
0.07476309226932669,-0.040014359325164964,
0.07481296758104738,0.00421448398204822,
0.07486284289276808,-0.00683520082098235,
0.07491271820448878,-0.026693556611832713,
0.07496259351620947,-0.004844616251975907,
0.07501246882793017,-0.0049325825234553325,
0.07506234413965088,-0.0041028484269926245,
0.07511221945137157,0.010194487301162193,
0.07516209476309227,0.0067780560758658945,
0.07521197007481296,-0.006730574729587725,
0.07526184538653366,-0.0223578493924497,
0.07531172069825437,0.011459213768131558,
0.07536159600997507,0.007708143540322501,
0.07541147132169576,-0.003986468561627161,
0.07546134663341646,0.005123944157386082,
0.07551122194513715,0.005332504079083849,
0.07556109725685786,-0.002617114984979683,
0.07561097256857856,-0.012902558577122953,
0.07566084788029925,0.0016314193659438935,
0.07571072319201995,0.004266981726432712,
0.07576059850374064,-0.0007389136707197635,
0.07581047381546134,-0.014268341445876503,
0.07586034912718205,-0.022972644529155737,
0.07591022443890275,-0.018241775659657785,
0.07596009975062344,0.01955521691929117,
0.07600997506234414,-0.007009412787485089,
0.07605985037406483,-0.00588441800383103,
0.07610972568578554,-0.03393105028908525,
0.07615960099750624,0.0014373031954881717,
0.07620947630922693,-0.020730294731398174,
0.07625935162094763,0.0022672036457836494,
0.07630922693266833,-0.03556223583393682,
0.07635910224438902,-0.023086167048754748,
0.07640897755610973,0.011770105299559077,
0.07645885286783043,-0.01832229833539611,
0.07650872817955112,-0.011527504551733271,
0.07655860349127182,-0.03663898322752519,
0.07660847880299251,0.008711499933786993,
0.07665835411471322,-0.02285418197336734,
0.07670822942643392,0.0028360948246930803,
0.07675810473815461,-0.01819624060842353,
0.07680798004987531,-0.006293798108631013,
0.076857855361596,-0.010315020266146929,
0.0769077306733167,-0.009409315871109296,
0.07695760598503741,-0.010360925557293682,
0.0770074812967581,0.008009423536690666,
0.0770573566084788,-0.027657800076525924,
0.0771072319201995,0.023562267653099996,
0.0771571072319202,-0.00139577592687983,
0.0772069825436409,-0.006989563793358227,
0.0772568578553616,-0.0061469242961543396,
0.0773067331670823,-0.004815534494233982,
0.07735660847880299,-0.0025782452023670605,
0.07740648379052369,-0.041531337323544554,
0.0774563591022444,-0.0131444611911347,
0.07750623441396509,-0.003762614973107957,
0.07755610972568579,0.0024891238661738802,
0.07760598503740648,0.002660991160652375,
0.07765586034912718,-0.004347696043096193,
0.07770573566084787,-0.0018281692044985563,
0.07775561097256858,-0.03242221287802022,
0.07780548628428928,-0.00720364123489032,
0.07785536159600998,0.020255402123741217,
0.07790523690773067,-0.01847659369728092,
0.07795511221945137,0.002624819347020753,
0.07800498753117208,-0.017924596928015152,
0.07805486284289277,-0.000628134051145657,
0.07810473815461347,-0.012033783978331058,
0.07815461346633416,-0.030753349808748234,
0.07820448877805486,0.004260641595742056,
0.07825436408977555,0.011863128226454873,
0.07830423940149626,-0.010778723478913992,
0.07835411471321696,-0.005431356904803534,
0.07840399002493766,-0.03577610053029773,
0.07845386533665835,0.014100553633878432,
0.07850374064837905,-0.03192736570617881,
0.07855361596009976,-0.024534131565687047,
0.07860349127182045,-0.01911671705456179,
0.07865336658354115,-0.016698145111206132,
0.07870324189526184,-0.032389196904477856,
0.07875311720698254,0.002731858745128806,
0.07880299251870324,0.017222962719817485,
0.07885286783042394,-0.01193293177260332,
0.07890274314214464,0.00350996826880216,
0.07895261845386534,-0.024921246968300614,
0.07900249376558603,-0.020784752049964814,
0.07905236907730673,-0.01205975686485261,
0.07910224438902744,-0.008676247713629747,
0.07915211970074813,-0.007273080606161668,
0.07920199501246883,0.014429303216929177,
0.07925187032418952,0.027911458975238397,
0.07930174563591022,0.02750861263012698,
0.07935162094763092,0.0019038418324139597,
0.07940149625935163,0.0007161449347650152,
0.07945137157107232,0.0019026092560320946,
0.07950124688279302,-0.0022606850532964585,
0.07955112219451371,0.008584318675497481,
0.07960099750623441,-0.009643441896674293,
0.07965087281795512,-0.015799627207135184,
0.07970074812967581,0.011151790715040563,
0.07975062344139651,0.011047849946846985,
0.0798004987531172,0.00015415213852279638,
0.0798503740648379,-0.028093423329199754,
0.07990024937655861,0.005965220581369175,
0.0799501246882793,0.00937065801788278,
0.08,-0.007177634321413506,
0.0800498753117207,0.0004812661954462119,
0.0800997506234414,0.005766043652779744,
0.08014962593516209,-0.009822591408424062,
0.0801995012468828,0.004750915429722205,
0.0802493765586035,0.0012501757164014608,
0.08029925187032419,0.020903553717573558,
0.08034912718204489,-0.015605470749234112,
0.08039900249376558,0.014731363786362965,
0.08044887780548629,0.00815817477311709,
0.08049875311720699,0.010306680382039208,
0.08054862842892768,0.025878047787755085,
0.08059850374064838,0.005180207625289228,
0.08064837905236907,0.011424301025830388,
0.08069825436408977,-0.0015120405530738255,
0.08074812967581048,0.05175548813414397,
0.08079800498753117,0.021160564027640667,
0.08084788029925187,0.02882286014707207,
0.08089775561097257,-0.009526123217697342,
0.08094763092269326,0.03157783997307144,
0.08099750623441397,0.012716521097809567,
0.08104738154613467,0.023985776861146377,
0.08109725685785536,-0.005256933866805993,
0.08114713216957606,0.013620178154147806,
0.08119700748129675,0.026961165457338617,
0.08124688279301745,0.015419809610339705,
0.08129675810473816,0.011819928841491386,
0.08134663341645886,0.005468262378104252,
0.08139650872817955,0.0199411955238235,
0.08144638403990025,0.023105170100853542,
0.08149625935162094,-0.0006489646008646516,
0.08154613466334165,-0.0019883294258762098,
0.08159600997506235,0.02439731316963363,
0.08164588528678304,0.02052496021212609,
0.08169576059850374,0.03225835431070808,
0.08174563591022443,0.0024884942961998485,
0.08179551122194513,0.018962801610848148,
0.08184538653366584,0.01735501068110986,
0.08189526184538654,0.012202919816639252,
0.08194513715710723,0.03645948618358533,
0.08199501246882793,0.018193698316223812,
0.08204488778054862,0.013483215981410182,
0.08209476309226933,0.0017720256457348146,
0.08214463840399003,0.0029889975820472647,
0.08219451371571072,0.0108600186019757,
0.08224438902743142,0.03515876335327786,
0.08229426433915212,0.02111280734223047,
0.08234413965087282,0.018319244588123347,
0.08239401496259352,0.013512341236031549,
0.08244389027431422,0.008631763156327202,
0.08249376558603491,0.029222510288819777,
0.08254364089775561,0.022940006536783387,
0.0825935162094763,0.00698133403796526,
0.08264339152119701,-0.0019033653960996225,
0.08269326683291771,0.008516116303531818,
0.0827431421446384,0.04748641880773311,
0.0827930174563591,0.023485166657064873,
0.0828428927680798,-0.006843023212632263,
0.0828927680798005,0.02992509831953929,
0.0829426433915212,0.025937041070272494,
0.0829925187032419,0.012827516646298184,
0.08304239401496259,0.034183541705546695,
0.08309226932668329,0.014725989784157737,
0.08314214463840398,0.010077672480064219,
0.0831920199501247,0.032946999890918774,
0.08324189526184539,0.025167626260392817,
0.08329177057356608,0.02089757527650182,
0.08334164588528678,0.04037883209775754,
0.08339152119700748,0.03514138992319633,
0.08344139650872819,0.007392726582114727,
0.08349127182044888,0.024583999525941484,
0.08354114713216958,0.04625518308098516,
0.08359102244389027,0.049054441094373964,
0.08364089775561097,0.010406443708600435,
0.08369077306733166,0.03757434932716749,
0.08374064837905237,0.048832224817061134,
0.08379052369077307,0.024525675378887217,
0.08384039900249377,0.024736353686362164,
0.08389027431421446,0.015090142530202303,
0.08394014962593516,0.03667090331240104,
0.08399002493765587,0.03558350966467051,
0.08403990024937656,0.02995186107156794,
0.08408977556109726,0.02061155696440197,
0.08413965087281795,0.01981400482215103,
0.08418952618453865,0.04991877553322461,
0.08423940149625936,0.036175074318101894,
0.08428927680798005,0.01415517925715108,
0.08433915211970075,0.011483714399283966,
0.08438902743142145,0.011487074629713788,
0.08443890274314214,0.00447417999401192,
0.08448877805486284,0.0059516374788155385,
0.08453865336658355,0.02503632676314353,
0.08458852867830424,0.030656764315976148,
0.08463840399002494,0.030405044437041548,
0.08468827930174563,0.016837685212562115,
0.08473815461346633,-0.018893880662906586,
0.08478802992518704,0.040397274115791026,
0.08483790523690773,0.013857311170205808,
0.08488778054862843,0.03879155305257098,
0.08493765586034913,0.01863656825251811,
0.08498753117206982,0.023729965338808966,
0.08503740648379052,0.02653893811200512,
0.08508728179551123,0.03098829685927556,
0.08513715710723192,0.04658479842522195,
0.08518703241895262,0.019701247119812734,
0.08523690773067331,0.0031863033581779818,
0.08528678304239401,0.041935593446280006,
0.08533665835411472,0.0447803143887142,
0.08538653366583542,0.02645624278853393,
0.08543640897755611,0.0039940686845783,
0.0854862842892768,0.035919067805390975,
0.0855361596009975,0.03888624294989293,
0.0855860349127182,0.026133851676150857,
0.08563591022443891,0.028594115937715884,
0.0856857855361596,0.04435046478440037,
0.0857356608478803,0.02144233033712422,
0.085785536159601,0.04490464548917929,
0.08583541147132169,0.03570470215308607,
0.0858852867830424,0.046098201502420375,
0.0859351620947631,0.03338273568767565,
0.08598503740648379,-0.0008427443302562419,
0.08603491271820449,0.019457143854719947,
0.08608478802992518,0.004068467776494,
0.08613466334164588,0.022343920935576828,
0.08618453865336659,0.030319629040816722,
0.08623441396508728,-0.004174735530103682,
0.08628428927680798,0.041660468028567245,
0.08633416458852868,0.006967443113715409,
0.08638403990024937,0.05505181006650818,
0.08643391521197008,0.032671607062640926,
0.08648379052369078,0.021867149630779986,
0.08653366583541147,0.04548248142419045,
0.08658354114713217,0.032210943360645505,
0.08663341645885286,0.017509764644012236,
0.08668329177057357,0.018969336471094216,
0.08673316708229427,0.026160561827252064,
0.08678304239401496,0.0458989222320795,
0.08683291770573566,0.026854231452425905,
0.08688279301745636,0.0028993402336273365,
0.08693266832917705,0.007915962071772992,
0.08698254364089776,0.014011926099164804,
0.08703241895261846,0.027980046756720698,
0.08708229426433915,0.041147490175417634,
0.08713216957605985,0.02937435562329735,
0.08718204488778054,0.011106610379899604,
0.08723192019950125,0.01681404467607449,
0.08728179551122195,0.012372714949133898,
0.08733167082294264,-0.007485683427040653,
0.08738154613466334,0.029213585670523703,
0.08743142144638404,0.025852209472058865,
0.08748129675810473,0.02264501745821044,
0.08753117206982544,0.03429270301394703,
0.08758104738154614,0.013904900064073064,
0.08763092269326683,0.042797501072771235,
0.08768079800498753,0.030970423166232282,
0.08773067331670822,0.02044074731045595,
0.08778054862842893,0.02682244230646483,
0.08783042394014963,0.006525881776477444,
0.08788029925187033,0.022425229179894715,
0.08793017456359102,0.02672650309953562,
0.08798004987531172,0.0031569611373700943,
0.08802992518703241,0.012979519376543031,
0.08807980049875312,0.0370119374102187,
0.08812967581047382,0.0034867433362524396,
0.08817955112219451,0.03288452699142094,
0.08822942643391521,0.01033292414744821,
0.0882793017456359,0.02655323504338001,
0.08832917705735661,0.017932675759482392,
0.08837905236907731,0.01675657124006197,
0.088428927680798,-0.0036132847829421257,
0.0884788029925187,0.01597310286187016,
0.0885286783042394,0.0159305616571496,
0.0885785536159601,-0.008750994566687542,
0.0886284289276808,0.034357003911427236,
0.0886783042394015,0.022118041715300275,
0.0887281795511222,0.021286154732985847,
0.08877805486284289,0.027266666781861935,
0.08882793017456359,0.02355744526526674,
0.0888778054862843,0.0367340424333566,
0.08892768079800499,0.007324010646785565,
0.08897755610972569,0.014751560638309178,
0.08902743142144638,0.011676667795949345,
0.08907730673316708,0.022051338743278963,
0.08912718204488779,0.06751742456945327,
0.08917705735660848,0.005833366524245005,
0.08922693266832918,-0.0004052920300445812,
0.08927680798004987,-0.004139259199147916,
0.08932668329177057,-0.0025871946173564447,
0.08937655860349127,0.004226247843331383,
0.08942643391521198,0.02341550209354733,
0.08947630922693267,0.03213464839810146,
0.08952618453865337,0.014020643255995294,
0.08957605985037406,0.025854290842116212,
0.08962593516209476,0.004299991290710964,
0.08967581047381547,0.01042882242394131,
0.08972568578553616,0.01448675420553903,
0.08977556109725686,0.02381888190039492,
0.08982543640897755,-0.015476338833301108,
0.08987531172069825,0.01961197479875582,
0.08992518703241895,-0.0012599905452674066,
0.08997506234413966,0.0012541939985335152,
0.09002493765586035,0.026838343705673395,
0.09007481296758105,0.01604254727097111,
0.09012468827930174,0.016860277240342877,
0.09017456359102244,0.017866331592141734,
0.09022443890274315,-0.007310814046190415,
0.09027431421446384,-0.0026084159896375293,
0.09032418952618454,-0.006434281342400798,
0.09037406483790524,0.02497338288024751,
0.09042394014962593,-0.012011521562384758,
0.09047381546134663,0.0035625536498790676,
0.09052369077306734,0.005751051021795271,
0.09057356608478803,0.021963690647028224,
0.09062344139650873,-0.0053461536747919465,
0.09067331670822942,-0.001974272502019551,
0.09072319201995012,0.0004052602573710387,
0.09077306733167083,-0.02330865521895386,
0.09082294264339152,-0.006517454039617716,
0.09087281795511222,-0.012878581716711945,
0.09092269326683292,0.014079126443935504,
0.09097256857855361,0.0066901574819404975,
0.09102244389027432,-0.014851504458067388,
0.09107231920199502,0.01313880424358793,
0.09112219451371571,-0.011030454042591765,
0.09117206982543641,0.013420626710342476,
0.0912219451371571,-0.015034899528933304,
0.0912718204488778,-0.0015875152629408317,
0.09132169576059851,0.004224519828691561,
0.0913715710723192,-0.009508803512925351,
0.0914214463840399,0.03422238633468362,
0.0914713216957606,0.015698780924419828,
0.09152119700748129,-0.0014623199925278144,
0.091571072319202,-0.006517198709817387,
0.0916209476309227,0.005874921704735984,
0.09167082294264339,-0.013131664050555113,
0.09172069825436409,-0.0010533002195485955,
0.09177057356608478,0.007290251853151088,
0.09182044887780548,-0.008002484636640397,
0.09187032418952619,0.008291784934220846,
0.09192019950124689,0.004388548264046428,
0.09197007481296758,-0.011265355873585292,
0.09201995012468828,-0.005630614590740114,
0.09206982543640897,0.0018833794638002822,
0.09211970074812968,0.01739549526463287,
0.09216957605985038,-0.011442840751052343,
0.09221945137157107,-0.007836464062452227,
0.09226932668329177,-0.028463431517806125,
0.09231920199501246,-0.00031538348942974134,
0.09236907730673316,0.00835011735073807,
0.09241895261845387,-0.028983461553711804,
0.09246882793017457,-0.0389711909591203,
0.09251870324189526,0.015741036487687675,
0.09256857855361596,-0.007418933313124755,
0.09261845386533665,0.01934720814358329,
0.09266832917705736,0.01561723383635744,
0.09271820448877806,-0.0145896093126265,
0.09276807980049875,0.012269811338277408,
0.09281795511221945,-0.02108010369844305,
0.09286783042394015,-0.05241004286093796,
0.09291770573566084,-0.005973253934481731,
0.09296758104738155,-0.0059985430847344584,
0.09301745635910225,0.00580616786530971,
0.09306733167082294,-0.006640639825992228,
0.09311720698254364,-0.021864689483356146,
0.09316708229426433,-0.027606015874696636,
0.09321695760598504,-0.016542520638983475,
0.09326683291770574,0.020857139191526628,
0.09331670822942643,-0.016923263682020268,
0.09336658354114713,0.01048623510201864,
0.09341645885286783,-0.024804365125871263,
0.09346633416458854,-0.02033144534107699,
0.09351620947630923,-0.0056002035816247984,
0.09356608478802993,0.010520984379177995,
0.09361596009975062,-0.016463718329353443,
0.09366583541147132,-0.005676284628870018,
0.09371571072319201,-0.017925185515782344,
0.09376558603491272,0.013022657403461313,
0.09381546134663342,-0.006554022827103194,
0.09386533665835411,0.01989381497626695,
0.09391521197007481,-0.03606466048799447,
0.0939650872817955,0.002460013916915929,
0.09401496259351622,0.001141150250040468,
0.09406483790523691,-0.018536198264140775,
0.09411471321695761,-0.015313211820489565,
0.0941645885286783,0.0142188477725234,
0.094214463840399,0.0014978914636940913,
0.0942643391521197,-0.02732828296462571,
0.0943142144638404,-0.02666583963435177,
0.0943640897755611,-0.013481874379590926,
0.0944139650872818,-0.01519102691006721,
0.09446384039900249,-0.024014188814249215,
0.09451371571072319,-0.05711102121958492,
0.0945635910224439,-0.012690567470934486,
0.09461346633416459,-0.0068675294821677535,
0.09466334164588529,0.025631870830836248,
0.09471321695760598,-0.033444017859292796,
0.09476309226932668,0.004648498441714513,
0.09481296758104737,-0.036416773684668266,
0.09486284289276808,0.01689428443832198,
0.09491271820448878,-0.00590315693662691,
0.09496259351620948,-0.026834019583968978,
0.09501246882793017,-0.011475885746971443,
0.09506234413965087,-0.009668535549916646,
0.09511221945137158,-0.0091428742074099,
0.09516209476309227,-0.026374630564459517,
0.09521197007481297,-0.008008940424790782,
0.09526184538653366,-0.03410219666586681,
0.09531172069825436,-0.024334544763966386,
0.09536159600997507,-0.02574214282205589,
0.09541147132169576,-0.023946605213211535,
0.09546134663341646,-0.03574162643997701,
0.09551122194513716,-0.003688192945363539,
0.09556109725685785,0.006660718494815556,
0.09561097256857855,-0.0029994646983068102,
0.09566084788029926,-0.0008993143396735757,
0.09571072319201995,-0.02280076879144917,
0.09576059850374065,-0.02423230841650896,
0.09581047381546134,-0.018284708270480208,
0.09586034912718204,-0.014421750540182944,
0.09591022443890275,0.001262833626431037,
0.09596009975062345,0.004892823822443663,
0.09600997506234414,-0.0107226797346273,
0.09605985037406484,-0.0056411603245473205,
0.09610972568578553,-0.02531848805265316,
0.09615960099750623,-0.02511094485613681,
0.09620947630922694,-0.022086810524089145,
0.09625935162094763,0.0004624005564205103,
0.09630922693266833,-0.006544280261074176,
0.09635910224438902,-0.019528622448129036,
0.09640897755610972,-0.025288620518141836,
0.09645885286783043,0.02578451801184451,
0.09650872817955113,-0.02396270475137595,
0.09655860349127182,-0.008082905249312433,
0.09660847880299252,-0.024718274901346572,
0.09665835411471321,-0.016175115757126206,
0.09670822942643391,-0.025084161706831185,
0.09675810473815462,-0.003414713763002384,
0.09680798004987531,-0.0187348874913393,
0.09685785536159601,0.009103275868728057,
0.0969077306733167,0.01599770409690085,
0.0969576059850374,0.013240597937296174,
0.09700748129675811,-0.007035872732237172,
0.0970573566084788,0.018389732181951626,
0.0971072319201995,0.0013594689075428542,
0.0971571072319202,-0.012769700412746946,
0.0972069825436409,-0.01774687848144951,
0.09725685785536159,-0.003073894917639447,
0.0973067331670823,-0.013305066215014037,
0.097356608478803,-0.009467011053225796,
0.09740648379052369,-0.03155245596089524,
0.09745635910224439,-0.016554164999265174,
0.09750623441396508,0.0043773430360322715,
0.09755610972568579,-0.012470897800642613,
0.09760598503740649,-0.01058183280296672,
0.09765586034912718,-0.021553686818608878,
0.09770573566084788,-0.02420884776649742,
0.09775561097256857,-0.014938036956546188,
0.09780548628428928,-0.010417328742153722,
0.09785536159600998,0.016284977661725684,
0.09790523690773068,-0.009194088528803483,
0.09795511221945137,-0.006310258371061704,
0.09800498753117207,-0.01259291953918282,
0.09805486284289276,-0.02155401132470029,
0.09810473815461347,-0.007472721678162491,
0.09815461346633417,-0.018620581976713964,
0.09820448877805486,-0.01867071816812206,
0.09825436408977556,-0.013695620086886138,
0.09830423940149625,-0.002482802419878971,
0.09835411471321696,-0.022197381236807565,
0.09840399002493766,-0.008458977511932872,
0.09845386533665836,0.0068895586976770356,
0.09850374064837905,-0.003714883943923282,
0.09855361596009975,-0.017296148219185466,
0.09860349127182044,-0.005458294976173554,
0.09865336658354115,-0.00965907049265229,
0.09870324189526185,-0.009760171054945397,
0.09875311720698254,-0.02398508908847814,
0.09880299251870324,0.0008651412613461928,
0.09885286783042393,0.0008389998229890267,
0.09890274314214464,-0.0350580126824514,
0.09895261845386534,-0.007026322803741051,
0.09900249376558604,0.00819856631863754,
0.09905236907730673,-0.017728925031294012,
0.09910224438902743,-0.013458071770562912,
0.09915211970074812,0.02377078468384813,
0.09920199501246883,0.020443739104277228,
0.09925187032418953,0.013915958390088067,
0.09930174563591022,-0.006131085452888234,
0.09935162094763092,-0.01628397936302039,
0.09940149625935162,-0.006436843864416431,
0.09945137157107233,0.009992047942803978,
0.09950124688279302,-0.005904532447449089,
0.09955112219451372,0.012269130842394161,
0.09960099750623441,0.00918548496276472,
0.09965087281795511,0.004637640114713649,
0.0997007481296758,0.00265039175268672,
0.09975062344139651,-0.007241526413446416,
0.09980049875311721,-0.024768629896568806,
0.0998503740648379,0.026372248103900167,
0.0999002493765586,-0.013885130539756166,
0.0999501246882793,-0.0010369111684532103,
0.1,-0.02146697083899628,
0.1000498753117207,-0.007408128667779136,
0.1000997506234414,0.009365771301015102,
0.10014962593516209,0.010119608416227872,
0.10019950124688279,0.005409678495982581,
0.1002493765586035,0.013804385460142104,
0.1002992518703242,-0.0029967693210453525,
0.10034912718204489,-0.007303029055606467,
0.10039900249376559,0.005285945556883969,
0.10044887780548628,0.012948993812011428,
0.10049875311720698,-0.016466362134409128,
0.10054862842892769,0.01436277679587827,
0.10059850374064838,0.015620872754233437,
0.10064837905236908,0.044077157897099616,
0.10069825436408977,-0.010187872549173015,
0.10074812967581047,0.0019866490994823113,
0.10079800498753118,-0.01737300356354308,
0.10084788029925187,0.02005812337445521,
0.10089775561097257,0.015139543795196421,
0.10094763092269327,0.012418061578387441,
0.10099750623441396,0.008073279917860185,
0.10104738154613466,0.021789541324341175,
0.10109725685785537,0.027044202240576132,
0.10114713216957606,0.026888539203911585,
0.10119700748129676,0.016876136878519153,
0.10124688279301745,0.026757501292347267,
0.10129675810473815,0.022048347905193007,
0.10134663341645886,0.0363406471561781,
0.10139650872817955,0.002507017202513697,
0.10144638403990025,0.019436823862497787,
0.10149625935162095,-0.0068666995057,
0.10154613466334164,0.026522510926389138,
0.10159600997506234,0.028790901287777282,
0.10164588528678305,-0.006430512042895251,
0.10169576059850374,0.021679204188156755,
0.10174563591022444,0.005903105993738321,
0.10179551122194513,0.014935786090097816,
0.10184538653366583,0.015611275377179372,
0.10189526184538654,0.04157796004449022,
0.10194513715710724,0.013110181169788071,
0.10199501246882793,0.0011769147045123315,
0.10204488778054863,0.0038532161966003033,
0.10209476309226932,-0.015133184623467431,
0.10214463840399003,0.024213662077791145,
0.10219451371571073,0.044088275651375713,
0.10224438902743142,0.017822985959966297,
0.10229426433915212,0.03125734055042666,
0.10234413965087281,0.012981066968504748,
0.10239401496259351,0.01487205625261183,
0.10244389027431422,0.0337602741075137,
0.10249376558603492,0.0285122349976455,
0.10254364089775561,0.01353224375081545,
0.10259351620947631,0.010333215787963217,
0.102643391521197,0.018096763323697432,
0.10269326683291771,0.03800168873451955,
0.10274314214463841,0.015010105657689073,
0.1027930174563591,0.005748883979265464,
0.1028428927680798,0.005293655085994466,
0.1028927680798005,0.009852635649910303,
0.10294264339152119,0.001366555838390772,
0.1029925187032419,0.02000425417188407,
0.1030423940149626,0.04671000698159529,
0.10309226932668329,0.026496251433055347,
0.10314214463840399,0.012591827610252942,
0.10319201995012468,0.012712965097591856,
0.10324189526184539,0.026612803200495517,
0.10329177057356609,0.029839240577815892,
0.10334164588528678,0.036072253071047125,
0.10339152119700748,0.007280903551736481,
0.10344139650872818,0.020803216778900846,
0.10349127182044887,0.007316168500435562,
0.10354114713216958,0.008833518940967185,
0.10359102244389028,0.03144218821204839,
0.10364089775561097,0.022845296399848232,
0.10369077306733167,0.0352298693735981,
0.10374064837905236,0.024838836835139894,
0.10379052369077307,0.04765856721552465,
0.10384039900249377,0.017232130471419343,
0.10389027431421446,-0.0026026727013813214,
0.10394014962593516,0.04146254797008728,
0.10399002493765586,0.04618209470969448,
0.10403990024937655,0.04545394476550885,
0.10408977556109726,0.03399584610864831,
0.10413965087281796,0.021173460459139752,
0.10418952618453865,0.04887964378791888,
0.10423940149625935,0.024212474851122604,
0.10428927680798004,0.02802508071090396,
0.10433915211970075,0.04310371660286842,
0.10438902743142145,0.027360105147203873,
0.10443890274314215,0.042829560189440494,
0.10448877805486284,0.009947488375065101,
0.10453865336658354,0.012227831717383432,
0.10458852867830425,0.02669797927362016,
0.10463840399002494,0.041017959971596185,
0.10468827930174564,0.04858715048148064,
0.10473815461346633,0.044003461537139715,
0.10478802992518703,0.030119494686420847,
0.10483790523690772,0.008402669779538338,
0.10488778054862843,0.041329811633923935,
0.10493765586034913,0.024292449220843282,
0.10498753117206983,0.032248619645594785,
0.10503740648379052,0.018936671644344566,
0.10508728179551122,0.028267407497712088,
0.10513715710723193,0.03396714489169195,
0.10518703241895262,0.057131505181225686,
0.10523690773067332,0.04128023927305016,
0.10528678304239401,0.04984225863024648,
0.10533665835411471,0.016604967811554742,
0.1053865336658354,0.022329656311165486,
0.10543640897755611,0.02567605483036743,
0.10548628428927681,0.039234882546111835,
0.1055361596009975,0.02632350864787383,
0.1055860349127182,0.03439758194211069,
0.1056359102244389,0.024650687890235484,
0.10568578553615961,0.003180812463330778,
0.1057356608478803,0.01889949937960088,
0.105785536159601,0.022914338139411457,
0.1058354114713217,0.04960825050989982,
0.10588528678304239,0.028262289074616337,
0.10593516209476309,0.026367320641399624,
0.1059850374064838,0.013463308455064434,
0.10603491271820449,0.03650443726461583,
0.10608478802992519,0.054051002980332274,
0.10613466334164588,0.021115333271545137,
0.10618453865336658,0.01670446719631142,
0.10623441396508729,0.023509164630785263,
0.10628428927680798,0.014593934428170354,
0.10633416458852868,0.029865446325196943,
0.10638403990024937,0.027139981495928184,
0.10643391521197007,0.02053397966301801,
0.10648379052369077,0.02849404796297434,
0.10653366583541148,0.05735398440591612,
0.10658354114713217,0.03380642176351443,
0.10663341645885287,0.03430906423728842,
0.10668329177057356,0.022262749473587567,
0.10673316708229426,0.05880932683896757,
0.10678304239401497,-0.003364023409723676,
0.10683291770573566,0.027597987321055218,
0.10688279301745636,0.05007613797566639,
0.10693266832917706,0.031156488846921,
0.10698254364089775,0.010434933646635816,
0.10703241895261846,0.04384314007928161,
0.10708229426433916,0.011166076778870675,
0.10713216957605985,-0.007115547781530618,
0.10718204488778055,0.03349378603841385,
0.10723192019950124,0.012609026291064902,
0.10728179551122194,0.044967904490540514,
0.10733167082294265,0.012972680001187979,
0.10738154613466334,0.022083517032928855,
0.10743142144638404,-0.003030107635335167,
0.10748129675810474,0.05205370010867176,
0.10753117206982543,0.0017633228121786346,
0.10758104738154614,0.007800873292033959,
0.10763092269326684,0.0038131694641003883,
0.10768079800498753,-0.002928262502671683,
0.10773067331670823,0.028110304127888258,
0.10778054862842892,0.015771608035851876,
0.10783042394014962,0.052069623414907576,
0.10788029925187033,0.00909168059228862,
0.10793017456359102,0.006500983298632135,
0.10798004987531172,0.04022934604137765,
0.10802992518703242,0.021650798613413142,
0.10807980049875311,0.0492490563242192,
0.10812967581047382,0.029299477034572113,
0.10817955112219452,0.02277123648769863,
0.10822942643391521,0.020005978596039583,
0.10827930174563591,0.015443467600737941,
0.1083291770573566,0.03466089559325986,
0.1083790523690773,0.02755309500380788,
0.10842892768079801,0.01990313493117765,
0.1084788029925187,0.02503412275432873,
0.1085286783042394,0.02910067801897622,
0.1085785536159601,-0.010524003335552874,
0.10862842892768079,0.02418946752991212,
0.1086783042394015,0.02072379532760555,
0.1087281795511222,0.008641558459826806,
0.1087780548628429,0.042465971164576885,
0.10882793017456359,0.021081766522335475,
0.10887780548628428,0.026021373029078212,
0.108927680798005,0.029694565101604634,
0.10897755610972569,0.01452478913965792,
0.10902743142144639,0.03790879068807748,
0.10907730673316708,0.01939821169520979,
0.10912718204488778,0.00019756259381366846,
0.10917705735660847,0.007605316965251607,
0.10922693266832918,-0.009619934650757295,
0.10927680798004988,0.0050722140845998655,
0.10932668329177057,0.017336479806825785,
0.10937655860349127,0.016378079432292827,
0.10942643391521197,0.012284832315806288,
0.10947630922693267,0.020936449242096252,
0.10952618453865337,0.005376543693946733,
0.10957605985037407,-0.000361699641073205,
0.10962593516209476,0.011687137416233593,
0.10967581047381546,0.0072888925084877,
0.10972568578553615,0.02549562503797554,
0.10977556109725686,-0.018818462873431877,
0.10982543640897756,0.017433667122621774,
0.10987531172069825,0.011133728098408518,
0.10992518703241895,-0.00416401357478419,
0.10997506234413965,0.02225757726367074,
0.11002493765586036,0.010454637234934719,
0.11007481296758105,-0.01881141277998501,
0.11012468827930175,-0.01728765513559446,
0.11017456359102244,-0.0011742988593639297,
0.11022443890274314,0.023293471502746237,
0.11027431421446383,-0.004084809003978016,
0.11032418952618454,0.009193518118179258,
0.11037406483790524,-0.004651286973942915,
0.11042394014962593,0.02352318614343452,
0.11047381546134663,-0.01247782944619414,
0.11052369077306733,0.01002130954904893,
0.11057356608478804,0.01552109522267238,
0.11062344139650873,0.024066667263634656,
0.11067331670822943,-0.0035311788260577797,
0.11072319201995012,-0.006245885814129791,
0.11077306733167082,0.02771349393468441,
0.11082294264339151,0.008173366336396086,
0.11087281795511222,-0.011597525600811589,
0.11092269326683292,-0.01770158294393551,
0.11097256857855362,0.001154726092175875,
0.11102244389027431,-0.008004793211785698,
0.111072319201995,-0.01695916820377376,
0.11112219451371572,-0.002129392243338105,
0.11117206982543641,-0.0006590508742407367,
0.11122194513715711,0.023294456354510346,
0.1112718204488778,-0.012049866185025012,
0.1113216957605985,0.002023805074562048,
0.11137157107231921,0.0018403311761535557,
0.1114214463840399,0.026790587592536854,
0.1114713216957606,0.009867576196301204,
0.1115211970074813,0.022950883045096467,
0.11157107231920199,0.013058665916068987,
0.11162094763092269,-0.016972736905350682,
0.1116708229426434,-0.014392870158737903,
0.11172069825436409,0.010802152085682356,
0.11177057356608479,0.017616994855301132,
0.11182044887780548,0.010762919249176033,
0.11187032418952618,-0.012464540723917695,
0.11192019950124689,-0.02825982659149203,
0.11197007481296758,-0.00839837036924609,
0.11201995012468828,-0.0014197980234937852,
0.11206982543640898,0.0009701322906149014,
0.11211970074812967,0.02150625631012671,
0.11216957605985037,-0.001842796575336704,
0.11221945137157108,0.0031708092787139366,
0.11226932668329177,-0.015652170906186674,
0.11231920199501247,0.016837651915933338,
0.11236907730673316,-0.01933059606015788,
0.11241895261845386,-0.012945382264265103,
0.11246882793017457,-0.016036506609290395,
0.11251870324189527,0.012845596107199707,
0.11256857855361596,-0.0036927470900898537,
0.11261845386533666,-0.019364905664516277,
0.11266832917705735,-0.03400554100417681,
0.11271820448877805,0.01545523638591116,
0.11276807980049876,0.04770810047720231,
0.11281795511221945,0.00440507703671276,
0.11286783042394015,0.0021668652477709154,
0.11291770573566084,-0.004768087546985456,
0.11296758104738154,-0.008021541879883883,
0.11301745635910225,-0.0135910336993551,
0.11306733167082295,-0.022980119973130653,
0.11311720698254364,0.02747899518268782,
0.11316708229426434,-0.013082233909368551,
0.11321695760598503,-0.023349060017666887,
0.11326683291770574,-0.02013324167602746,
0.11331670822942644,0.005374092443687939,
0.11336658354114713,-0.024099357797959395,
0.11341645885286783,-0.02170513844725859,
0.11346633416458853,-0.009088602665155533,
0.11351620947630922,-0.015051230939141347,
0.11356608478802993,0.008232335872754725,
0.11361596009975063,-0.04006199247307864,
0.11366583541147132,0.0038382622479745856,
0.11371571072319202,-0.013585045479927157,
0.11376558603491271,-0.02763406392779335,
0.11381546134663342,-0.01650514888542677,
0.11386533665835412,-0.002603571064249542,
0.11391521197007481,-0.02072192547136848,
0.11396508728179551,-0.004309270777273438,
0.1140149625935162,0.010546365683102748,
0.1140648379052369,-0.01439667900639962,
0.11411471321695761,-0.019300293547366898,
0.1141645885286783,-0.013143268533023215,
0.114214463840399,-0.013664512144509564,
0.1142643391521197,-0.03925499778786466,
0.1143142144638404,-0.0022153443790012307,
0.1143640897755611,0.007013736107901798,
0.1144139650872818,-0.0199010851155204,
0.1144638403990025,-0.011860690939036106,
0.11451371571072319,-0.01867901958429329,
0.11456359102244389,-0.009507465726556925,
0.11461346633416458,0.008007487850625924,
0.11466334164588529,-0.0004818023894258682,
0.11471321695760599,-0.0035582944720158457,
0.11476309226932668,0.02330125354139067,
0.11481296758104738,0.004692636674830129,
0.11486284289276807,0.00904739154736334,
0.11491271820448878,-0.027917682456183094,
0.11496259351620948,-0.00035847100609632046,
0.11501246882793018,0.0036635692200583207,
0.11506234413965087,-0.021569983558211443,
0.11511221945137157,0.005932015715319063,
0.11516209476309226,-0.013667065758902183,
0.11521197007481297,0.03660861596082355,
0.11526184538653367,-0.025536056589123016,
0.11531172069825436,-0.03565032293162567,
0.11536159600997506,-0.024578539257291594,
0.11541147132169575,-0.03317565654435604,
0.11546134663341646,-0.02471971310293537,
0.11551122194513716,-0.019868737898126536,
0.11556109725685786,-0.006393753927556724,
0.11561097256857855,-0.006238176572268462,
0.11566084788029925,0.016369918661122983,
0.11571072319201996,-0.025624038495181887,
0.11576059850374065,-0.011347474461469309,
0.11581047381546135,0.001896280448498433,
0.11586034912718204,-0.024405202660082885,
0.11591022443890274,0.010916984773915983,
0.11596009975062344,-0.008307929732062234,
0.11600997506234415,0.0069471217106393725,
0.11605985037406484,-0.013329310046328289,
0.11610972568578554,-0.024332571314648367,
0.11615960099750623,-0.03032405677405739,
0.11620947630922693,-0.0012280308563698914,
0.11625935162094764,-0.016681931719624756,
0.11630922693266833,-0.024272399558379364,
0.11635910224438903,0.0013751081375645343,
0.11640897755610972,0.003305357378783326,
0.11645885286783042,-0.022489888141135894,
0.11650872817955112,-0.03744975963073442,
0.11655860349127183,0.0023533109077073493,
0.11660847880299252,-0.0037215505230465016,
0.11665835411471322,-0.01874190965378921,
0.11670822942643391,-0.012655094090152015,
0.11675810473815461,0.028119464643999594,
0.11680798004987532,-0.03397821770024856,
0.11685785536159601,-0.022969221444486727,
0.11690773067331671,-0.03181866447669127,
0.1169576059850374,-0.01827081613745462,
0.1170074812967581,-0.004940460099179948,
0.1170573566084788,-0.002273981305738162,
0.1171072319201995,-0.030700568615237407,
0.1171571072319202,-0.011164494752301543,
0.1172069825436409,-0.025179000742428168,
0.1172568578553616,-0.015094469540492901,
0.11730673316708229,-0.011191652469305119,
0.117356608478803,0.002060092302808174,
0.1174064837905237,-0.014354237363945435,
0.11745635910224439,-0.010796986497252439,
0.11750623441396509,0.0016789706620927193,
0.11755610972568578,0.006426917690691206,
0.11760598503740648,0.009760646035850638,
0.11765586034912719,0.012116829783667939,
0.11770573566084788,-0.00017579958090379027,
0.11775561097256858,-0.027396940218761913,
0.11780548628428927,0.025673486004648242,
0.11785536159600997,-0.0006221025439878056,
0.11790523690773068,-0.00619376125752961,
0.11795511221945137,-0.00946669260431329,
0.11800498753117207,0.010968048288343244,
0.11805486284289277,0.006581563317364718,
0.11810473815461346,0.0002225238913321631,
0.11815461346633417,-0.016216417448095054,
0.11820448877805487,0.0046127725752070844,
0.11825436408977556,-0.00739876380609741,
0.11830423940149626,-0.012470134026997565,
0.11835411471321695,-0.014655089336790115,
0.11840399002493765,0.027596969721530504,
0.11845386533665836,0.01006298995041762,
0.11850374064837906,0.0010464072017877264,
0.11855361596009975,0.001974031320672173,
0.11860349127182045,0.007632822407498744,
0.11865336658354114,-0.0026096348274396277,
0.11870324189526185,-0.0006321039845464768,
0.11875311720698255,-0.00020911278451643512,
0.11880299251870324,-0.0062111431124436,
0.11885286783042394,0.005766911989519267,
0.11890274314214463,-0.0001880259650586217,
0.11895261845386533,0.002087369613110321,
0.11900249376558604,-0.011519189251723573,
0.11905236907730674,-0.027252002440103174,
0.11910224438902743,0.004532818004538184,
0.11915211970074813,0.021759339394398065,
0.11920199501246882,-0.017605012188147966,
0.11925187032418953,0.021151646995844375,
0.11930174563591023,0.0022284787219105143,
0.11935162094763092,0.027311760403503436,
0.11940149625935162,-0.012772859953958549,
0.11945137157107232,0.005583396482081935,
0.11950124688279301,-0.012598180183328644,
0.11955112219451372,0.005687393035246417,
0.11960099750623442,0.011385954882561436,
0.11965087281795511,0.008282946883183541,
0.11970074812967581,0.0150960366054191,
0.1197506234413965,0.013700371345351587,
0.11980049875311721,0.027634576067990257,
0.11985037406483791,0.02449505178405731,
0.1199002493765586,-0.003804531426587718,
0.1199501246882793,0.018990101888364315,
0.12,0.016143989966765283,
0.1200498753117207,0.02870812447923149,
0.1200997506234414,-0.007226761394203033,
0.1201496259351621,0.017524376481163062,
0.12019950124688279,0.008136629547805413,
0.12024937655860349,0.03528519244390413,
0.12029925187032418,-0.0011767150367066222,
0.1203491271820449,0.021153466696860735,
0.12039900249376559,0.0012248251705897287,
0.12044887780548628,0.015492670038898766,
0.12049875311720698,0.003999819339137806,
0.12054862842892768,0.019744803417894783,
0.12059850374064839,0.011209872398798826,
0.12064837905236908,0.007529382424213079,
0.12069825436408978,0.02155352966986341,
0.12074812967581047,0.01197042712036252,
0.12079800498753117,0.018889553095075853,
0.12084788029925186,0.023383073683594647,
0.12089775561097257,0.007538063455957592,
0.12094763092269327,0.011332491315617328,
0.12099750623441397,0.016796734773000706,
0.12104738154613466,0.0382668535797079,
0.12109725685785536,-0.008157180688238475,
0.12114713216957607,0.014367942700708772,
0.12119700748129676,0.004036547729741765,
0.12124688279301746,-0.017612073462230662,
0.12129675810473815,-0.001751612875515323,
0.12134663341645885,0.007976512644982042,
0.12139650872817954,0.04614687039977809,
0.12144638403990025,0.02299351046901775,
0.12149625935162095,0.02854663650392937,
0.12154613466334165,0.02806089827121997,
0.12159600997506234,0.005897572394455328,
0.12164588528678304,0.034113738000048674,
0.12169576059850375,0.008937429589300216,
0.12174563591022444,0.030482271336603063,
0.12179551122194514,0.008956425689764626,
0.12184538653366583,0.015339379443029506,
0.12189526184538653,0.02026754252773843,
0.12194513715710723,0.007546364410420668,
0.12199501246882793,0.0064333195170092755,
0.12204488778054863,0.02605955246538922,
0.12209476309226933,0.008559935557015359,
0.12214463840399002,0.019199051352789244,
0.12219451371571072,0.007325680072525957,
0.12224438902743143,0.02271831999406092,
0.12229426433915212,-0.006046728476628942,
0.12234413965087282,0.037643092769156256,
0.12239401496259351,0.026851526767717918,
0.12244389027431421,0.05231503899377804,
0.12249376558603492,0.01488840175314851,
0.12254364089775562,0.02427252046063534,
0.12259351620947631,0.03185349891856429,
0.122643391521197,-9.534763157760182e-05,
0.1226932668329177,0.05265982190691722,
0.1227431421446384,0.03177593402670456,
0.12279301745635911,0.028687965112127036,
0.1228428927680798,0.051458448717063204,
0.1228927680798005,0.012712778790469519,
0.1229426433915212,0.023618776577809742,
0.12299251870324189,0.03422221262202093,
0.1230423940149626,0.011911579335308307,
0.1230922693266833,0.01862765770344655,
0.12314214463840399,0.02950280951876388,
0.12319201995012469,0.023841757759206605,
0.12324189526184538,0.01483228782351485,
0.12329177057356608,0.02404286374073551,
0.12334164588528679,0.0064326374441146875,
0.12339152119700748,0.045675464494655864,
0.12344139650872818,0.02742896413459879,
0.12349127182044888,0.0060182954991304174,
0.12354114713216957,-0.002514384235126555,
0.12359102244389028,0.03726931266552851,
0.12364089775561098,0.024430809034555176,
0.12369077306733167,0.027513014626120557,
0.12374064837905237,0.03397229336775397,
0.12379052369077306,0.026794018141033424,
0.12384039900249376,0.022499253546958295,
0.12389027431421447,0.017119596294164534,
0.12394014962593516,0.014718275978616331,
0.12399002493765586,0.04051040962778487,
0.12403990024937656,0.013984344733249306,
0.12408977556109725,0.029540929047293076,
0.12413965087281796,0.03415463421809023,
0.12418952618453866,0.022677214705776102,
0.12423940149625935,0.02934600345477507,
0.12428927680798005,0.06762383649091676,
0.12433915211970074,0.018267912713742215,
0.12438902743142144,0.03535742178189842,
0.12443890274314215,0.03614846470237053,
0.12448877805486284,0.02362147149292991,
0.12453865336658354,0.029236909470074082,
0.12458852867830424,0.028278154474565092,
0.12463840399002493,0.0003358395542206183,
0.12468827930174564,0.014222994233028325,
0.12473815461346634,0.035817584734815826,
0.12478802992518703,0.021307388101110096,
0.12483790523690773,0.038717894548883094,
0.12488778054862842,0.0478547523540004,
0.12493765586034913,0.033065580996313855,
0.12498753117206983,0.0012976569921612988,
0.12503740648379053,0.029699755816179337,
0.12508728179551123,0.021804088654593712,
0.12513715710723192,0.011174401294497753,
0.12518703241895263,0.022982992274191656,
0.1252369077306733,0.020248783698994792,
0.12528678304239402,-0.019643435661564762,
0.1253366583541147,0.048347664314418975,
0.1253865336658354,0.03093367270282684,
0.12543640897755612,0.05367603657542255,
0.1254862842892768,0.03637917847042024,
0.1255361596009975,0.0261145319145134,
0.1255860349127182,0.038961863136403804,
0.1256359102244389,0.019805478809325365,
0.1256857855361596,0.024009919482575436,
0.1257356608478803,0.03457313848391641,
0.125785536159601,0.02840670171031033,
0.12583541147132168,0.007213781621047688,
0.1258852867830424,0.016362935248759192,
0.1259351620947631,0.01714748559503146,
0.12598503740648379,0.03884584699404405,
0.1260349127182045,0.018090251390834332,
0.12608478802992518,0.040888367476203565,
0.1261346633416459,0.04808983420353406,
0.1261845386533666,0.031441242327546914,
0.12623441396508728,0.026811262335612103,
0.126284289276808,0.03055626093108103,
0.12633416458852867,0.013410697212565333,
0.12638403990024938,0.022494827267517285,
0.1264339152119701,0.04034526850352233,
0.12648379052369077,0.038104098326561586,
0.12653366583541148,0.009243534379596494,
0.12658354114713216,-0.008977960345388225,
0.12663341645885287,0.035118526237381695,
0.12668329177057355,0.024811647198752708,
0.12673316708229426,0.026601788897098796,
0.12678304239401497,0.06103086404655898,
0.12683291770573565,0.03397150323978137,
0.12688279301745636,0.02222362372430671,
0.12693266832917705,0.013595977422335537,
0.12698254364089775,0.015524503850817488,
0.12703241895261846,0.028765820305619014,
0.12708229426433915,0.015707959246983857,
0.12713216957605986,0.008481478160002786,
0.12718204488778054,0.01810613422252398,
0.12723192019950125,0.027836368663342555,
0.12728179551122196,0.048506185660775636,
0.12733167082294264,0.05476906334444468,
0.12738154613466335,0.04757797713604896,
0.12743142144638403,0.03049399600446001,
0.12748129675810474,0.044144710071844506,
0.12753117206982545,0.02417047664976768,
0.12758104738154613,0.032252397763596216,
0.12763092269326684,0.02892517545864665,
0.12768079800498752,0.020180210551199004,
0.12773067331670823,0.04732627607411889,
0.1277805486284289,0.03928652333180979,
0.12783042394014962,0.008757265593932894,
0.12788029925187033,0.019856771491577455,
0.12793017456359101,0.02913019417051802,
0.12798004987531172,0.0026278745044440582,
0.1280299251870324,-0.0050013330647123155,
0.12807980049875312,-0.014737634593430915,
0.12812967581047383,0.016951553129321385,
0.1281795511221945,0.03162777210475087,
0.12822942643391522,0.01284759699285,
0.1282793017456359,0.02975109194286194,
0.1283291770573566,0.02213410992924714,
0.12837905236907732,0.05011987798335986,
0.128428927680798,0.02941999998382284,
0.1284788029925187,0.04670320550365718,
0.1285286783042394,0.028136714775368398,
0.1285785536159601,0.010706954335123475,
0.1286284289276808,0.0332659202904618,
0.1286783042394015,0.03463285857671366,
0.1287281795511222,0.028232002550815663,
0.12877805486284288,0.007909546553259489,
0.1288279301745636,0.00961830572636867,
0.1288778054862843,0.029051907291973093,
0.12892768079800498,0.013700744824804791,
0.1289775561097257,0.05163008982541746,
0.12902743142144638,-0.00677300014270673,
0.12907730673316709,0.005417592938914886,
0.12912718204488777,0.03283421973761126,
0.12917705735660848,0.01646183897792585,
0.1292269326683292,0.006256724135558557,
0.12927680798004987,0.018853565327808165,
0.12932668329177058,0.010851864708144214,
0.12937655860349126,0.0024428006570119034,
0.12942643391521197,-0.010323317096517778,
0.12947630922693268,0.04209492216769452,
0.12952618453865336,0.001912102253586118,
0.12957605985037407,0.01693365194764735,
0.12962593516209475,0.028154144673221804,
0.12967581047381546,-0.002209356666744232,
0.12972568578553617,0.019841360291089478,
0.12977556109725685,0.027632273887237987,
0.12982543640897756,0.033628310575994524,
0.12987531172069824,0.01843847281598734,
0.12992518703241895,-0.00691043906932938,
0.12997506234413966,-0.001261523792631664,
0.13002493765586035,0.03414744154335812,
0.13007481296758105,0.003933753507283112,
0.13012468827930174,0.012577580897003927,
0.13017456359102245,0.023474964779590126,
0.13022443890274316,-0.005094598279292813,
0.13027431421446384,0.0015030260251884201,
0.13032418952618455,0.01803588455427283,
0.13037406483790523,8.402562421702328e-06,
0.13042394014962594,-0.013169269662926858,
0.13047381546134662,0.018921598850085992,
0.13052369077306733,-0.010272948728623539,
0.13057356608478804,0.011164558247726978,
0.13062344139650872,-0.005816407870855559,
0.13067331670822943,0.007873274694686785,
0.1307231920199501,0.005865225150124199,
0.13077306733167082,0.004530086162550963,
0.13082294264339153,0.00931925777430168,
0.13087281795511221,-0.0007646090475359451,
0.13092269326683292,0.013537137772509282,
0.1309725685785536,0.007375466966656592,
0.13102244389027431,0.001842397101249134,
0.13107231920199502,0.008957565853847813,
0.1311221945137157,0.006289635501277285,
0.13117206982543642,-0.020791436324581115,
0.1312219451371571,-0.006188380882113563,
0.1312718204488778,6.748826274599867e-05,
0.13132169576059852,0.03377844492098391,
0.1313715710723192,0.005799634127476855,
0.1314214463840399,-0.01820535682190134,
0.1314713216957606,-0.007000928122698287,
0.1315211970074813,-0.012714004128852138,
0.13157107231920198,0.012074671661123526,
0.1316209476309227,-0.004516465347019931,
0.1316708229426434,0.015747790295624935,
0.13172069825436408,0.004454191490542559,
0.1317705735660848,-0.0017057944392950383,
0.13182044887780547,0.020051098884478338,
0.13187032418952618,0.02239048489596292,
0.1319201995012469,0.00982605792279932,
0.13197007481296757,-0.0036428004618429344,
0.13201995012468828,-0.018657048789807167,
0.13206982543640897,-0.0036445755489349077,
0.13211970074812968,0.008761892901350382,
0.13216957605985039,0.0004280737096485239,
0.13221945137157107,-0.007304678672992864,
0.13226932668329178,-0.0029675797148081065,
0.13231920199501246,0.005005171884297949,
0.13236907730673317,-0.008915628669630683,
0.13241895261845388,-0.007567293272600412,
0.13246882793017456,0.0036598796740996984,
0.13251870324189527,0.007019053529882701,
0.13256857855361595,-0.002208048444046474,
0.13261845386533666,-0.04765611073503828,
0.13266832917705737,0.010133639297205389,
0.13271820448877805,0.01988911219615593,
0.13276807980049876,0.0012046918534549846,
0.13281795511221944,0.016373149780240952,
0.13286783042394015,-0.0003449434138330077,
0.13291770573566083,0.01448883661840666,
0.13296758104738154,-0.02204560981672363,
0.13301745635910225,0.023030283601155544,
0.13306733167082294,-0.0027343550358455405,
0.13311720698254365,-0.0029999945801806255,
0.13316708229426433,-0.020039341322542446,
0.13321695760598504,0.00027886094317170797,
0.13326683291770575,0.01259287901492629,
0.13331670822942643,-0.006739498239369764,
0.13336658354114714,-0.011666397053792332,
0.13341645885286782,0.0014803147125938606,
0.13346633416458853,-0.028036747628752794,
0.13351620947630924,-0.00736748724753629,
0.13356608478802992,-0.0009145274606117606,
0.13361596009975063,0.01629226161056837,
0.1336658354114713,-0.009005504125279002,
0.13371571072319202,0.005670667308775461,
0.13376558603491273,0.008739549744963153,
0.1338154613466334,-0.014148571501513576,
0.13386533665835412,-0.01898518525160696,
0.1339152119700748,-0.03230648357836582,
0.13396508728179551,-0.002946193205916471,
0.1340149625935162,-0.025583509982134968,
0.1340648379052369,-0.02133574644140193,
0.13411471321695762,-0.020756958402727316,
0.1341645885286783,-0.02686449308612346,
0.134214463840399,-0.02260293678762672,
0.1342643391521197,-0.007931636808503685,
0.1343142144638404,-0.023584698631612493,
0.1343640897755611,-0.020170938026548048,
0.1344139650872818,-0.02663198164013125,
0.1344638403990025,-0.030640711400743093,
0.13451371571072318,0.009545074194930737,
0.1345635910224439,-0.013094389826122248,
0.1346134663341646,-0.021861636306076702,
0.13466334164588528,0.00124099346426409,
0.134713216957606,-0.00040263780574576434,
0.13476309226932667,-0.00807842269314369,
0.13481296758104738,0.006714593095197062,
0.1348628428927681,-0.000939978771743101,
0.13491271820448877,0.011796960734159158,
0.13496259351620948,0.0024368591841154065,
0.13501246882793017,-0.005988563143566446,
0.13506234413965088,-0.006836458133949944,
0.13511221945137158,-0.012996809998882542,
0.13516209476309227,-0.015974737264834032,
0.13521197007481298,-0.012740697947056148,
0.13526184538653366,0.02636620609346489,
0.13531172069825437,-0.02874191761651694,
0.13536159600997505,-0.0034458232121764307,
0.13541147132169576,-0.013191570013763705,
0.13546134663341647,-0.015186069172591668,
0.13551122194513715,0.008854955744733852,
0.13556109725685786,-0.03376495975631359,
0.13561097256857854,-0.01661530412214089,
0.13566084788029925,0.011403748047760757,
0.13571072319201996,-0.028105859936166194,
0.13576059850374064,-0.005987053979171191,
0.13581047381546135,-0.016152734088024596,
0.13586034912718203,0.009378772602502304,
0.13591022443890274,-0.010523165097305429,
0.13596009975062345,-0.02348952010454908,
0.13600997506234414,-0.027601874355544363,
0.13605985037406484,-0.012684141962363983,
0.13610972568578553,-0.03463959148201277,
0.13615960099750624,-0.025034108469957655,
0.13620947630922695,-0.0043390024877972425,
0.13625935162094763,0.0029088059242163324,
0.13630922693266834,-0.021118052672825294,
0.13635910224438902,-0.005874325466259819,
0.13640897755610973,0.0066702994117275646,
0.1364588528678304,-0.016302332280475222,
0.13650872817955112,-0.013522853641409645,
0.13655860349127183,-0.004981631907225311,
0.1366084788029925,-0.03401213290258273,
0.13665835411471322,-0.007304080714439933,
0.1367082294264339,-0.01560197310861934,
0.1367581047381546,-0.021697767906548208,
0.13680798004987532,0.024759082952137836,
0.136857855361596,0.016622004406806064,
0.1369077306733167,-0.0012879505550074518,
0.1369576059850374,-0.014727164332258874,
0.1370074812967581,-0.011853856426213196,
0.13705735660847881,-0.0003677440789547114,
0.1371072319201995,-0.005796668515899078,
0.1371571072319202,0.03734746311195834,
0.1372069825436409,0.000392905143319096,
0.1372568578553616,-0.007454522947911922,
0.1373067331670823,-0.003020700911356129,
0.137356608478803,-0.011729889245190498,
0.1374064837905237,-0.0074371306001337865,
0.13745635910224438,-0.013427247081328435,
0.1375062344139651,-0.017462184609696448,
0.1375561097256858,-0.022375897025013226,
0.13760598503740648,-0.013392660936417727,
0.1376558603491272,-0.023871256399434562,
0.13770573566084787,-0.011900264722457737,
0.13775561097256858,-0.0030043923923011094,
0.13780548628428926,0.0035750824832596713,
0.13785536159600997,-0.0017061606639487852,
0.13790523690773068,0.014968515320519335,
0.13795511221945136,-0.014882696343496276,
0.13800498753117207,0.0018960643842626176,
0.13805486284289276,-0.017556501031155424,
0.13810473815461347,0.023818662599021743,
0.13815461346633418,-0.008409186467160237,
0.13820448877805486,0.0009879141034461842,
0.13825436408977557,-0.006827239201104361,
0.13830423940149625,-0.017660541759002946,
0.13835411471321696,-0.009463065968007034,
0.13840399002493767,-0.014289374780919042,
0.13845386533665835,-0.0052858801964109385,
0.13850374064837906,0.003956122152324203,
0.13855361596009974,-0.023025602213482613,
0.13860349127182045,-0.0018076074857264744,
0.13865336658354116,-0.00793026593077374,
0.13870324189526184,0.002940305677721026,
0.13875311720698255,0.0016986020157134056,
0.13880299251870323,0.028095785321952428,
0.13885286783042394,0.008120806248488977,
0.13890274314214462,0.023196069887795615,
0.13895261845386533,0.002124258165955603,
0.13900249376558604,-0.02850529906350637,
0.13905236907730673,0.030788810907590176,
0.13910224438902744,-0.003896662554158768,
0.13915211970074812,0.0047644513540363006,
0.13920199501246883,-0.015118444734241919,
0.13925187032418954,0.008149364937315997,
0.13930174563591022,0.007556573562497488,
0.13935162094763093,-0.021969230984060877,
0.1394014962593516,0.008973437644185806,
0.13945137157107232,-0.005665172936094595,
0.13950124688279303,0.024282892277692182,
0.1395511221945137,-0.010698864601233923,
0.13960099750623442,0.01272518411917482,
0.1396508728179551,-0.012684456354967677,
0.1397007481296758,0.01774602137260601,
0.13975062344139652,0.001518824740113358,
0.1398004987531172,0.002913581820941386,
0.1398503740648379,0.03710756140629841,
0.1399002493765586,-0.004615787434110507,
0.1399501246882793,-0.004013573954609301,
0.14,0.0047929711067817,
0.1400498753117207,-0.023788517924959708,
0.1400997506234414,0.024650610019421575,
0.1401496259351621,0.006508604655180937,
0.1401995012468828,-0.010821769722584468,
0.14024937655860348,-0.0035770118501605806,
0.1402992518703242,-0.0018253817841663005,
0.1403491271820449,0.048049095602784364,
0.14039900249376558,-0.01602891456036415,
0.1404488778054863,0.004552810414020973,
0.14049875311720697,0.010429886083930879,
0.14054862842892768,-0.0008281257873486662,
0.1405985037406484,0.038586140167696195,
0.14064837905236907,0.026654339596189035,
0.14069825436408978,0.01934453883346863,
0.14074812967581046,-0.00147441343214769,
0.14079800498753117,0.030475833846349748,
0.14084788029925188,0.027438731062883824,
0.14089775561097256,0.005526472270117015,
0.14094763092269327,0.02223741700560068,
0.14099750623441396,-0.012509421828534624,
0.14104738154613466,0.009751161817080564,
0.14109725685785537,0.02211031854987857,
0.14114713216957606,0.030554125255599078,
0.14119700748129677,0.022507749998604346,
0.14124688279301745,0.02617257499877989,
0.14129675810473816,0.007646126950923657,
0.14134663341645887,0.007566098723188093,
