time,amplitude,label
0.0,-0.006850837673078231,
4.987531172069826e-05,0.009879164669784245,
9.975062344139652e-05,-0.004303600321930334,
0.00014962593516209475,-0.006499286681498857,
0.00019950124688279303,-0.0033302032624638214,
0.00024937655860349125,0.009748675194576369,
0.0002992518703241895,0.015956384860557643,
0.00034912718204488776,0.02940920215144689,
0.00039900249376558606,0.01800511968668431,
0.0004488778054862843,0.01644413246733121,
0.0004987531172069825,-0.0017095801588586684,
0.0005486284289276808,0.021408698338586683,
0.000598503740648379,0.00638158053464631,
0.0006483790523690773,0.01236564376802951,
0.0006982543640897755,0.011340913010495212,
0.0007481296758104738,-0.029639727022640536,
0.0007980049875311721,0.010779103191057342,
0.0008478802992518703,-5.536216800087644e-05,
0.0008977556109725686,-0.0208093133650857,
0.0009476309226932668,-9.776587128750252e-05,
0.000997506234413965,0.025019593975812708,
0.0010473815461346633,0.004622753280164222,
0.0010972568578553616,-0.008205664302069366,
0.00114713216957606,-0.0193413321574408,
0.001197007481296758,0.02224057773724479,
0.0012468827930174563,0.016447932026349987,
0.0012967581047381546,0.00594939507460583,
0.001346633416458853,0.015273879625845572,
0.001396508728179551,0.015022429922759721,
0.0014463840399002493,-0.0005287558327430634,
0.0014962593516209476,0.005428850346191772,
0.001546134663341646,0.006210936298654754,
0.0015960099750623442,-0.0025926636306555905,
0.0016458852867830423,0.01235309240108424,
0.0016957605985037406,0.013195298199925463,
0.001745635910224439,-0.013330086184393165,
0.0017955112219451373,-0.014243537742912316,
0.0018453865336658353,0.006905895087953409,
0.0018952618453865336,0.007128669772823263,
0.001945137157107232,-0.01682185457982061,
0.00199501246882793,0.0027188839711990323,
0.0020448877805486283,-0.0034014942732827416,
0.0020947630922693266,0.021823289214853846,
0.002144638403990025,0.011510481431344088,
0.0021945137157107233,0.015248579904653337,
0.0022443890274314216,-0.007133713496560435,
0.00229426433915212,0.01905131980645006,
0.0023441396508728177,-0.016793863952870317,
0.002394014962593516,-0.005239917304441671,
0.0024438902743142144,-0.0019099758668668036,
0.0024937655860349127,-0.002758211914420102,
0.002543640897755611,0.009522004712665576,
0.0025935162094763093,0.02890191573552251,
0.0026433915211970076,0.022521135279865233,
0.002693266832917706,0.00914929271756018,
0.002743142144638404,0.007619593010292832,
0.002793017456359102,-0.016584789810129244,
0.0028428927680798004,0.02064883748991135,
0.0028927680798004987,-0.01188700102799188,
0.002942643391521197,-0.002299791224292117,
0.0029925187032418953,0.02253496436235803,
0.0030423940149625936,0.0337805370221949,
0.003092269326683292,0.018341538044743443,
0.00314214463840399,0.013030650684482028,
0.0031920199501246885,0.03390126148271127,
0.0032418952618453864,0.010628786599044092,
0.0032917705735660847,0.010098183171811295,
0.003341645885286783,0.020513908214373065,
0.0033915211970074813,0.015859585690197135,
0.0034413965087281796,0.012512578142201363,
0.003491271820448878,-0.007250089920818199,
0.003541147132169576,0.007097494560542828,
0.0035910224438902745,0.037692819960660484,
0.0036408977556109724,0.057760422233652756,
0.0036907730673316707,0.039145788283311646,
0.003740648379052369,0.0004914448907187164,
0.0037905236907730673,-0.0001040558178131059,
0.0038403990024937656,0.02733767908015395,
0.003890274314214464,0.010238793187686444,
0.003940149625935162,0.010941009171057673,
0.00399002493765586,-0.014530299240989327,
0.004039900249376558,0.02168532742281088,
0.004089775561097257,0.005114971731730698,
0.004139650872817955,0.026936024164729407,
0.004189526184538653,0.02365986790577234,
0.004239401496259352,0.003581425956333071,
0.00428927680798005,0.02285472940881919,
0.004339152119700748,0.01969044693856113,
0.0043890274314214465,0.026512815705448042,
0.004438902743142145,0.012748418604137942,
0.004488778054862843,0.03105995053552598,
0.004538653366583541,0.033929157306563124,
0.00458852867830424,0.021177532267076436,
0.004638403990024938,-0.0008747343981005545,
0.0046882793017456355,0.04327117740076904,
0.004738154613466334,0.041335690637680104,
0.004788029925187032,0.03970854364072472,
0.00483790523690773,0.011181306438003837,
0.004887780548628429,0.01395424612528638,
0.004937655860349127,0.03890842749552765,
0.004987531172069825,0.00456147468034207,
0.005037406483790524,0.028712600377307655,
0.005087281795511222,0.015956514282727145,
0.00513715710723192,0.017206799354990313,
0.0051870324189526185,0.0133396882646055,
0.005236907730673317,0.015065601576813855,
0.005286783042394015,0.012246934847962156,
0.0053366583541147134,0.04092349138074415,
0.005386533665835412,0.02124474569329797,
0.00543640897755611,0.03962869087138907,
0.005486284289276808,0.01714125729408523,
0.005536159600997507,0.004429699747537359,
0.005586034912718204,-0.020954448949344846,
0.005635910224438902,0.022263613689456844,
0.005685785536159601,0.01037781969734032,
0.005735660847880299,0.050581937557513,
0.005785536159600997,0.05176012516066969,
0.005835411471321696,-0.0026289528268651184,
0.005885286783042394,0.010056179405056577,
0.005935162094763092,0.0030629440824522063,
0.0059850374064837905,0.04964778629399814,
0.006034912718204489,0.003598053695062834,
0.006084788029925187,0.024648575105508174,
0.0061346633416458855,-0.002478236885699276,
0.006184538653366584,0.01821941714454929,
0.006234413965087282,0.017734614675822095,
0.00628428927680798,0.03587072306670047,
0.006334164588528679,0.042063331434852365,
0.006384039900249377,0.020343342123356176,
0.006433915211970074,0.020463252297761032,
0.006483790523690773,0.01752192897282122,
0.006533665835411471,0.05853389277215105,
0.006583541147132169,0.04046313319625233,
0.006633416458852868,0.041385467759565225,
0.006683291770573566,0.03245045223595307,
0.006733167082294264,-0.010953504228893112,
0.0067830423940149626,0.022320016329453747,
0.006832917705735661,0.03549206154062701,
0.006882793017456359,0.017551454709920603,
0.0069326683291770575,0.022929223178928634,
0.006982543640897756,0.043942589865019914,
0.007032418952618454,0.03190148556623551,
0.007082294264339152,0.017579175300217877,
0.007132169576059851,0.05517786491349133,
0.007182044887780549,0.038832230721678795,
0.007231920199501247,0.03272556783323808,
0.007281795511221945,0.012199580224366437,
0.007331670822942643,0.02206193867686025,
0.007381546134663341,0.02726119483900583,
0.00743142144638404,0.06071944077948614,
0.007481296758104738,0.018707137515388012,
0.007531172069825436,0.01203419490047581,
0.007581047381546135,0.006433817729817179,
0.007630922693266833,0.023064749345572802,
0.007680798004987531,0.047376328921742254,
0.0077306733167082295,0.00828071778323605,
0.007780548628428928,0.02966855771247439,
0.007830423940149626,-0.02100177965395488,
0.007880299251870324,0.011820016080661761,
0.007930174563591023,0.023716429036882376,
0.00798004987531172,0.02419547588156771,
0.00802992518703242,0.0034857205527959872,
0.008079800498753117,0.009615761299189788,
0.008129675810473816,0.04301486050618976,
0.008179551122194513,0.018083178278528744,
0.008229426433915213,0.00739012968503267,
0.00827930174563591,-0.015026948365355296,
0.00832917705735661,0.021095581926821823,
0.008379052369077307,0.01734265921080739,
0.008428927680798006,0.03496880029248696,
0.008478802992518703,0.03138684332191764,
0.0085286783042394,-0.0033154338919467383,
0.0085785536159601,0.005334674968061125,
0.008628428927680797,0.02649722469272213,
0.008678304239401496,-0.00897790360152614,
0.008728179551122194,0.019519889990479905,
0.008778054862842893,0.01512737556664132,
0.00882793017456359,-0.00834958624938466,
0.00887780548628429,0.013661713791783579,
0.008927680798004987,0.024548344753453268,
0.008977556109725686,-0.020366915204536398,
0.009027431421446384,0.010125076375926812,
0.009077306733167083,-0.012533544380775627,
0.00912718204488778,-0.010120807324100367,
0.00917705735660848,0.03064999256336593,
0.009226932668329177,0.03308381487266512,
0.009276807980049876,0.017591161869180715,
0.009326683291770574,0.018785762185942956,
0.009376558603491271,0.018594427066202616,
0.00942643391521197,0.026017940620912474,
0.009476309226932668,0.042605868170405514,
0.009526184538653367,-0.004806402323710976,
0.009576059850374064,0.017558412176593294,
0.009625935162094763,0.013421019227830537,
0.00967581047381546,0.014266308202750943,
0.00972568578553616,-0.008288719787544672,
0.009775561097256857,0.01198717980320727,
0.009825436408977557,0.005211090480071974,
0.009875311720698254,0.010798619221599831,
0.009925187032418953,-0.003255486856604895,
0.00997506234413965,0.01648336160829635,
0.01002493765586035,-0.011202357461995759,
0.010074812967581047,0.008761361372941284,
0.010124688279301746,0.006783936672517489,
0.010174563591022444,0.018775971215345223,
0.010224438902743141,0.039079795712420845,
0.01027431421446384,0.024134642654270736,
0.010324189526184538,0.007762198853604732,
0.010374064837905237,0.02494698846291985,
0.010423940149625935,-0.015567949415767345,
0.010473815461346634,0.021713508270789376,
0.010523690773067331,0.026421567003072986,
0.01057356608478803,0.03350909670925436,
0.010623441396508728,0.005524911725745485,
0.010673316708229427,0.009559684058026834,
0.010723192019950124,-0.0031443318168420933,
0.010773067331670824,-0.005483516435057076,
0.010822942643391521,-0.004117824686756613,
0.01087281795511222,-0.036899250831895596,
0.010922693266832918,0.019294259585036534,
0.010972568578553617,0.015278149095208068,
0.011022443890274314,-0.011015378758743349,
0.011072319201995013,-0.019654657314734356,
0.01112219451371571,0.026810862486541374,
0.011172069825436408,0.010104355238361964,
0.011221945137157107,-0.00830192966516259,
0.011271820448877805,0.004413555103646678,
0.011321695760598504,-0.009164389067193893,
0.011371571072319201,-0.030803932390340162,
0.0114214463840399,-0.014833846619809523,
0.011471321695760598,-0.003487580246615099,
0.011521197007481297,0.007772138697843779,
0.011571072319201995,-0.019568911364682907,
0.011620947630922694,0.02198766007275666,
0.011670822942643391,-0.006991334542154468,
0.01172069825436409,-0.005085202119089336,
0.011770573566084788,0.0011838087022909894,
0.011820448877805487,-0.06318450348895273,
0.011870324189526184,0.015138167515738685,
0.011920199501246884,0.018232799862010842,
0.011970074812967581,-0.023695942406568297,
0.012019950124688279,-0.023704333843855837,
0.012069825436408978,-0.03128376632814571,
0.012119700748129675,-0.02721118329212677,
0.012169576059850374,-0.0009407019534510373,
0.012219451371571072,-0.013381851950703677,
0.012269326683291771,-0.0006031048403019341,
0.012319201995012468,-0.016034014374788925,
0.012369077306733168,-0.004311780502994963,
0.012418952618453865,-0.013273264754253694,
0.012468827930174564,-0.023980944939687332,
0.012518703241895262,-0.014449884109550216,
0.01256857855361596,-0.015684534588240033,
0.012618453865336658,-0.008997621162212463,
0.012668329177057357,-0.00707889363849351,
0.012718204488778055,-0.01600466110295701,
0.012768079800498754,-0.013888421139284918,
0.012817955112219451,-0.02027361248777739,
0.012867830423940149,-2.642026650297169e-06,
0.012917705735660848,0.002445099864518673,
0.012967581047381545,-0.011191462082029615,
0.013017456359102245,0.012451196548487066,
0.013067331670822942,-0.00943978615546193,
0.013117206982543641,-0.014753918407909968,
0.013167082294264339,-0.028566389271829015,
0.013216957605985038,-0.011887940219008877,
0.013266832917705735,-0.026984167840050755,
0.013316708229426434,-0.01779479224784964,
0.013366583541147132,0.0022906876040198927,
0.013416458852867831,-0.014226847896529494,
0.013466334164588529,-0.0018559668000728193,
0.013516209476309228,-0.013443038111176218,
0.013566084788029925,0.014859970949024007,
0.013615960099750624,-0.01258689746795256,
0.013665835411471322,-0.050421736817420404,
0.01371571072319202,-0.008251612730795234,
0.013765586034912718,-0.005608419963493929,
0.013815461346633416,0.007790160956828078,
0.013865336658354115,0.0006133975643581487,
0.013915211970074812,-0.03818114747539697,
0.013965087281795512,-0.014338387074302813,
0.014014962593516209,-0.024146283655031103,
0.014064837905236908,-0.006477012938112916,
0.014114713216957606,-0.0218208949506729,
0.014164588528678305,-0.042782138412041065,
0.014214463840399002,-0.033988379014839455,
0.014264339152119701,-0.018309650572078274,
0.014314214463840399,-0.029116488825286717,
0.014364089775561098,-0.035377232408612354,
0.014413965087281795,-0.0015220080758155188,
0.014463840399002495,-0.025408661914677888,
0.014513715710723192,-0.0049356108670914195,
0.01456359102244389,-0.019063988957611817,
0.014613466334164589,-0.017917165943677395,
0.014663341645885286,-0.03243634875914369,
0.014713216957605985,-0.02809698828554711,
0.014763092269326683,-0.008355077975109149,
0.014812967581047382,-0.013474446708997506,
0.01486284289276808,-0.005028402892227193,
0.014912718204488778,-0.03766611362999366,
0.014962593516209476,-0.005414752349342819,
0.015012468827930175,0.002217357860032857,
0.015062344139650873,-0.026009315342556523,
0.015112219451371572,-0.04217812381843416,
0.01516209476309227,-0.014978019216828915,
0.015211970074812968,-0.030820461626289552,
0.015261845386533666,-0.013860559174054427,
0.015311720698254365,-0.015857079007911272,
0.015361596009975062,-0.002814092435548145,
0.01541147132169576,-0.03540044568204117,
0.015461346633416459,0.001849113974605271,
0.015511221945137156,-0.01493261391454312,
0.015561097256857856,-0.014577556192354664,
0.015610972568578553,-0.01787568723117771,
0.015660847880299252,0.008529594518275983,
0.01571072319201995,-0.013263495435999475,
0.015760598503740647,-0.030439997354062925,
0.015810473815461346,-0.020122102817632655,
0.015860349127182045,-0.013550307790785716,
0.015910224438902745,-0.02348325012065322,
0.01596009975062344,-0.013375988598616472,
0.01600997506234414,-0.019658411206745153,
0.01605985037406484,-0.01130019516075032,
0.016109725685785538,-0.01060995068187971,
0.016159600997506234,-0.03547437371156374,
0.016209476309226933,-0.020215197226406304,
0.016259351620947632,-0.03491618206506994,
0.016309226932668328,-0.009540692767835873,
0.016359102244389027,-0.03477694485255778,
0.016408977556109726,-0.03283399548276365,
0.016458852867830425,-0.012161431931266044,
0.01650872817955112,-0.012815587500417155,
0.01655860349127182,-0.015780866527309527,
0.01660847880299252,-0.008798589571640487,
0.01665835411471322,0.003272521338165347,
0.016708229426433914,-0.012533970608825086,
0.016758104738154613,0.006160161802398371,
0.016807980049875312,-0.02784228917798757,
0.01685785536159601,-0.002732282616654671,
0.016907730673316707,-0.003982619307098666,
0.016957605985037406,-0.05395284270784918,
0.017007481296758106,-0.027640053567978703,
0.0170573566084788,-0.0233813571315155,
0.0171072319201995,-0.017643718515319227,
0.0171571072319202,-0.016325071018838042,
0.0172069825436409,-0.017325844723829267,
0.017256857855361595,-0.009493729395914856,
0.017306733167082294,-0.03544067207688808,
0.017356608478802993,-0.0015779754957186178,
0.017406483790523692,-0.012795454693013698,
0.017456359102244388,-0.026482779344807764,
0.017506234413965087,-0.024595502911871674,
0.017556109725685786,0.0017177880932689044,
0.017605985037406485,-0.0556974996010629,
0.01765586034912718,-0.0219813984903442,
0.01770573566084788,-0.05129929831533073,
0.01775561097256858,-0.020019433698394852,
0.01780548628428928,-0.007212157365139506,
0.017855361596009974,-0.04878377542718233,
0.017905236907730673,-0.02790725937220287,
0.017955112219451373,-0.01172216676358065,
0.018004987531172068,-0.03119496922978748,
0.018054862842892767,0.0023591791832652392,
0.018104738154613467,-0.006161798511171414,
0.018154613466334166,-0.027010076825070846,
0.01820448877805486,-0.0049498217333568025,
0.01825436408977556,-0.0024765685084774235,
0.01830423940149626,-0.014969098260105444,
0.01835411471321696,-0.02676235354101502,
0.018403990024937655,-0.031722173789819695,
0.018453865336658354,0.010553293056111678,
0.018503740648379053,-0.021331641541534926,
0.018553615960099752,-0.005392657391113059,
0.018603491271820448,0.008717671265151687,
0.018653366583541147,-0.00662085515607989,
0.018703241895261846,-0.016157905198308772,
0.018753117206982542,-0.019834156235204667,
0.01880299251870324,-0.009934888272730097,
0.01885286783042394,-0.029827223309173014,
0.01890274314214464,0.0012571369001207078,
0.018952618453865335,0.011088980052184998,
0.019002493765586034,-0.032976919176594614,
0.019052369077306733,-0.022150476840056502,
0.019102244389027433,-0.0034267774199535344,
0.01915211970074813,-0.028237026300331862,
0.019201995012468828,-0.011361637314450284,
0.019251870324189527,-0.025434182070926615,
0.019301745635910226,-0.005501329537757027,
0.01935162094763092,-0.0221693492764126,
0.01940149625935162,-0.01434599813629703,
0.01945137157107232,-0.006558980354494528,
0.01950124688279302,-0.03709676797086112,
0.019551122194513715,-0.007608071422508262,
0.019600997506234414,-0.009348223404296623,
0.019650872817955113,-0.002560797045945358,
0.01970074812967581,-0.021544409811491163,
0.019750623441396508,-0.0032469895656182073,
0.019800498753117207,-0.03510368468125624,
0.019850374064837906,0.0010760821116027322,
0.019900249376558602,0.008179181106930873,
0.0199501246882793,0.012736720783957819,
0.02,-0.01829451280910347,
0.0200498753117207,-0.003970588354259814,
0.020099750623441395,-0.0007221176926707103,
0.020149625935162094,-0.00428579429615182,
0.020199501246882794,0.002972405568168964,
0.020249376558603493,-0.00020101701411662492,
0.02029925187032419,0.04614764110385402,
0.020349127182044888,-0.014445461952763286,
0.020399002493765587,-0.02835110540618361,
0.020448877805486283,0.022560764890618923,
0.02049875311720698,-0.006555109151766245,
0.02054862842892768,0.005438670296683219,
0.02059850374064838,-0.0029917993764694197,
0.020648379052369076,0.006374150697656032,
0.020698254364089775,-0.00967201673739139,
0.020748129675810474,0.018357709251480062,
0.020798004987531173,-0.02267298222875841,
0.02084788029925187,0.005597134168593023,
0.020897755610972568,0.0016365307541007614,
0.020947630922693267,-0.01737813307843994,
0.020997506234413967,0.012024155370235576,
0.021047381546134662,-0.016627636100925963,
0.02109725685785536,-0.007023336385719692,
0.02114713216957606,0.0037009375436299263,
0.02119700748129676,-0.005081830176274808,
0.021246882793017455,0.010210589750068987,
0.021296758104738155,0.022412056334918995,
0.021346633416458854,-0.0023516601761460376,
0.02139650872817955,-0.038561911273507464,
0.02144638403990025,-0.0033706131441594888,
0.021496259351620948,-0.004929379192181318,
0.021546134663341647,0.0140863372632636,
0.021596009975062343,0.023922788969070134,
0.021645885286783042,-0.019466287141303308,
0.02169576059850374,-0.027798795062375144,
0.02174563591022444,-0.011399353784657689,
0.021795511221945136,-0.019313169031908127,
0.021845386533665835,-0.017787006531821713,
0.021895261845386534,0.00214350884673147,
0.021945137157107233,0.026353184022682368,
0.02199501246882793,0.0036786310343826564,
0.02204488778054863,0.0036881859592435445,
0.022094763092269327,-0.010968265936192708,
0.022144638403990027,0.004963743617446194,
0.022194513715710722,0.010347407011072465,
0.02224438902743142,0.020601055307719274,
0.02229426433915212,0.007379331078117404,
0.022344139650872816,-0.021544426066148537,
0.022394014962593516,5.603134044896915e-05,
0.022443890274314215,0.0016323738095401193,
0.022493765586034914,0.0026046314511063914,
0.02254364089775561,0.005669368435463507,
0.02259351620947631,-0.005487476743149176,
0.022643391521197008,0.014787757464234493,
0.022693266832917707,0.002419192160619754,
0.022743142144638403,0.015923524950057923,
0.022793017456359102,-0.001328288195132794,
0.0228428927680798,0.051851819680675704,
0.0228927680798005,-0.004913088918826313,
0.022942643391521196,0.0036558086062491654,
0.022992518703241895,0.012914166426579152,
0.023042394014962594,0.024704180957377635,
0.02309226932668329,0.030486026495588365,
0.02314214463840399,0.021241946692033314,
0.02319201995012469,0.02659156201415186,
0.023241895261845388,0.023126060783435397,
0.023291770573566083,0.02902943259314164,
0.023341645885286783,0.004664068000271656,
0.02339152119700748,0.035938225213268435,
0.02344139650872818,0.024810509299303347,
0.023491271820448877,0.0016553323933317932,
0.023541147132169576,0.0020697761706215297,
0.023591022443890275,0.017410070884849322,
0.023640897755610974,0.022891294537445404,
0.02369077306733167,0.013176372951540925,
0.02374064837905237,0.025142476575098403,
0.023790523690773068,0.04531440914111718,
0.023840399002493767,0.005881338748245982,
0.023890274314214463,0.023958664034643917,
0.023940149625935162,0.011961015886660934,
0.02399002493765586,0.01514171094562059,
0.024039900249376557,0.02356858521842603,
0.024089775561097256,-0.0015324184329487886,
0.024139650872817955,0.03643636771040119,
0.024189526184538655,0.04373627893524076,
0.02423940149625935,0.025652009154641185,
0.02428927680798005,0.008101559959902162,
0.02433915211970075,0.01618068831839705,
0.024389027431421448,0.027035932351195426,
0.024438902743142144,0.025478265402384598,
0.024488778054862843,0.018739331531802215,
0.024538653366583542,0.022462646548533576,
0.02458852867830424,-0.0014848579391106426,
0.024638403990024937,0.014223172866346893,
0.024688279301745636,0.015476425778059657,
0.024738154613466335,0.022165649444888077,
0.02478802992518703,0.036382184679278506,
0.02483790523690773,0.024282478737807773,
0.02488778054862843,0.05233420490699235,
0.02493765586034913,0.03195977826748729,
0.024987531172069824,0.009751222239390112,
0.025037406483790523,0.024052592508263984,
0.025087281795511222,0.047931409095610604,
0.02513715710723192,-0.0006659765811369428,
0.025187032418952617,-7.872609694125135e-05,
0.025236907730673316,0.019500191164757777,
0.025286783042394016,0.020940289127909996,
0.025336658354114715,0.007574221937317315,
0.02538653366583541,0.014367328421371603,
0.02543640897755611,0.021398079736311647,
0.02548628428927681,0.02775814651225162,
0.025536159600997508,0.014794357571069554,
0.025586034912718204,0.007131190052395774,
0.025635910224438903,-0.0007608454974468437,
0.025685785536159602,0.0014477030012843908,
0.025735660847880298,0.01878437181138325,
0.025785536159600997,0.02742215357086551,
0.025835411471321696,0.02454785168486636,
0.025885286783042395,0.020758824268047822,
0.02593516209476309,0.029440203196518404,
0.02598503740648379,0.034538926854110405,
0.02603491271820449,0.04159391250740074,
0.02608478802992519,0.04732111035502055,
0.026134663341645884,0.011087041548068974,
0.026184538653366583,0.033497129937097504,
0.026234413965087282,0.010755515153556224,
0.02628428927680798,0.032339637781471246,
0.026334164588528677,0.021456783001969983,
0.026384039900249377,0.02186172136504034,
0.026433915211970076,0.020414098726653552,
0.02648379052369077,0.035692417386578155,
0.02653366583541147,0.04263502005718703,
0.02658354114713217,0.033455342523148864,
0.02663341645885287,0.015036805073727283,
0.026683291770573565,0.028335628799151084,
0.026733167082294264,-0.0023099141271059817,
0.026783042394014963,0.022800910706543845,
0.026832917705735662,0.02764366272652666,
0.026882793017456358,0.004088500110141696,
0.026932668329177057,0.012337331874608665,
0.026982543640897756,0.02430294155075653,
0.027032418952618455,0.03639980536347095,
0.02708229426433915,0.003888640405585418,
0.02713216957605985,0.029661084084118855,
0.02718204488778055,0.051345626724596014,
0.02723192019950125,0.02552553899172518,
0.027281795511221944,0.014010641893536516,
0.027331670822942643,0.04156554063494592,
0.027381546134663343,0.02815187348373346,
0.02743142144638404,0.05881506061297516,
0.027481296758104738,0.021828306278235364,
0.027531172069825437,-0.006614324678551241,
0.027581047381546136,0.02300741167882931,
0.02763092269326683,0.02307351892401533,
0.02768079800498753,0.043848196559915176,
0.02773067331670823,0.026242443133790903,
0.02778054862842893,0.03606829778834937,
0.027830423940149625,0.018332385210448773,
0.027880299251870324,-0.006076430073099357,
0.027930174563591023,0.010435336124706316,
0.027980049875311722,0.017330330088064925,
0.028029925187032418,-0.009341478701054656,
0.028079800498753117,0.031416504782354256,
0.028129675810473816,0.04316056540529497,
0.028179551122194512,0.04278092343093628,
0.02822942643391521,0.009426232334522614,
0.02827930174563591,0.011942342460254118,
0.02832917705735661,0.0031792504392628568,
0.028379052369077305,0.008666122685509458,
0.028428927680798004,0.017850077245701073,
0.028478802992518704,0.028452712195675543,
0.028528678304239403,0.011810232908021152,
0.0285785536159601,-0.0025425343265479267,
0.028628428927680798,0.0010716561686319424,
0.028678304239401497,0.03580607386289829,
0.028728179551122196,0.009989390055331726,
0.02877805486284289,-0.006672110059958332,
0.02882793017456359,-0.01922516334140955,
0.02887780548628429,0.03086389117740174,
0.02892768079800499,-0.002810907833505266,
0.028977556109725685,-0.0020071633826910067,
0.029027431421446384,0.015463589109535056,
0.029077306733167083,0.024729901559257583,
0.02912718204488778,0.025752630663753093,
0.029177057356608478,0.02991342687426378,
0.029226932668329177,-0.006822445962519363,
0.029276807980049877,-0.00047376759564594223,
0.029326683291770572,-0.012875142312996532,
0.02937655860349127,-0.009605262543617179,
0.02942643391521197,-5.968912402978116e-06,
0.02947630922693267,0.00437713093384717,
0.029526184538653365,0.010953523892356517,
0.029576059850374065,0.015844112279218992,
0.029625935162094764,-0.012657170967992208,
0.029675810473815463,-0.005402515841528394,
0.02972568578553616,0.005862846870999982,
0.029775561097256858,0.011913965320196193,
0.029825436408977557,0.009302434471869693,
0.029875311720698253,0.03502833651975991,
0.029925187032418952,0.0366706202755086,
0.02997506234413965,-0.0011112911699111168,
0.03002493765586035,0.04192047523546495,
0.030074812967581046,-0.016340696756079322,
0.030124688279301745,0.01569539261702528,
0.030174563591022444,0.03942700494445987,
0.030224438902743143,-0.009276296132462884,
0.03027431421446384,0.015675968638882327,
0.03032418952618454,0.01802853602707061,
0.030374064837905237,-0.0006970423225760962,
0.030423940149625937,-0.006813325691637515,
0.030473815461346632,0.026617497504700917,
0.03052369077306733,0.03840538645757157,
0.03057356608478803,0.015774246550367688,
0.03062344139650873,0.012896710579331824,
0.030673316708229426,0.009154748960775894,
0.030723192019950125,0.018943268841153993,
0.030773067331670824,-0.013254090466591713,
0.03082294264339152,0.004052505678773513,
0.03087281795511222,0.022056876787689403,
0.030922693266832918,0.00363908522648022,
0.030972568578553617,0.012605259753325585,
0.031022443890274313,0.023238122784358058,
0.031072319201995012,0.00599510289133508,
0.03112219451371571,-0.005296283556906886,
0.03117206982543641,-0.0008240358549479309,
0.031221945137157106,0.03019866035804792,
0.03127182044887781,0.021292749807420425,
0.031321695760598504,-0.010708646883690024,
0.0313715710723192,0.024319715700471135,
0.0314214463840399,0.01758649007791418,
0.0314713216957606,0.01157294777996727,
0.031521197007481294,0.006400415423116231,
0.031571072319202,0.009756942388510104,
0.03162094763092269,0.01219635143599717,
0.03167082294264339,0.023979047673643342,
0.03172069825436409,0.028789031525937665,
0.03177057356608479,-0.022548190002268906,
0.03182044887780549,-0.01901192966648766,
0.031870324189526185,-0.008196658963826165,
0.03192019950124688,-0.00940428052099862,
0.03197007481296758,-0.004164035473744738,
0.03201995012468828,-0.013722539303482556,
0.032069825436408975,-0.005049624620711101,
0.03211970074812968,-0.009394283014022339,
0.03216957605985037,-0.015845209356057002,
0.032219451371571076,0.014223251627926346,
0.03226932668329177,0.010967882286859226,
0.03231920199501247,0.010185231067320128,
0.03236907730673317,-0.008207197291304303,
0.032418952618453865,-0.028008983588369663,
0.03246882793017456,-0.008220672730910386,
0.032518703241895264,-0.024528770661831296,
0.03256857855361596,0.00020032261368961406,
0.032618453865336655,0.014063321127127045,
0.03266832917705736,0.009861714882388866,
0.032718204488778053,-0.01768671290729417,
0.032768079800498756,0.014086987861476202,
0.03281795511221945,-0.02333247696267436,
0.03286783042394015,0.00972706926075074,
0.03291770573566085,0.01590558100654093,
0.032967581047381546,0.007032936712917829,
0.03301745635910224,-0.008300024452695213,
0.033067331670822944,-0.01674730810670331,
0.03311720698254364,-0.01065331884346903,
0.03316708229426434,-0.040108294008675334,
0.03321695760598504,0.006593037052600873,
0.033266832917705734,-0.022388795524942863,
0.03331670822942644,-0.0311996353581168,
0.03336658354114713,0.0008111372948121486,
0.03341645885286783,-0.013597201924054005,
0.03346633416458853,-0.013146099189728701,
0.033516209476309226,-0.03828105068165859,
0.03356608478802992,-0.018343090961130425,
0.033615960099750625,-0.015349365268495677,
0.03366583541147132,-0.045648770832141625,
0.03371571072319202,-0.0078050306979031165,
0.03376558603491272,-0.037713944528683735,
0.033815461346633414,-0.0016116942313579036,
0.03386533665835412,0.013159858900802414,
0.03391521197007481,-0.020408582791642378,
0.03396508728179551,-0.019283409495191008,
0.03401496259351621,-0.027533851772313052,
0.03406483790523691,-0.04004671121270325,
0.0341147132169576,0.005988909198220774,
0.034164588528678305,-0.012955239061487909,
0.034214463840399,-0.020345092813052357,
0.034264339152119704,0.0006767940448209175,
0.0343142144638404,-0.03536585644584322,
0.034364089775561095,-0.03301153799942261,
0.0344139650872818,-0.03193572202392313,
0.03446384039900249,-0.025353256589298843,
0.03451371571072319,-0.012808633926317682,
0.03456359102244389,-0.029939334947525195,
0.03461346633416459,-0.03346813070614384,
0.03466334164588529,-0.006168790100549167,
0.034713216957605986,-0.021351802973198015,
0.03476309226932668,-0.02788430875878569,
0.034812967581047384,0.0009239097389030209,
0.03486284289276808,-0.005008859458956197,
0.034912718204488775,-0.010084216863673934,
0.03496259351620948,-0.016714338232669903,
0.035012468827930174,-0.02462036301922206,
0.03506234413965087,0.0011762351486093552,
0.03511221945137157,-0.03707254107463123,
0.03516209476309227,0.010781054025226621,
0.03521197007481297,0.0027072085181419694,
0.035261845386533666,-0.02557384257601756,
0.03531172069825436,-0.008885062549655244,
0.035361596009975065,-0.024725911250817655,
0.03541147132169576,-0.011861467771724688,
0.035461346633416456,-0.017479772901750058,
0.03551122194513716,-0.025097575397046608,
0.035561097256857854,-0.012265882610072248,
0.03561097256857856,-0.009893146501390651,
0.03566084788029925,-0.009501385713622879,
0.03571072319201995,-0.011980420691314882,
0.03576059850374065,-0.012446239229958356,
0.03581047381546135,0.006492428251236006,
0.03586034912718204,-0.01741150344237608,
0.035910224438902745,0.0009643914358135781,
0.03596009975062344,0.005322534827351885,
0.036009975062344136,-0.024499561428475255,
0.03605985037406484,-0.023367692678892965,
0.036109725685785535,0.0013075297875934366,
0.03615960099750624,-0.04652573856893637,
0.03620947630922693,-0.023820601543167858,
0.03625935162094763,0.00629120360615977,
0.03630922693266833,-0.0242070505104917,
0.03635910224438903,0.030480512120943867,
0.03640897755610972,-0.015810972137854862,
0.036458852867830426,-0.018800082546651376,
0.03650872817955112,0.011617026196169212,
0.036558603491271824,-0.00323718476402483,
0.03660847880299252,-0.016611181555669027,
0.036658354114713215,-0.03691125811934901,
0.03670822942643392,-0.0370844681022014,
0.036758104738154614,-0.03940298534812413,
0.03680798004987531,-0.021754903878940385,
0.03685785536159601,-0.024799034160500527,
0.03690773067331671,-0.007975393136927193,
0.0369576059850374,-0.011781484570836331,
0.037007481296758106,-0.022974367905205795,
0.0370573566084788,-0.00323919720744713,
0.037107231920199504,-0.00563889130540887,
0.0371571072319202,-0.052452459982396824,
0.037206982543640896,-0.022112965092283852,
0.0372568578553616,-0.02543375257127273,
0.037306733167082294,-0.03394478066161504,
0.03735660847880299,-0.03671888087122946,
0.03740648379052369,-0.030809318607613753,
0.03745635910224439,-0.018710437139633083,
0.037506234413965084,-0.0029491052393859907,
0.037556109725685786,0.004708589310667179,
0.03760598503740648,-0.016656178573054504,
0.037655860349127185,-0.00827412800509886,
0.03770573566084788,-0.03994036797122362,
0.037755610972568576,-0.059426160699666275,
0.03780548628428928,0.0056859884396888265,
0.037855361596009975,-0.009594750218494388,
0.03790523690773067,-0.008870374993379176,
0.03795511221945137,-0.019708286402718336,
0.03800498753117207,-0.005397890264818524,
0.03805486284289277,0.004866036592067937,
0.03810473815461347,0.0011524196424826487,
0.03815461346633416,0.0009309238569983423,
0.038204488778054865,-0.031527262878373014,
0.03825436408977556,-0.0007986502301588032,
0.03830423940149626,0.003816735591461942,
0.03835411471321696,-0.019024028601565213,
0.038403990024937655,-0.02390001886630503,
0.03845386533665835,-0.0188018945192225,
0.03850374064837905,-0.01308095993043387,
0.03855361596009975,0.018038982276118377,
0.03860349127182045,-0.005604693289998987,
0.03865336658354115,-0.007683380532912036,
0.03870324189526184,-0.020354589940034678,
0.038753117206982546,-0.022968158214728925,
0.03880299251870324,-0.028801531468718687,
0.03885286783042394,-0.03388225558386288,
0.03890274314214464,-0.048227884606088775,
0.038952618453865336,-0.005267131193104308,
0.03900249376558604,-0.010353454465843343,
0.039052369077306734,0.0017642179425175243,
0.03910224438902743,-0.004550861824078626,
0.03915211970074813,-0.011542345562931818,
0.03920199501246883,0.0008345049351352139,
0.039251870324189524,-0.02581641703634455,
0.039301745635910226,0.015271451338310045,
0.03935162094763092,-0.039847654869569496,
0.03940149625935162,-0.01762602265337839,
0.03945137157107232,-0.01971622780720144,
0.039501246882793016,-3.34009285322635e-05,
0.03955112219451372,-0.012224791979517516,
0.039600997506234414,-0.014687213352541728,
0.03965087281795511,-0.030654126435770628,
0.03970074812967581,0.00701559000351051,
0.03975062344139651,-0.03396590562564798,
0.039800498753117204,0.00358778906147573,
0.03985037406483791,-0.01759909763976699,
0.0399002493765586,-0.029288238417688933,
0.039950124688279305,-0.004324042051374762,
0.04,-0.03641603796285414,
0.0400498753117207,-0.009764258257147268,
0.0400997506234414,-0.020485999674964298,
0.040149625935162095,0.009943844828206752,
0.04019950124688279,0.026721452643586247,
0.04024937655860349,-0.0029113645830007107,
0.04029925187032419,-0.017885249490960743,
0.040349127182044885,-0.014486245126491253,
0.04039900249376559,-0.0015272832322331125,
0.04044887780548628,-0.0008997678014573865,
0.040498753117206986,-0.016457563073877447,
0.04054862842892768,0.016725449176915118,
0.04059850374064838,-0.012262543055506718,
0.04064837905236908,-0.03724559290112317,
0.040698254364089775,0.012616572592134244,
0.04074812967581047,0.008711832805916482,
0.040798004987531174,0.02184545891083375,
0.04084788029925187,-0.010567475012918397,
0.040897755610972565,0.009719344501471376,
0.04094763092269327,0.0014273221387735321,
0.04099750623441396,0.010754720414143663,
0.041047381546134666,0.015450479492352705,
0.04109725685785536,0.011610327987591842,
0.04114713216957606,-0.007768157514654981,
0.04119700748129676,-0.00429093011422579,
0.041246882793017456,0.002830428888072931,
0.04129675810473815,0.0003394715550897455,
0.041346633416458854,0.0207134833569156,
0.04139650872817955,0.011639846474716517,
0.04144638403990025,0.00568454964038028,
0.04149625935162095,0.014962586904860646,
0.041546134663341644,-0.022194582658822792,
0.04159600997506235,0.015256348299401506,
0.04164588528678304,0.009437272812889743,
0.04169576059850374,0.014160141537636076,
0.04174563591022444,0.004301912289037358,
0.041795511221945136,0.04839726113811589,
0.04184538653366583,0.01316336600232066,
0.041895261845386535,0.010928934070207246,
0.04194513715710723,-0.013941395921100492,
0.04199501246882793,-0.017187228341386748,
0.04204488778054863,0.003951524240021822,
0.042094763092269324,0.004435510964017785,
0.04214463840399003,0.016033665078889807,
0.04219451371571072,0.021577406415429753,
0.04224438902743142,-0.0008641263368735774,
0.04229426433915212,0.033415213442507904,
0.04234413965087282,-0.0013062756994531109,
0.04239401496259352,0.03305901971517441,
0.042443890274314215,-0.0028685032120256537,
0.04249376558603491,0.008825641497340274,
0.042543640897755614,-0.03584772136976466,
0.04259351620947631,0.013746878760801544,
0.042643391521197005,0.0015270235114769708,
0.04269326683291771,0.003674098861404169,
0.0427431421446384,0.01880288426546792,
0.0427930174563591,0.022389184123720474,
0.0428428927680798,-0.0017206391861020864,
0.0428927680798005,-0.0012665064868901278,
0.0429426433915212,0.019637966040663698,
0.042992518703241896,0.032762532175059006,
0.04304239401496259,0.009383139948737539,
0.043092269326683294,0.020831192293489675,
0.04314214463840399,0.0006972212277200889,
0.043192019950124685,0.00017703311127930006,
0.04324189526184539,-0.0004495986849997538,
0.043291770573566084,0.05232991896724954,
0.043341645885286786,0.009569149715454977,
0.04339152119700748,0.016018216826027602,
0.04344139650872818,0.002334669731069071,
0.04349127182044888,-0.004072103749244393,
0.043541147132169576,0.02942103163357279,
0.04359102244389027,0.04378839233814484,
0.043640897755610975,0.013421397533167628,
0.04369077306733167,0.010112091769016184,
0.043740648379052366,0.011328970375251584,
0.04379052369077307,0.022854601885036532,
0.043840399002493764,0.018851557672209165,
0.04389027431421447,0.02857390814327741,
0.04394014962593516,0.006165321433422995,
0.04399002493765586,0.008217662971022728,
0.04403990024937656,0.010663194908873788,
0.04408977556109726,0.020135011473005407,
0.04413965087281795,0.001358924352079207,
0.044189526184538655,0.04064257865819744,
0.04423940149625935,0.015385232425926171,
0.04428927680798005,0.022749439816703385,
0.04433915211970075,0.012557496171418742,
0.044389027431421445,0.02244387856306467,
0.04443890274314215,0.021865322894779236,
0.04448877805486284,0.028480161924050427,
0.04453865336658354,0.03815723374707576,
0.04458852867830424,-0.005767107141141845,
0.04463840399002494,0.04940172231033013,
0.04468827930174563,0.02687341329652195,
0.044738154613466335,0.01669481610635728,
0.04478802992518703,0.020588037909510092,
0.044837905236907734,0.041225861193810776,
0.04488778054862843,0.027245795727513216,
0.044937655860349125,0.041057317800429385,
0.04498753117206983,0.015190387030025197,
0.045037406483790524,0.019789676395522128,
0.04508728179551122,0.04844515622358124,
0.04513715710723192,0.015618195524974988,
0.04518703241895262,0.04692587815336456,
0.04523690773067331,0.00017366616728902232,
0.045286783042394016,0.037720020469598416,
0.04533665835411471,0.0010220262844762296,
0.045386533665835414,0.03638029730698361,
0.04543640897755611,0.03293098961684094,
0.045486284289276806,0.052748979175313175,
0.04553615960099751,0.024600901919570043,
0.045586034912718204,0.020472721587856027,
0.0456359102244389,0.0369526059366884,
0.0456857855361596,0.02695485155676279,
0.0457356608478803,0.03861544375639306,
0.045785536159601,0.04537787918667954,
0.045835411471321696,0.026184275545449717,
0.04588528678304239,0.01948276360143776,
0.045935162094763095,0.024086794172236286,
0.04598503740648379,0.022484142950138574,
0.046034912718204486,0.0012579140190526021,
0.04608478802992519,0.024616969370345822,
0.046134663341645885,0.022992540408755,
0.04618453865336658,0.007013628631770824,
0.04623441396508728,0.01645183863268318,
0.04628428927680798,0.023430563982577656,
0.04633416458852868,0.03713037090330826,
0.04638403990024938,-1.8193637554789893e-05,
0.04643391521197007,0.014851259145861141,
0.046483790523690775,0.021405312883474966,
0.04653366583541147,0.030109261989827867,
0.04658354114713217,0.031809933988907156,
0.04663341645885287,0.02697950876704957,
0.046683291770573565,0.05072562947413718,
0.04673316708229427,0.02591898774752475,
0.04678304239401496,0.03697671669431285,
0.04683291770573566,0.055085905444869715,
0.04688279301745636,0.03290600265500622,
0.04693266832917706,0.011664422246651786,
0.04698254364089775,0.029750201346675324,
0.047032418952618456,0.03557021697913991,
0.04708229426433915,0.021350384116994938,
0.04713216957605985,0.020909063428638245,
0.04718204488778055,0.03338098880456312,
0.047231920199501246,0.035380386628171556,
0.04728179551122195,0.015299376198789919,
0.047331670822942644,0.00629725800246456,
0.04738154613466334,0.06200093309441585,
0.04743142144638404,0.017389398831109,
0.04748129675810474,0.01694539917724651,
0.047531172069825434,0.0107944829950026,
0.047581047381546136,0.006434060727801564,
0.04763092269326683,0.010132019222203808,
0.047680798004987535,0.004360080428463309,
0.04773067331670823,0.016068768599390187,
0.047780548628428926,0.02155909451212271,
0.04783042394014963,0.02020066867598686,
0.047880299251870324,0.03142639607514992,
0.04793017456359102,0.024664082937617206,
0.04798004987531172,0.044286444227893226,
0.04802992518703242,0.029086105966356954,
0.048079800498753114,0.013730439870435046,
0.04812967581047382,0.010003852601695635,
0.04817955112219451,0.01102228239902584,
0.048229426433915215,0.043898865663523134,
0.04827930174563591,0.04309545628926025,
0.048329177057356607,0.028839406430118016,
0.04837905236907731,0.017573423378037616,
0.048428927680798005,0.02006572478199768,
0.0484788029925187,0.02205903541130537,
0.0485286783042394,0.0006287621096907926,
0.0485785536159601,0.0307615877631566,
0.048628428927680795,0.019278986880541808,
0.0486783042394015,0.008872809682683249,
0.04872817955112219,0.019610419595875957,
0.048778054862842896,0.024694436825977693,
0.04882793017456359,0.025668909633663233,
0.04887780548628429,-0.006719455023038379,
0.04892768079800499,-0.0021824567929288954,
0.048977556109725685,0.02693381234317478,
0.04902743142144638,0.013050574911095552,
0.049077306733167084,0.018752279342657763,
0.04912718204488778,0.023083980555630594,
0.04917705735660848,0.024186115641579915,
0.04922693266832918,-0.002366204716695906,
0.04927680798004987,0.028172229632130015,
0.049326683291770576,0.023295186993093315,
0.04937655860349127,0.03307678468355415,
0.04942643391521197,0.014281760427148528,
0.04947630922693267,0.01382176686263083,
0.049526184538653366,0.015451568553426947,
0.04957605985037406,0.00437630145780415,
0.049625935162094764,0.010605951606872766,
0.04967581047381546,0.02445987089519661,
0.04972568578553616,0.002574638283120597,
0.04977556109725686,0.020839809851661797,
0.049825436408977554,0.016292460875053684,
0.04987531172069826,0.006809285785566158,
0.04992518703241895,0.014003195245963393,
0.04997506234413965,0.016476274132071544,
0.05002493765586035,0.019359586398858264,
0.050074812967581046,-0.014463252519505473,
0.05012468827930175,-0.008085684794586271,
0.050174563591022445,0.00539630387136219,
0.05022443890274314,0.0052735292689671835,
0.05027431421446384,-0.006228854363750846,
0.05032418952618454,-0.011939466502754714,
0.050374064837905234,-0.0014013618162793291,
0.05042394014962594,-0.0011212868274793567,
0.05047381546134663,0.007800991441142506,
0.05052369077306733,0.022086501242517008,
0.05057356608478803,0.017818420510314514,
0.05062344139650873,0.017094490206124174,
0.05067331670822943,0.012331145524564484,
0.050723192019950125,0.028633291396774577,
0.05077306733167082,0.004106913975770279,
0.050822942643391524,-0.00983551268991662,
0.05087281795511222,0.011009734453038801,
0.050922693266832915,0.008238035502166913,
0.05097256857855362,0.005631846836608261,
0.05102244389027431,0.0012000020313881494,
0.051072319201995016,0.015360585655918526,
0.05112219451371571,-0.008562668225739423,
0.05117206982543641,-0.017363836887913923,
0.05122194513715711,-0.008217078709385843,
0.051271820448877806,0.002019796808469266,
0.0513216957605985,0.02048451696348452,
0.051371571072319204,-0.02358509841162487,
0.0514214463840399,0.013482673181059333,
0.051471321695760595,0.012425271421437163,
0.0515211970074813,-0.0073718232593902215,
0.051571072319201994,0.015351394939703127,
0.051620947630922696,0.009495166346016366,
0.05167082294264339,-0.008898673880260527,
0.05172069825436409,-0.005651217833954359,
0.05177057356608479,-0.011510150030261821,
0.051820448877805486,-0.004828649990675787,
0.05187032418952618,0.006166495603573076,
0.051920199501246884,-0.014660164153045035,
0.05197007481296758,-0.022623947456800467,
0.052019950124688276,0.005990771529846621,
0.05206982543640898,-0.007140548719953039,
0.052119700748129674,-0.0017053954592516532,
0.05216957605985038,0.01785226419979012,
0.05221945137157107,-0.0034989707337647244,
0.05226932668329177,-0.027400947273793334,
0.05231920199501247,0.020961665368495083,
0.05236907730673317,0.005763576804479414,
0.05241895261845386,0.0067732643311200665,
0.052468827930174565,-0.004475122766333032,
0.05251870324189526,0.03178821820737569,
0.05256857855361596,-0.012707639449029594,
0.05261845386533666,-0.0058501595642061425,
0.052668329177057355,-0.00486444626251252,
0.05271820448877806,0.0015796791471664436,
0.05276807980049875,-0.007335719646699898,
0.05281795511221945,-0.010045296041985381,
0.05286783042394015,0.02229364719873818,
0.05291770573566085,-0.004117603901303765,
0.05296758104738154,-0.013539297220868912,
0.053017456359102245,-0.034270860990427164,
0.05306733167082294,-0.006571889161849337,
0.053117206982543644,-0.024420939101143378,
0.05316708229426434,0.0028772184298352455,
0.053216957605985035,-0.015428813656409022,
0.05326683291770574,0.012696111583958135,
0.053316708229426434,-0.01565079403147187,
0.05336658354114713,9.477388194950413e-05,
0.05341645885286783,0.013608837848153945,
0.05346633416458853,3.603753860115938e-05,
0.05351620947630923,-0.003635786823827177,
0.053566084788029926,0.0029880988118564152,
0.05361596009975062,0.0034412502908175557,
0.053665835411471324,-0.007291087754512045,
0.05371571072319202,-0.032080059629988306,
0.053765586034912716,-0.011606730739868421,
0.05381546134663342,-0.010519181634385564,
0.053865336658354114,-0.01825748647551039,
0.05391521197007481,-0.00016729351886203385,
0.05396508728179551,-0.020318834834078696,
0.05401496259351621,0.02218349793035952,
0.05406483790523691,-0.023896540498737906,
0.054114713216957606,-0.032889508620577615,
0.0541645885286783,-0.023030428326739228,
0.054214463840399005,0.009655103666350074,
0.0542643391521197,-0.023160195927481857,
0.054314214463840396,-0.022052155882126043,
0.0543640897755611,-0.017899174963901452,
0.054413965087281795,-0.018384747029957935,
0.0544638403990025,-0.030798049330582382,
0.05451371571072319,-0.02903149984384749,
0.05456359102244389,0.0122566815377246,
0.05461346633416459,-0.0079231282486023,
0.05466334164588529,0.009512329186830579,
0.05471321695760598,-0.002728338537506328,
0.054763092269326685,0.0032246087832828556,
0.05481296758104738,-0.011066766181890692,
0.05486284289276808,-0.04102655531452614,
0.05491271820448878,-0.018479686263925623,
0.054962593516209475,-0.01801561256938286,
0.05501246882793018,-0.002347752294511826,
0.05506234413965087,-0.024752773267454873,
0.05511221945137157,-0.02705952591045862,
0.05516209476309227,-0.008441100397408828,
0.05521197007481297,-0.031182591633783383,
0.05526184538653366,-0.019853248660705106,
0.055311720698254366,-0.008446347371547515,
0.05536159600997506,-0.019903518829679567,
0.05541147132169576,-0.014256005720090455,
0.05546134663341646,-0.020245928936868923,
0.055511221945137156,-0.024415884791458287,
0.05556109725685786,-0.01037439226402427,
0.055610972568578554,-0.02088338203485364,
0.05566084788029925,-0.021952646311953948,
0.05571072319201995,-0.009940393270114466,
0.05576059850374065,0.0013307894107100118,
0.055810473815461344,-0.02845120084253527,
0.055860349127182046,0.002047348318552935,
0.05591022443890274,-0.04337641748899534,
0.055960099750623445,0.00853867915136311,
0.05600997506234414,-0.004282961080328204,
0.056059850374064836,-0.021730722880517292,
0.05610972568578554,-0.02660276124897908,
0.056159600997506234,-0.014601166288765583,
0.05620947630922693,-0.03474950732331611,
0.05625935162094763,0.00485370513242666,
0.05630922693266833,-0.022504414141284998,
0.056359102244389024,-0.020210230656969173,
0.05640897755610973,-0.017591881930658537,
0.05645885286783042,-0.003405207731007125,
0.056508728179551125,-0.03709265848728546,
0.05655860349127182,-0.026245966512924157,
0.056608478802992516,-0.028633613221665917,
0.05665835411471322,0.010198630126832284,
0.056708229426433915,-0.006171800803613148,
0.05675810473815461,0.009878876224034187,
0.05680798004987531,-0.003403229048201298,
0.05685785536159601,-0.030534031280406423,
0.05690773067331671,-0.014841537453857603,
0.05695760598503741,-0.006598110545856009,
0.0570074812967581,-0.0056001879313693995,
0.057057356608478806,-0.0186150284617624,
0.0571072319201995,-0.0037149512478957484,
0.0571571072319202,0.004147545080573623,
0.0572069825436409,-0.027551647498056067,
0.057256857855361595,-0.022392974728460687,
0.05730673316708229,-0.02889115945862584,
0.057356608478802994,-0.0056854975290136205,
0.05740648379052369,-0.006953675099812829,
0.05745635910224439,-0.007769477538659129,
0.05750623441396509,-0.05076820307256288,
0.05755610972568578,-0.018265207828713315,
0.057605985037406486,-0.01670483590046294,
0.05765586034912718,-0.001993141372457598,
0.05770573566084788,-0.02602236253554223,
0.05775561097256858,-0.029905927625782983,
0.057805486284289276,-0.02291025458355058,
0.05785536159600998,-0.025781607112147747,
0.057905236907730674,-0.013328886899235634,
0.05795511221945137,-0.03064211027117309,
0.05800498753117207,-0.014034673210014375,
0.05805486284289277,-0.004806541752967946,
0.058104738154613464,0.001902312201592725,
0.05815461346633417,-0.00832911538082637,
0.05820448877805486,-0.0011878821531006133,
0.05825436408977556,-0.02898780121955165,
0.05830423940149626,-0.02108695228933903,
0.058354114713216956,-0.0323552388697015,
0.05840399002493766,-0.04350995829956827,
0.058453865336658355,0.0041738086662514995,
0.05850374064837905,-0.011946979199675111,
0.05855361596009975,0.0010589717000615614,
0.05860349127182045,-0.007470582549008552,
0.058653366583541144,-0.02218245689013424,
0.05870324189526185,-0.020629769115474726,
0.05875311720698254,0.02222938581261277,
0.05880299251870324,-0.017318921115901914,
0.05885286783042394,0.008669896614463391,
0.05890274314214464,-0.02792516851125282,
0.05895261845386534,-0.03103291665213351,
0.059002493765586035,-0.007069884253462214,
0.05905236907730673,-0.030412353440759658,
0.059102244389027433,0.002980363401105343,
0.05915211970074813,-0.013912761879390868,
0.059201995012468825,-0.019477288053524708,
0.05925187032418953,-0.013775977522832081,
0.05930174563591022,-0.01758391670193971,
0.059351620947630926,-0.00622694243388389,
0.05940149625935162,0.007514932501475595,
0.05945137157107232,-0.014642985459045427,
0.05950124688279302,-0.014790192655912653,
0.059551122194513716,-0.00014049509711993972,
0.05960099750623441,0.0007739913245627681,
0.059650872817955114,-0.0008265379478517411,
0.05970074812967581,0.0033230674452571626,
0.059750623441396505,-0.009731364669564046,
0.05980049875311721,-0.01597663501083434,
0.059850374064837904,0.0029043079144678947,
0.059900249376558606,0.005994434316758149,
0.0599501246882793,0.01119913153856701,
0.06,0.004293831292094141,
0.0600498753117207,-0.01543014306397078,
0.060099750623441396,0.016636538113283188,
0.06014962593516209,-0.002819035143091273,
0.060199501246882794,-0.012147061094361674,
0.06024937655860349,0.0023657778709203657,
0.06029925187032419,0.00943734721814804,
0.06034912718204489,0.024034664899499993,
0.060399002493765584,0.003389897011301531,
0.06044887780548629,0.005130219012645815,
0.06049875311720698,-0.018323287304761512,
0.06054862842892768,0.014639981834336107,
0.06059850374064838,0.0029393707114422803,
0.06064837905236908,-0.0009842687599789512,
0.06069825436408977,-0.018795256327175526,
0.060748129675810475,0.013549373527399357,
0.06079800498753117,-0.0142910482385443,
0.06084788029925187,0.013202466290705777,
0.06089775561097257,-0.0016160727600128292,
0.060947630922693265,-0.00813435197450673,
0.06099750623441397,-0.012484431191672092,
0.06104738154613466,-0.0007105824945679872,
0.06109725685785536,-0.022585482023926143,
0.06114713216957606,-0.0012262969740447771,
0.06119700748129676,-0.013271913219990078,
0.06124688279301746,-0.030099909533249435,
0.061296758104738155,0.010760054668128788,
0.06134663341645885,0.03811110023674997,
0.061396508728179554,-0.0044696630788336016,
0.06144638403990025,-0.022260634102705876,
0.061496259351620945,0.005406059085201875,
0.06154613466334165,0.016103223605481366,
0.061596009975062344,-0.023615847640311865,
0.06164588528678304,0.004876925031636872,
0.06169576059850374,-0.010786284438038104,
0.06174563591022444,-0.0033372945755360955,
0.06179551122194514,0.005071356210768194,
0.061845386533665836,-0.00787332649303361,
0.06189526184538653,0.01958332553135419,
0.061945137157107234,0.009648586479234653,
0.06199501246882793,0.02887823273271557,
0.062044887780548626,0.020476344678943454,
0.06209476309226933,0.0027330684936562755,
0.062144638403990024,0.014897106686928247,
0.06219451371571072,-0.002980278250108973,
0.06224438902743142,0.03440555447679816,
0.06229426433915212,0.035590083691216634,
0.06234413965087282,0.013942444779495784,
0.062394014962593516,0.005546440856977329,
0.06244389027431421,0.04113019738605953,
0.062493765586034915,0.025855124216028376,
0.06254364089775562,0.003138053909003697,
0.06259351620947631,0.03549563743838885,
0.06264339152119701,0.015191727884450067,
0.0626932668329177,0.0044125755731033705,
0.0627431421446384,-0.008253395922784455,
0.0627930174563591,0.032347444982461664,
0.0628428927680798,0.030446706752092788,
0.0628927680798005,0.01987450257555474,
0.0629426433915212,0.02070005793920749,
0.06299251870324189,-0.00664960447548749,
0.06304239401496259,0.028215007924994824,
0.0630922693266833,-0.016792045730010398,
0.063142144638404,-0.003837018017933541,
0.06319201995012469,0.023120843766601985,
0.06324189526184539,0.018985291123664066,
0.06329177057356608,0.013590311775709263,
0.06334164588528678,-0.015434363493214864,
0.06339152119700749,0.022809055884634406,
0.06344139650872818,0.023378256067307666,
0.06349127182044888,0.03918845557448217,
0.06354114713216957,0.020665847380320436,
0.06359102244389027,0.01698235262565004,
0.06364089775561098,-0.0001727147353948362,
0.06369077306733167,0.00610526771165576,
0.06374064837905237,0.00744575103113637,
0.06379052369077307,-0.0026697289727329633,
0.06384039900249376,0.021920966280385985,
0.06389027431421446,-0.005050159462939036,
0.06394014962593517,0.022572166473214805,
0.06399002493765586,0.017944159684463033,
0.06403990024937656,0.03171539417196788,
0.06408977556109725,0.042156871113254765,
0.06413965087281795,0.03755631866308319,
0.06418952618453866,0.0030929012956247143,
0.06423940149625935,0.03760388000313988,
0.06428927680798005,-0.00212547161529519,
0.06433915211970075,0.02494608628536844,
0.06438902743142144,0.037253871541685336,
0.06443890274314215,0.04216928210789697,
0.06448877805486285,-0.0004571473032706705,
0.06453865336658354,0.008650626144821084,
0.06458852867830424,0.02493027788323779,
0.06463840399002493,0.034776942162523805,
0.06468827930174563,0.01336245818019918,
0.06473815461346634,0.0339567537239089,
0.06478802992518704,0.009057637798702755,
0.06483790523690773,-0.0007281211159913814,
0.06488778054862843,0.038523203323570565,
0.06493765586034912,0.015569453525066059,
0.06498753117206983,0.025233948442104377,
0.06503740648379053,0.02500072817524337,
0.06508728179551122,0.03156002656690721,
0.06513715710723192,0.024495432980182738,
0.06518703241895261,0.03696120012658538,
0.06523690773067331,0.022120897269606914,
0.06528678304239402,0.028074377409200248,
0.06533665835411472,0.0397540460506482,
0.06538653366583541,0.030545746676201718,
0.06543640897755611,0.049315400257983505,
0.0654862842892768,0.026087823374575825,
0.06553615960099751,0.03524941345556463,
0.06558603491271821,0.038795012601136956,
0.0656359102244389,0.028866077018560022,
0.0656857855361596,0.04881563898326694,
0.0657356608478803,0.050490556026475675,
0.06578553615960099,0.015712384818019273,
0.0658354114713217,0.02714032552900686,
0.0658852867830424,0.020566881802764916,
0.06593516209476309,0.026328413942131364,
0.06598503740648379,0.024786665915752338,
0.06603491271820448,0.020021493668647,
0.06608478802992519,0.014366766743956948,
0.06613466334164589,0.028819810696404866,
0.06618453865336658,0.038353076350021456,
0.06623441396508728,0.01930563228810038,
0.06628428927680798,0.011596353379798025,
0.06633416458852869,0.05081054107443252,
0.06638403990024938,0.031096383341876286,
0.06643391521197008,0.018280161514315416,
0.06648379052369077,0.018993627744764346,
0.06653366583541147,0.0034471479132642396,
0.06658354114713216,0.019514411740954356,
0.06663341645885287,0.04622830778130224,
0.06668329177057357,-0.005497272431598185,
0.06673316708229426,0.015786053712288396,
0.06678304239401496,0.03464892828002721,
0.06683291770573566,0.008672876957105564,
0.06688279301745637,0.015571547898805261,
0.06693266832917706,0.011261469931623193,
0.06698254364089776,0.011575065349420747,
0.06703241895261845,0.013038736455030349,
0.06708229426433915,0.011747867964341314,
0.06713216957605984,0.018737776444513198,
0.06718204488778055,0.006175440608038117,
0.06723192019950125,-0.023217648456787882,
0.06728179551122195,0.04611464913364145,
0.06733167082294264,0.05180392324073613,
0.06738154613466334,0.010119605245880674,
0.06743142144638405,0.055137588892044724,
0.06748129675810474,0.030138964133432266,
0.06753117206982544,0.02140824558577226,
0.06758104738154613,0.009741890793137654,
0.06763092269326683,0.02940082942634888,
0.06768079800498752,0.0034317439610821905,
0.06773067331670823,0.026449998957859645,
0.06778054862842893,0.04227758011360549,
0.06783042394014963,0.008076444334792588,
0.06788029925187032,0.03789630930381967,
0.06793017456359102,0.041182681487491754,
0.06798004987531173,0.03055953544310621,
0.06802992518703242,0.007083951015635229,
0.06807980049875312,0.0006689666102843335,
0.06812967581047381,0.00044083513152271686,
0.06817955112219451,0.029526999462653143,
0.0682294264339152,0.02252961311676444,
0.06827930174563591,0.016331482128288582,
0.06832917705735661,0.01941244160048462,
0.0683790523690773,0.039015775505772114,
0.068428927680798,-0.008085871274939684,
0.0684788029925187,0.004127600908120751,
0.06852867830423941,0.041174649864925486,
0.0685785536159601,0.021214967172750992,
0.0686284289276808,0.0074381604558087355,
0.0686783042394015,0.04610276314394819,
0.06872817955112219,-0.0035498039722755524,
0.0687780548628429,0.018970135721884714,
0.0688279301745636,-0.001346717435091599,
0.06887780548628429,8.63218954333736e-06,
0.06892768079800499,0.02071136548344565,
0.06897755610972568,-0.003743244561261211,
0.06902743142144638,0.015679647038702407,
0.06907730673316709,0.005326863154009308,
0.06912718204488778,0.019307506519343032,
0.06917705735660848,0.04760461014197036,
0.06922693266832917,0.0022733326066423348,
0.06927680798004987,0.009575758662582258,
0.06932668329177058,0.0007339761404305464,
0.06937655860349128,-0.007770597548217115,
0.06942643391521197,0.014019723891718834,
0.06947630922693267,0.005523955757938296,
0.06952618453865336,-0.004905257378820478,
0.06957605985037406,0.021552329931111523,
0.06962593516209477,-0.012920288741792536,
0.06967581047381546,0.03543252073039944,
0.06972568578553616,-0.011121648810684552,
0.06977556109725686,0.001193526242928105,
0.06982543640897755,0.016120649472687994,
0.06987531172069826,0.03659673233726997,
0.06992518703241896,0.02324569855965515,
0.06997506234413965,0.024807062711066384,
0.07002493765586035,0.018797225325552693,
0.07007481296758104,0.013221880574991818,
0.07012468827930174,-0.01392810550024983,
0.07017456359102245,0.022693486874496453,
0.07022443890274314,0.01187916991141197,
0.07027431421446384,0.029779605445569915,
0.07032418952618454,0.008852437221619672,
0.07037406483790523,-0.004075433874526876,
0.07042394014962594,0.000458562752301302,
0.07047381546134664,-0.002160840247573806,
0.07052369077306733,0.021602782271230504,
0.07057356608478803,0.014147984334475028,
0.07062344139650872,-0.002513137311944136,
0.07067331670822943,0.009812802039861826,
0.07072319201995013,0.024095278317748745,
0.07077306733167082,0.0075026472357454035,
0.07082294264339152,0.009134917847768997,
0.07087281795511222,0.02619674361263495,
0.07092269326683291,-0.009424893473865121,
0.07097256857855362,0.040619406764982956,
0.07102244389027432,-0.005626434298438938,
0.07107231920199501,-0.02058620890007609,
0.07112219451371571,0.006925824395478478,
0.0711720698254364,0.0027581891280794952,
0.07122194513715711,0.0216575715619734,
0.07127182044887781,0.01501941147612553,
0.0713216957605985,0.013387081296094363,
0.0713715710723192,0.022347488077495092,
0.0714214463840399,0.029061705060173536,
0.07147132169576059,0.02276729500856428,
0.0715211970074813,0.017757108734512132,
0.071571072319202,0.03188925640139886,
0.0716209476309227,0.013064780237919581,
0.07167082294264339,0.017739340566994267,
0.07172069825436408,-0.01087807867105596,
0.0717705735660848,-0.0055589722905248435,
0.07182044887780549,0.010574228476080399,
0.07187032418952619,0.034507555349058326,
0.07192019950124688,-0.008719146086297635,
0.07197007481296758,0.0009244820396762041,
0.07201995012468827,0.0012966524307528341,
0.07206982543640898,0.0020188568708175794,
0.07211970074812968,-0.009935739654473847,
0.07216957605985037,-0.0038249673160915404,
0.07221945137157107,-0.005770966027587395,
0.07226932668329177,0.0009183673787634861,
0.07231920199501247,-0.011873454426430645,
0.07236907730673317,-0.00871792134940102,
0.07241895261845387,-0.0018536095738783105,
0.07246882793017456,-0.003760141632208693,
0.07251870324189526,-0.03614038244261669,
0.07256857855361595,0.010551232756819446,
0.07261845386533666,-0.0066970269553666955,
0.07266832917705736,0.008917911589077029,
0.07271820448877805,0.002507099292085124,
0.07276807980049875,-0.021789695604890243,
0.07281795511221945,0.002162014547457441,
0.07286783042394016,-0.017774448985831436,
0.07291770573566085,0.032539980070929245,
0.07296758104738155,0.012609144766926806,
0.07301745635910224,-0.008711201523965345,
0.07306733167082294,0.003284057468709147,
0.07311720698254365,-0.0031731364071670336,
0.07316708229426434,-0.018688340466396707,
0.07321695760598504,-0.009474896808461987,
0.07326683291770573,0.03407761578759791,
0.07331670822942643,0.00026161843893016037,
0.07336658354114713,-0.022661641262238224,
0.07341645885286784,-0.015962803329826383,
0.07346633416458853,-0.030263581635888263,
0.07351620947630923,-0.00046122423271083204,
0.07356608478802992,-0.00873776493249053,
0.07361596009975062,-0.023381262545926432,
0.07366583541147133,0.01164634853176858,
0.07371571072319202,-0.008681672194614977,
0.07376558603491272,-0.01688989733046583,
0.07381546134663342,-0.03694865057641182,
0.07386533665835411,0.0012330706133801654,
0.0739152119700748,-0.027962102828354672,
0.07396508728179552,-0.004413810836691629,
0.07401496259351621,0.021076999447808407,
0.07406483790523691,-0.012166471502599295,
0.0741147132169576,-0.0025732416866512007,
0.0741645885286783,-0.022161918039226965,
0.07421446384039901,-0.012949086280023305,
0.0742643391521197,-0.015274089077573574,
0.0743142144638404,-0.012931897630981022,
0.0743640897755611,-0.013638239028522896,
0.07441396508728179,0.011989224027852496,
0.07446384039900249,-0.023389147866346105,
0.0745137157107232,-0.03330744540153245,
0.07456359102244389,0.009106959610353592,
0.07461346633416459,-0.014974224007943338,
0.07466334164588528,-0.018353185884129885,
0.07471321695760598,-0.015682015296813456,
0.07476309226932669,-0.012124209146741368,
0.07481296758104738,0.00861567266153721,
0.07486284289276808,-0.020644950585930348,
0.07491271820448878,-0.021861326158408825,
0.07496259351620947,0.0017313085748873643,
0.07501246882793017,-0.039574654309694174,
0.07506234413965088,-0.03903501757198434,
0.07511221945137157,-0.04803608359726841,
0.07516209476309227,-0.012292539300592197,
0.07521197007481296,-0.017223947771628254,
0.07526184538653366,-0.021038546611013616,
0.07531172069825437,0.010045634116459527,
0.07536159600997507,-0.044820707638955834,
0.07541147132169576,-0.0037074686808151857,
0.07546134663341646,-0.00417120495320482,
0.07551122194513715,0.0006463037451902073,
0.07556109725685786,-0.02649039145855779,
0.07561097256857856,-0.027540816075796913,
0.07566084788029925,-0.005357441051523373,
0.07571072319201995,-0.021120005151491508,
0.07576059850374064,-0.023098784240064424,
0.07581047381546134,-0.0023516779798953315,
0.07586034912718205,0.005219370511103447,
0.07591022443890275,0.004709207066162138,
0.07596009975062344,0.01726452836995595,
0.07600997506234414,-0.037400920264639106,
0.07605985037406483,-0.020906247028316192,
0.07610972568578554,0.0011823589400179434,
0.07615960099750624,-0.0017693288770843814,
0.07620947630922693,0.006059046623102674,
0.07625935162094763,-0.04047776889225051,
0.07630922693266833,-0.009658495322392895,
0.07635910224438902,-0.026995238863587193,
0.07640897755610973,-0.035615917827302085,
0.07645885286783043,-0.006042744667520465,
0.07650872817955112,-0.04468495202654992,
0.07655860349127182,-0.01806933437475154,
0.07660847880299251,0.005375341952186318,
0.07665835411471322,0.0010289119967172803,
0.07670822942643392,-0.0070353963588968196,
0.07675810473815461,-0.011771754469583656,
0.07680798004987531,-0.016063578750458517,
0.076857855361596,-0.008155357850078924,
0.0769077306733167,-0.028044096653185448,
0.07695760598503741,-0.0094854047573928,
0.0770074812967581,-0.01972145861540597,
0.0770573566084788,0.029638386140012282,
0.0771072319201995,-0.002632126295008799,
0.0771571072319202,-0.03287611938506735,
0.0772069825436409,-0.003486093046816097,
0.0772568578553616,-0.014699279506058106,
0.0773067331670823,-0.004526198780985155,
0.07735660847880299,-0.023976636294462856,
0.07740648379052369,-0.00198118095785765,
0.0774563591022444,-0.012362167673149158,
0.07750623441396509,-0.03359191317637039,
0.07755610972568579,0.014920448776194395,
0.07760598503740648,-0.02471666137172617,
0.07765586034912718,-0.020011775903621125,
0.07770573566084787,-0.004603427075643308,
0.07775561097256858,-0.025758068148840053,
0.07780548628428928,0.003218293940062091,
0.07785536159600998,-0.024025916990545994,
0.07790523690773067,-0.02685014586927514,
0.07795511221945137,-0.012712912186710258,
0.07800498753117208,0.001202471415314911,
0.07805486284289277,-0.02224795819499197,
0.07810473815461347,-0.016869333177962915,
0.07815461346633416,0.017524756393088172,
0.07820448877805486,-0.02933880307983421,
0.07825436408977555,-0.008761535670770797,
0.07830423940149626,0.03137392369233227,
0.07835411471321696,-0.006295588485130094,
0.07840399002493766,0.0035019048372090383,
0.07845386533665835,-0.014572159955705311,
0.07850374064837905,0.006533712925988606,
0.07855361596009976,-0.014223983434745815,
0.07860349127182045,-0.0025799056614264843,
0.07865336658354115,-0.03566831030161621,
0.07870324189526184,-0.04869846090140778,
0.07875311720698254,-0.019681023437719054,
0.07880299251870324,-0.016826291234313503,
0.07885286783042394,-0.03190654774358449,
0.07890274314214464,-0.005530604761371136,
0.07895261845386534,-0.019539011308954503,
0.07900249376558603,0.009084691312091813,
0.07905236907730673,-0.019088059418977607,
0.07910224438902744,-0.0044140197897251906,
0.07915211970074813,-0.004858010500273588,
0.07920199501246883,-0.006971593782106732,
0.07925187032418952,-0.011221280515999608,
0.07930174563591022,-0.02630113152785003,
0.07935162094763092,0.006135456923495344,
0.07940149625935163,-0.017518580819626713,
0.07945137157107232,-0.008801749481935593,
0.07950124688279302,0.01029824139336533,
0.07955112219451371,0.0014311325646408097,
0.07960099750623441,0.026287991672401225,
0.07965087281795512,0.019182430170313326,
0.07970074812967581,-0.004447531580537468,
0.07975062344139651,0.01998157873589469,
0.0798004987531172,-0.013143508556874382,
0.0798503740648379,-0.0017821604468879256,
0.07990024937655861,0.003954354787933521,
0.0799501246882793,-0.006472472936925733,
0.08,-0.0015475108744008388,
0.0800498753117207,-0.030389922538806506,
0.0800997506234414,-0.012417861249336259,
0.08014962593516209,-0.007552153571247126,
0.0801995012468828,-0.009195018530982466,
0.0802493765586035,-0.005646804945835664,
0.08029925187032419,-0.003925643392432613,
0.08034912718204489,-0.011626880746686438,
0.08039900249376558,-0.010565120943690883,
0.08044887780548629,0.014584532577331583,
0.08049875311720699,0.016306983055575902,
0.08054862842892768,-0.006943797791338236,
0.08059850374064838,-0.028676203757750734,
0.08064837905236907,0.014294600711641518,
0.08069825436408977,0.015957553674844707,
0.08074812967581048,0.0013655900797901082,
0.08079800498753117,-0.007691053734266055,
0.08084788029925187,-0.01460815828485928,
0.08089775561097257,-0.008978478665573508,
0.08094763092269326,0.010555275224502853,
0.08099750623441397,0.001413312245678566,
0.08104738154613467,0.010965323050003764,
0.08109725685785536,-0.005012567747940698,
0.08114713216957606,-0.012697569291713177,
0.08119700748129675,-0.011035510557082902,
0.08124688279301745,-0.011164241158087168,
0.08129675810473816,0.013293923398902823,
0.08134663341645886,0.003166753940594007,
0.08139650872817955,0.024769525982916107,
0.08144638403990025,0.005462970743740235,
0.08149625935162094,-0.009633961582490155,
0.08154613466334165,0.010280334154096694,
0.08159600997506235,-0.010157434355038976,
0.08164588528678304,-0.011574138224392072,
0.08169576059850374,-0.0019285917475798005,
0.08174563591022443,0.019748402471175902,
0.08179551122194513,0.008847772202716445,
0.08184538653366584,0.018652566585391918,
0.08189526184538654,-0.0015021912339331506,
0.08194513715710723,0.0217226654644002,
0.08199501246882793,0.044512272623081314,
0.08204488778054862,0.0015834668132701565,
0.08209476309226933,0.024491137535194784,
0.08214463840399003,0.002712080272311292,
0.08219451371571072,0.011780679298452553,
0.08224438902743142,0.03182733947171265,
0.08229426433915212,-0.004832153644975291,
0.08234413965087282,0.011334210282953856,
0.08239401496259352,0.010116869248953525,
0.08244389027431422,-0.011509037124375367,
0.08249376558603491,-0.004887135559370669,
0.08254364089775561,0.018036181007835057,
0.0825935162094763,0.009118601056317791,
0.08264339152119701,0.013287441759339814,
0.08269326683291771,0.013774566185383513,
0.0827431421446384,0.05611146207338851,
0.0827930174563591,0.0029289269008152263,
0.0828428927680798,0.011777365988342843,
0.0828927680798005,0.012435342942837824,
0.0829426433915212,0.016832721294402702,
0.0829925187032419,0.030142830554312952,
0.08304239401496259,0.0300439354640842,
0.08309226932668329,0.00047115171810958867,
0.08314214463840398,-0.0062988017712037915,
0.0831920199501247,-0.00450074889349145,
0.08324189526184539,0.009538438658616425,
0.08329177057356608,0.04137982946154259,
0.08334164588528678,0.014876544321569435,
0.08339152119700748,0.029372906909883666,
0.08344139650872819,0.03471203279785613,
0.08349127182044888,0.03520282609890948,
0.08354114713216958,-0.004730691064647376,
0.08359102244389027,0.026785994644612215,
0.08364089775561097,0.0025903059561332917,
0.08369077306733166,0.04116759800581485,
0.08374064837905237,0.04407076338756063,
0.08379052369077307,0.008237351581666132,
0.08384039900249377,0.0006854217187734872,
0.08389027431421446,0.023312917678985974,
0.08394014962593516,-0.0030784318010056676,
0.08399002493765587,0.028937021713343593,
0.08403990024937656,0.03477787967291656,
0.08408977556109726,0.04247750506290747,
0.08413965087281795,0.041317933610118596,
0.08418952618453865,0.021263700510430854,
0.08423940149625936,0.03546588238773665,
0.08428927680798005,0.04224263918773184,
0.08433915211970075,0.05302409064764549,
0.08438902743142145,0.018174235326263402,
0.08443890274314214,0.024826591510525676,
0.08448877805486284,0.021713522469210864,
0.08453865336658355,0.025022673545897517,
0.08458852867830424,0.013207660537887566,
0.08463840399002494,0.01885035319949542,
0.08468827930174563,0.016006152416142845,
0.08473815461346633,0.009182131772631589,
0.08478802992518704,0.012744458010383134,
0.08483790523690773,0.04267017466818511,
0.08488778054862843,0.013868063314715658,
0.08493765586034913,0.04162344692206331,
0.08498753117206982,0.016721040914191132,
0.08503740648379052,0.015202608178181328,
0.08508728179551123,0.01735339699253101,
0.08513715710723192,0.03559819067139971,
0.08518703241895262,-0.0070308692597454495,
0.08523690773067331,0.029790022644039134,
0.08528678304239401,0.017989015301961234,
0.08533665835411472,0.039861274698884556,
0.08538653366583542,0.047504252114072124,
0.08543640897755611,0.028322652812176528,
0.0854862842892768,0.025056062185317016,
0.0855361596009975,0.020251415019162656,
0.0855860349127182,0.03308425152768661,
0.08563591022443891,0.0226327124307497,
0.0856857855361596,0.04101094938240993,
0.0857356608478803,0.04401538432068931,
0.085785536159601,0.015623983460684327,
0.08583541147132169,0.014544988670998975,
0.0858852867830424,0.02924477944737535,
0.0859351620947631,0.02281459867943685,
0.08598503740648379,0.002209359370443767,
0.08603491271820449,0.006056714475842363,
0.08608478802992518,0.015002988610022739,
0.08613466334164588,0.02498712090168097,
0.08618453865336659,0.006721191178535372,
0.08623441396508728,0.012887085572916875,
0.08628428927680798,0.016340772826386116,
0.08633416458852868,0.009349882629283386,
0.08638403990024937,0.03761048121994612,
0.08643391521197008,-0.001138222457925546,
0.08648379052369078,0.03719873616849872,
0.08653366583541147,0.016643774518616414,
0.08658354114713217,0.02247523327434545,
0.08663341645885286,0.02573637447658066,
0.08668329177057357,0.032868488460741925,
0.08673316708229427,0.008299587524098404,
0.08678304239401496,0.036233115412505665,
0.08683291770573566,0.0236141419695362,
0.08688279301745636,0.006052265651397829,
0.08693266832917705,0.03155387731247795,
0.08698254364089776,0.025540592680721154,
0.08703241895261846,0.03335624509179041,
0.08708229426433915,0.03719484535905667,
0.08713216957605985,0.010873861430397277,
0.08718204488778054,0.056150598857358895,
0.08723192019950125,0.03044115035204305,
0.08728179551122195,0.021047112384691143,
0.08733167082294264,0.026223791100009813,
0.08738154613466334,0.01305165265851235,
0.08743142144638404,0.028659415742488793,
0.08748129675810473,0.04396239811972408,
0.08753117206982544,0.03917865182252847,
0.08758104738154614,0.017945645776803493,
0.08763092269326683,0.03901343472345194,
0.08768079800498753,0.010196747575248591,
0.08773067331670822,0.014073955564120923,
0.08778054862842893,0.006986352022303098,
0.08783042394014963,0.04374967463883428,
0.08788029925187033,0.040219856370135074,
0.08793017456359102,0.03028682109082977,
0.08798004987531172,0.03251373192497342,
0.08802992518703241,0.023545581582836844,
0.08807980049875312,0.04574761045724388,
0.08812967581047382,0.042137436553240454,
0.08817955112219451,0.06490988121339833,
0.08822942643391521,-0.0031663940881820826,
0.0882793017456359,0.03867960010094196,
0.08832917705735661,0.03493947643398151,
0.08837905236907731,0.023817510226800426,
0.088428927680798,-0.017134807207484858,
0.0884788029925187,0.003839773039933443,
0.0885286783042394,0.015110825250830722,
0.0885785536159601,-0.029039408705468388,
0.0886284289276808,0.027232125752614838,
0.0886783042394015,0.022686015014326585,
0.0887281795511222,0.04909863375807816,
0.08877805486284289,-0.0017490926378989254,
0.08882793017456359,0.01083302131563818,
0.0888778054862843,0.017218205587171045,
0.08892768079800499,0.04655868268403056,
0.08897755610972569,0.01727487991750987,
0.08902743142144638,0.020799768911377085,
0.08907730673316708,0.04191430132870269,
0.08912718204488779,0.024068407640987333,
0.08917705735660848,0.011327251569270128,
0.08922693266832918,0.008574594712409138,
0.08927680798004987,0.008471917439736491,
0.08932668329177057,0.0131841946580539,
0.08937655860349127,0.010028601277461455,
0.08942643391521198,0.013359489777059119,
0.08947630922693267,0.016596481007011832,
0.08952618453865337,0.03482540110043275,
0.08957605985037406,0.026060796528253105,
0.08962593516209476,0.026387751782833514,
0.08967581047381547,0.04072978535450034,
0.08972568578553616,0.016504610000684556,
0.08977556109725686,-0.003327613311201162,
0.08982543640897755,0.011902818353169139,
0.08987531172069825,0.029793323705725072,
0.08992518703241895,0.0060824454891626415,
0.08997506234413966,0.0033791600909101726,
0.09002493765586035,0.0651258130123041,
0.09007481296758105,-0.010347467192451588,
0.09012468827930174,0.003704139282925919,
0.09017456359102244,0.015586500563024564,
0.09022443890274315,0.006399087460717625,
0.09027431421446384,-0.00017101805037915245,
0.09032418952618454,0.013671360276788546,
0.09037406483790524,-0.008414239350100664,
0.09042394014962593,0.0005465452734066695,
0.09047381546134663,0.010279625112500777,
0.09052369077306734,0.01969588756589602,
0.09057356608478803,0.02083637016974285,
0.09062344139650873,0.029225676369443978,
0.09067331670822942,0.01017109729187198,
0.09072319201995012,0.013853241026847578,
0.09077306733167083,0.029392771338831055,
0.09082294264339152,0.009454525483099377,
0.09087281795511222,0.01654892019963477,
0.09092269326683292,0.004309821037447066,
0.09097256857855361,0.023766796344745166,
0.09102244389027432,0.027636527282751157,
0.09107231920199502,0.021239903463991416,
0.09112219451371571,0.01801623097626314,
0.09117206982543641,0.009922358178267364,
0.0912219451371571,0.002980038665721659,
0.0912718204488778,0.019793204404804646,
0.09132169576059851,0.011326424611725928,
0.0913715710723192,0.028008933946355556,
0.0914214463840399,-0.0010001651031822517,
0.0914713216957606,0.016423815627686487,
0.09152119700748129,-0.005587553490811679,
0.091571072319202,0.021992881143336314,
0.0916209476309227,0.004922396847958376,
0.09167082294264339,0.006398419237244239,
0.09172069825436409,-0.023614681969395538,
0.09177057356608478,0.0024707193662489085,
0.09182044887780548,0.005815236956232982,
0.09187032418952619,0.009090325542846249,
0.09192019950124689,0.006671685624798636,
0.09197007481296758,0.0034214701246143846,
0.09201995012468828,-0.019174528262715138,
0.09206982543640897,-0.03274839485438462,
0.09211970074812968,0.0035167589129753074,
0.09216957605985038,-0.00016365810258611464,
0.09221945137157107,0.0011064956207242564,
0.09226932668329177,0.015861669742873268,
0.09231920199501246,0.004863203822010766,
0.09236907730673316,-0.021554002682835537,
0.09241895261845387,-0.013178368242472102,
0.09246882793017457,-0.016203663477481138,
0.09251870324189526,0.027554556631955558,
0.09256857855361596,-0.0037412010467335194,
0.09261845386533665,0.006924986358507807,
0.09266832917705736,-0.0008288242503179284,
0.09271820448877806,-0.020953901116607936,
0.09276807980049875,-0.009296875169417752,
0.09281795511221945,-0.016337052119806322,
0.09286783042394015,0.019763042757108797,
0.09291770573566084,-0.039460214068482075,
0.09296758104738155,-0.02109131935378481,
0.09301745635910225,-0.033326344419062036,
0.09306733167082294,-0.0016258706605158054,
0.09311720698254364,0.02967418464649635,
0.09316708229426433,0.010186526477636923,
0.09321695760598504,-0.013680941274130488,
0.09326683291770574,-0.046801397414107444,
0.09331670822942643,0.005902777713513686,
0.09336658354114713,-0.012375364034614228,
0.09341645885286783,0.010137582944519188,
0.09346633416458854,-0.006352380323912796,
0.09351620947630923,0.01504213331808949,
0.09356608478802993,-0.00356509731471975,
0.09361596009975062,-0.03129640525595269,
0.09366583541147132,-0.012663163235514398,
0.09371571072319201,0.0012703039715279427,
0.09376558603491272,-0.005519520914480491,
0.09381546134663342,-0.04607256614044178,
0.09386533665835411,-0.0032837564727105275,
0.09391521197007481,-0.002884518405382829,
0.0939650872817955,-0.021585947322091813,
0.09401496259351622,-0.011626112086029426,
0.09406483790523691,-0.019579704548189313,
0.09411471321695761,0.012311790645385129,
0.0941645885286783,0.011730194535421009,
0.094214463840399,0.0051689424660317,
0.0942643391521197,-0.01310619305916874,
0.0943142144638404,-0.0005605173878946695,
0.0943640897755611,-0.03366117112922424,
0.0944139650872818,-0.03559290783535515,
0.09446384039900249,-0.03412267977542851,
0.09451371571072319,-0.004235841315350515,
0.0945635910224439,-0.0008444533223894123,
0.09461346633416459,-0.013499492531255219,
0.09466334164588529,0.005899987221106007,
0.09471321695760598,-0.022445155067120096,
0.09476309226932668,0.0007800083506337915,
0.09481296758104737,-0.00150966130009636,
0.09486284289276808,-0.02758001962798426,
0.09491271820448878,-0.0012660531810507313,
0.09496259351620948,-0.011622570717833132,
0.09501246882793017,-0.0243990566100264,
0.09506234413965087,-0.030337862139107653,
0.09511221945137158,-0.015078470185484652,
0.09516209476309227,-0.0196711198553873,
0.09521197007481297,0.007677299745806297,
0.09526184538653366,0.0009045642366583648,
0.09531172069825436,-0.022449955424740348,
0.09536159600997507,-0.03374398309549937,
0.09541147132169576,0.0019924305320708127,
0.09546134663341646,-0.005055945141293029,
0.09551122194513716,-0.011531315333578485,
0.09556109725685785,-0.009836549963291861,
0.09561097256857855,-0.0062992361018287014,
0.09566084788029926,-0.021489633047986227,
0.09571072319201995,-0.012282399402379237,
0.09576059850374065,-0.007142118779645123,
0.09581047381546134,-0.005456697828355897,
0.09586034912718204,-0.035634873516630805,
0.09591022443890275,0.003124615239201588,
0.09596009975062345,0.0034172542766596203,
0.09600997506234414,-0.009375870072021519,
0.09605985037406484,-0.00041468782924472883,
0.09610972568578553,-0.015142070204575388,
0.09615960099750623,0.0022926339252962915,
0.09620947630922694,-0.0043371913399136985,
0.09625935162094763,-0.004703254027322263,
0.09630922693266833,-0.009576836210262785,
0.09635910224438902,0.014823854747940752,
0.09640897755610972,0.005214765518450227,
0.09645885286783043,-0.016005477900221842,
0.09650872817955113,-0.007252835390546031,
0.09655860349127182,-0.01464163308989632,
0.09660847880299252,-0.021757444458946257,
0.09665835411471321,0.012040145334323148,
0.09670822942643391,-0.013861474769479845,
0.09675810473815462,-0.02785175642008218,
0.09680798004987531,-0.023450308392091293,
0.09685785536159601,-0.01521788585192994,
0.0969077306733167,0.005107892162421451,
0.0969576059850374,-0.012011083990189509,
0.09700748129675811,-0.006143811766758651,
0.0970573566084788,-0.010282895493531606,
0.0971072319201995,0.01120526160288466,
0.0971571072319202,-0.006607935444065258,
0.0972069825436409,-0.0022658907318760715,
0.09725685785536159,-0.026822454521571726,
0.0973067331670823,-0.018645498532329417,
0.097356608478803,0.008105812541370761,
0.09740648379052369,0.00971594760586337,
0.09745635910224439,-0.015029454403997278,
0.09750623441396508,-0.0443078373344569,
0.09755610972568579,-0.0062575121166333365,
0.09760598503740649,-0.007552792547001953,
0.09765586034912718,-0.006885052696585223,
0.09770573566084788,-0.01926893756896518,
0.09775561097256857,0.01969073961754917,
0.09780548628428928,-0.01707572198077183,
0.09785536159600998,0.011709216041026073,
0.09790523690773068,-0.023801027604548088,
0.09795511221945137,0.001857953463431112,
0.09800498753117207,-0.010397201963378212,
0.09805486284289276,-0.00145906291887655,
0.09810473815461347,-0.00043541450797763767,
0.09815461346633417,-0.014307995953653615,
0.09820448877805486,0.014968980155477127,
0.09825436408977556,-0.007357056010171772,
0.09830423940149625,-0.0027557418826253425,
0.09835411471321696,0.0024030010898647945,
0.09840399002493766,0.009974414399202968,
0.09845386533665836,-0.018199995273794022,
0.09850374064837905,-0.011851253087474607,
0.09855361596009975,0.012820264864527347,
0.09860349127182044,-0.02278506271033045,
0.09865336658354115,0.012261713251256648,
0.09870324189526185,0.01737676231019554,
0.09875311720698254,-0.019558156899268306,
0.09880299251870324,-0.017334190174272665,
0.09885286783042393,-0.011087836413487767,
0.09890274314214464,-0.004449134956539768,
0.09895261845386534,-0.001889065335755081,
0.09900249376558604,-0.002891367586241456,
0.09905236907730673,-0.0027316257304296526,
0.09910224438902743,0.004504942638118366,
0.09915211970074812,-0.027808558720739122,
0.09920199501246883,-0.008673661014904932,
0.09925187032418953,0.01089126968029841,
0.09930174563591022,0.009272687826715087,
0.09935162094763092,0.0063830766059643565,
0.09940149625935162,-0.03928038423353768,
0.09945137157107233,-0.0006096169478751602,
0.09950124688279302,-0.004089336857165102,
0.09955112219451372,0.00984802380686722,
0.09960099750623441,0.027462805916623156,
0.09965087281795511,0.000744104896021044,
0.0997007481296758,0.012263446715756902,
0.09975062344139651,-0.0074879505498041945,
0.09980049875311721,-0.00875112471839248,
0.0998503740648379,-0.0035353309304907753,
0.0999002493765586,0.01824682987293738,
0.0999501246882793,-0.008188068922133761,
0.1,0.01672438501606781,
0.1000498753117207,-0.007255258150081017,
0.1000997506234414,-0.007874758858378347,
0.10014962593516209,-0.013818423243094055,
0.10019950124688279,-0.01161427332528147,
0.1002493765586035,-0.014204044823793123,
0.1002992518703242,0.01068099042549436,
0.10034912718204489,-0.024608101369732346,
0.10039900249376559,0.011710525372105603,
0.10044887780548628,-0.0245008852483029,
0.10049875311720698,0.004731491642227398,
0.10054862842892769,-0.022169083364728035,
0.10059850374064838,0.03595463734086068,
0.10064837905236908,0.011586593748293263,
0.10069825436408977,0.023598138189807782,
0.10074812967581047,-0.007036598775224631,
0.10079800498753118,0.02711315484695298,
0.10084788029925187,0.008629628105343002,
0.10089775561097257,0.014311749199562587,
0.10094763092269327,0.036673580696695005,
0.10099750623441396,0.00426297485233828,
0.10104738154613466,0.007287393455184074,
0.10109725685785537,0.015253717851802991,
0.10114713216957606,0.05044819541214139,
0.10119700748129676,0.004975269742671614,
0.10124688279301745,-0.0007369891144243905,
0.10129675810473815,-0.0023057497435456323,
0.10134663341645886,0.013291990826841956,
0.10139650872817955,0.008961953102761393,
0.10144638403990025,0.026095337910667336,
0.10149625935162095,0.0038338481992001155,
0.10154613466334164,-0.028196786017323852,
0.10159600997506234,0.01743849375501041,
0.10164588528678305,0.032818766031929014,
0.10169576059850374,0.010320084215277693,
0.10174563591022444,0.016867286917441097,
0.10179551122194513,-0.02237009625163866,
0.10184538653366583,-0.02364005771217622,
0.10189526184538654,0.021441459554416852,
0.10194513715710724,0.02166416878589774,
0.10199501246882793,0.03172571821779714,
0.10204488778054863,0.0022360428044375,
0.10209476309226932,0.023435357367234178,
0.10214463840399003,0.022746648024602148,
0.10219451371571073,0.019459910151998917,
0.10224438902743142,0.03456058314871588,
0.10229426433915212,0.017356850793024993,
0.10234413965087281,0.0028344572498302766,
0.10239401496259351,0.027827704524760292,
0.10244389027431422,0.022455332104500812,
0.10249376558603492,0.01666018103323073,
0.10254364089775561,0.007259550642900429,
0.10259351620947631,0.05427319523041578,
0.102643391521197,0.03156169768349394,
0.10269326683291771,0.02311678325033244,
0.10274314214463841,0.0401808776481417,
0.1027930174563591,0.03546966226745856,
0.1028428927680798,0.020353701980126995,
0.1028927680798005,0.01114884066117949,
0.10294264339152119,0.0402334561478397,
0.1029925187032419,0.04872168091519326,
0.1030423940149626,0.04473582681074986,
0.10309226932668329,0.024390324304691013,
0.10314214463840399,-0.00937626514666769,
0.10319201995012468,0.007326171559827906,
0.10324189526184539,0.037827746227297065,
0.10329177057356609,0.031216636839012074,
0.10334164588528678,-0.0010327483959948446,
0.10339152119700748,0.04029511916929869,
0.10344139650872818,0.005240889648042748,
0.10349127182044887,0.040458208077202636,
0.10354114713216958,0.01735474853549939,
0.10359102244389028,0.002771328634468835,
0.10364089775561097,0.052575019605325624,
0.10369077306733167,-0.004331122714041697,
0.10374064837905236,0.02323226411636714,
0.10379052369077307,0.02422063669281215,
0.10384039900249377,0.009362945721473063,
0.10389027431421446,0.025948001610933736,
0.10394014962593516,0.022207673732592685,
0.10399002493765586,0.012137285417620566,
0.10403990024937655,0.03552944792766029,
0.10408977556109726,0.03503716797066228,
0.10413965087281796,0.028356243193169567,
0.10418952618453865,0.006115292551852138,
0.10423940149625935,0.051830288903259705,
0.10428927680798004,0.020459121525189458,
0.10433915211970075,0.022235073670191268,
0.10438902743142145,0.025668070530204888,
0.10443890274314215,0.032737528664243745,
0.10448877805486284,0.03964711482767072,
0.10453865336658354,0.03330857529061008,
0.10458852867830425,0.021380904853259636,
0.10463840399002494,0.03905746388297374,
0.10468827930174564,0.022341685497904513,
0.10473815461346633,0.03109779537694137,
0.10478802992518703,0.000451928319045964,
0.10483790523690772,0.006842124161758615,
0.10488778054862843,-0.006935617764464164,
0.10493765586034913,0.026266108602149132,
0.10498753117206983,0.0428562356482066,
0.10503740648379052,-0.0030392814269544766,
0.10508728179551122,0.037854195242148926,
0.10513715710723193,0.027357151564987473,
0.10518703241895262,0.006591671030055313,
0.10523690773067332,0.03641123462010824,
0.10528678304239401,0.022924239874324057,
0.10533665835411471,0.04959943636301553,
0.1053865336658354,0.02845056515557893,
0.10543640897755611,0.05284843545496712,
0.10548628428927681,0.06307527366434934,
0.1055361596009975,0.02251001261975677,
0.1055860349127182,-0.014474785693154135,
0.1056359102244389,0.03484899450776297,
0.10568578553615961,0.05069832142768421,
0.1057356608478803,0.04003844075637164,
0.105785536159601,0.04896135579444398,
0.1058354114713217,0.02565624955968295,
0.10588528678304239,0.01629901745928422,
0.10593516209476309,0.029263977603971255,
0.1059850374064838,0.007206418828883756,
0.10603491271820449,0.023619310478372842,
0.10608478802992519,0.03229557240338162,
0.10613466334164588,0.01464568905920503,
0.10618453865336658,0.02182100526081947,
0.10623441396508729,0.027472082911080293,
0.10628428927680798,0.041897095821894076,
0.10633416458852868,0.04263336328831068,
0.10638403990024937,0.04908721482647932,
0.10643391521197007,0.01390288040755893,
0.10648379052369077,0.021560424311298405,
0.10653366583541148,0.011574144616102105,
0.10658354114713217,0.04409321275772428,
0.10663341645885287,0.031824817751011626,
0.10668329177057356,0.02147921452460138,
0.10673316708229426,0.03693639504250422,
0.10678304239401497,0.04794504090719054,
0.10683291770573566,0.02714014863093153,
0.10688279301745636,0.055792055126988135,
0.10693266832917706,0.03575693823071907,
0.10698254364089775,0.014006792976772448,
0.10703241895261846,0.01260548102978577,
0.10708229426433916,0.017514167966961675,
0.10713216957605985,0.017370001480240073,
0.10718204488778055,0.04418416752398775,
0.10723192019950124,0.030311677448004247,
0.10728179551122194,0.036040767161997625,
0.10733167082294265,0.023992502619860166,
0.10738154613466334,0.04582968300297505,
0.10743142144638404,0.0397980237883749,
0.10748129675810474,0.042060890535710355,
0.10753117206982543,0.02482823132741358,
0.10758104738154614,0.01277583815283634,
0.10763092269326684,0.051369297647691686,
0.10768079800498753,0.024814202476936005,
0.10773067331670823,0.024467103813098745,
0.10778054862842892,0.011793346579357206,
0.10783042394014962,0.02916926289494331,
0.10788029925187033,0.045302342622515604,
0.10793017456359102,0.042635784074771324,
0.10798004987531172,0.01466508525395057,
0.10802992518703242,0.02472006689203036,
0.10807980049875311,0.023559207945427783,
0.10812967581047382,0.03538379027817702,
0.10817955112219452,0.011484275360992544,
0.10822942643391521,0.04812432141339524,
0.10827930174563591,0.009555279609798677,
0.1083291770573566,0.029179753411588197,
0.1083790523690773,0.05574952981963135,
0.10842892768079801,0.019553168333770812,
0.1084788029925187,-0.002090878893579333,
0.1085286783042394,0.0179094888397918,
0.1085785536159601,0.04237711723455713,
0.10862842892768079,0.05794015230346958,
0.1086783042394015,0.04431799855164642,
0.1087281795511222,0.0310847839148724,
0.1087780548628429,0.041842560909058225,
0.10882793017456359,0.022770492854809428,
0.10887780548628428,0.04783695993291252,
0.108927680798005,0.02363295862368939,
0.10897755610972569,0.03089349114419279,
0.10902743142144639,0.03237335918723181,
0.10907730673316708,0.01582472664795369,
0.10912718204488778,0.017085564224453974,
0.10917705735660847,0.03667624325825253,
0.10922693266832918,0.019952124174680327,
0.10927680798004988,0.011730463528734029,
0.10932668329177057,0.013269412135160183,
0.10937655860349127,0.01171300267654296,
0.10942643391521197,-0.006578517561338447,
0.10947630922693267,0.024079906372619357,
0.10952618453865337,0.038324435936002724,
0.10957605985037407,0.000421501882630515,
0.10962593516209476,0.043025165823255086,
0.10967581047381546,0.0030333012367726887,
0.10972568578553615,0.011484143009666999,
0.10977556109725686,0.04586512903503876,
0.10982543640897756,0.00413795447322423,
0.10987531172069825,-0.008095535932352498,
0.10992518703241895,0.025310969557083268,
0.10997506234413965,0.0037706357819130235,
0.11002493765586036,0.019583997881004088,
0.11007481296758105,0.004780596292454286,
0.11012468827930175,-0.0006264685348484483,
0.11017456359102244,0.021885013836963,
0.11022443890274314,-0.01295953630168088,
0.11027431421446383,0.006901282825724094,
0.11032418952618454,-0.015428125883042463,
0.11037406483790524,-0.006359310824041772,
0.11042394014962593,0.015499121886336755,
0.11047381546134663,0.0157248203763918,
0.11052369077306733,0.013178668097777685,
0.11057356608478804,0.012922568991779532,
0.11062344139650873,0.01778678925836355,
0.11067331670822943,-0.003938977561648117,
0.11072319201995012,0.02804576642468643,
0.11077306733167082,0.020037144939446937,
0.11082294264339151,0.013194426027316413,
0.11087281795511222,0.025941733657512518,
0.11092269326683292,0.01828220210549699,
0.11097256857855362,0.02863583348363455,
0.11102244389027431,0.002841386018676434,
0.111072319201995,0.03373417718062301,
0.11112219451371572,0.006462049398820367,
0.11117206982543641,0.00027843880830303105,
0.11122194513715711,0.02969642182781513,
0.1112718204488778,0.032902104743514154,
0.1113216957605985,0.021344160059455983,
0.11137157107231921,0.014276422688097937,
0.1114214463840399,-0.00395755851338255,
0.1114713216957606,-0.008987357064557267,
0.1115211970074813,0.009814253309668041,
0.11157107231920199,0.0015812480484731955,
0.11162094763092269,0.009591647508421345,
0.1116708229426434,0.014122438140058452,
0.11172069825436409,0.0036665078681436857,
0.11177057356608479,0.002273945549002402,
0.11182044887780548,0.004825468793618989,
0.11187032418952618,0.0016663107450890077,
0.11192019950124689,0.02441270057111654,
0.11197007481296758,-0.0030848210800319504,
0.11201995012468828,0.04551944231948201,
0.11206982543640898,0.030952362091975053,
0.11211970074812967,0.00036415863544128667,
0.11216957605985037,0.003833559749449926,
0.11221945137157108,-0.020989524632131405,
0.11226932668329177,-0.0006542417073022535,
0.11231920199501247,-0.01266349080986359,
0.11236907730673316,-0.009656625466609758,
0.11241895261845386,0.014496227398935819,
0.11246882793017457,0.01636073606138007,
0.11251870324189527,-0.01064511509431123,
0.11256857855361596,-0.04045055112651358,
0.11261845386533666,0.008518088300994528,
0.11266832917705735,-0.010858324253036325,
0.11271820448877805,-0.0026205545370157008,
0.11276807980049876,-0.033791765319504716,
0.11281795511221945,0.012787665930732437,
0.11286783042394015,0.0018263438979284705,
0.11291770573566084,-0.010484255684572334,
0.11296758104738154,0.02947358149309786,
0.11301745635910225,-0.016271416869626493,
0.11306733167082295,-0.013291658318703393,
0.11311720698254364,-0.02336635528231835,
0.11316708229426434,-0.008342806514559572,
0.11321695760598503,0.018868801270871524,
0.11326683291770574,-0.005285225102571648,
0.11331670822942644,-0.01478219259244266,
0.11336658354114713,-0.0026902731348335466,
0.11341645885286783,-0.004496279147764336,
0.11346633416458853,-0.003816220452735299,
0.11351620947630922,-0.009805605342899492,
0.11356608478802993,0.0006717835809487791,
0.11361596009975063,-0.0002902615543217465,
0.11366583541147132,0.00761898260673996,
0.11371571072319202,-0.0008554461244176777,
0.11376558603491271,-0.02310660725378611,
0.11381546134663342,-0.010895813981322434,
0.11386533665835412,0.012678377642757484,
0.11391521197007481,0.020993122387153236,
0.11396508728179551,-0.02128646944133763,
0.1140149625935162,-0.01931046054708993,
0.1140648379052369,0.004276924212235552,
0.11411471321695761,-0.027047456906733137,
0.1141645885286783,-0.018170157722375044,
0.114214463840399,-0.005743657344647319,
0.1142643391521197,-0.004022146357913065,
0.1143142144638404,-0.03915250489851177,
0.1143640897755611,0.006811781717992366,
0.1144139650872818,-0.022260668540414058,
0.1144638403990025,-0.018919238009452867,
0.11451371571072319,-0.009742617638390844,
0.11456359102244389,-0.010324501980004251,
0.11461346633416458,-0.008101942528456607,
0.11466334164588529,-0.012801307276553651,
0.11471321695760599,-0.013697066398491144,
0.11476309226932668,-0.012042739535638029,
0.11481296758104738,-0.003847915606621147,
0.11486284289276807,0.00111816233331238,
0.11491271820448878,-0.012828661723205334,
0.11496259351620948,-0.017185447680150304,
0.11501246882793018,-0.013147653292264957,
0.11506234413965087,-0.029786258220594337,
0.11511221945137157,-0.01727356132083854,
0.11516209476309226,0.025234131200887217,
0.11521197007481297,0.00460627473608303,
0.11526184538653367,-0.030561969679421434,
0.11531172069825436,-0.023059144162553398,
0.11536159600997506,-0.004496697580814825,
0.11541147132169575,-0.010543265855255288,
0.11546134663341646,-0.02020938607930496,
0.11551122194513716,-0.026748237585116037,
0.11556109725685786,-0.010577568296678354,
0.11561097256857855,0.0029936593239873865,
0.11566084788029925,-0.0025773675702641715,
0.11571072319201996,-0.003928481604164777,
0.11576059850374065,0.020260634490251554,
0.11581047381546135,-0.008954071185021947,
0.11586034912718204,-0.008521716774201635,
0.11591022443890274,-0.0027995430875337596,
0.11596009975062344,-0.008634215077493982,
0.11600997506234415,-0.027264950670394347,
0.11605985037406484,-0.011738524873471946,
0.11610972568578554,-0.033563980380261677,
0.11615960099750623,-0.016218505005839146,
0.11620947630922693,0.013620313207548617,
0.11625935162094764,-0.020404320145442776,
0.11630922693266833,-0.008386280861899898,
0.11635910224438903,-0.029678755103741655,
0.11640897755610972,-0.004740037688466399,
0.11645885286783042,-0.013682078623625523,
0.11650872817955112,-0.00274490644636647,
0.11655860349127183,0.0078043899343897705,
0.11660847880299252,-0.00031915094490052483,
0.11665835411471322,0.005435711655646333,
0.11670822942643391,-0.01078100244343059,
0.11675810473815461,-0.012779822839134196,
0.11680798004987532,-0.0114014105912812,
0.11685785536159601,-0.02080916956170078,
0.11690773067331671,-0.0020450640131185645,
0.1169576059850374,-0.034794221893955535,
0.1170074812967581,-0.0019691996681762986,
0.1170573566084788,0.013210958311506737,
0.1171072319201995,-0.02901630308699133,
0.1171571072319202,-0.03024314369573914,
0.1172069825436409,-0.0021998893605146685,
0.1172568578553616,-0.017249199866003387,
0.11730673316708229,-0.029601291901002122,
0.117356608478803,-0.0035637672959466238,
0.1174064837905237,0.002604617477556562,
0.11745635910224439,0.004757235506934148,
0.11750623441396509,-0.017115218586883585,
0.11755610972568578,0.014172793359897778,
0.11760598503740648,-0.02913352225064044,
0.11765586034912719,-0.01602860501989469,
0.11770573566084788,0.018919179727411122,
0.11775561097256858,0.006781706239535076,
0.11780548628428927,-0.030705996075067833,
0.11785536159600997,-0.019200177186443516,
0.11790523690773068,0.007763194452310102,
0.11795511221945137,-0.013512025977677644,
0.11800498753117207,-0.0009236036538080089,
0.11805486284289277,-0.007682993348816117,
0.11810473815461346,-0.0006624339257464817,
0.11815461346633417,-0.00476870220213681,
0.11820448877805487,0.00851535987351572,
0.11825436408977556,-0.0118311039874323,
0.11830423940149626,0.002172199535329017,
0.11835411471321695,-0.00797646945032714,
0.11840399002493765,-0.008682233377980087,
0.11845386533665836,-0.009007751116089946,
0.11850374064837906,-0.016393472404757074,
0.11855361596009975,-0.014706762091765115,
0.11860349127182045,-0.014188624035586997,
0.11865336658354114,-0.01448978574361372,
0.11870324189526185,0.04568654703291902,
0.11875311720698255,-0.028560116907060826,
0.11880299251870324,0.003584616527817464,
0.11885286783042394,-0.007994173364523155,
0.11890274314214463,-0.012448029595459497,
0.11895261845386533,-0.0019799121476384973,
0.11900249376558604,-0.0232615939233985,
0.11905236907730674,0.0016992528249136444,
0.11910224438902743,-0.007282270513938137,
0.11915211970074813,-0.014274849303697802,
0.11920199501246882,-0.017041657785209746,
0.11925187032418953,-0.005989885511134433,
0.11930174563591023,-0.01086616210380643,
0.11935162094763092,0.00133880669689504,
0.11940149625935162,-0.006724223771053824,
0.11945137157107232,-0.019402723163325288,
0.11950124688279301,-0.01189739445489257,
0.11955112219451372,-0.02792028808652122,
0.11960099750623442,0.01266112360646697,
0.11965087281795511,0.022336748544115034,
0.11970074812967581,-0.01385571184084322,
0.1197506234413965,-0.004648478512506856,
0.11980049875311721,-0.007638868662989363,
0.11985037406483791,0.008982959909274486,
0.1199002493765586,0.007647937690191199,
0.1199501246882793,-0.0113812233595228,
0.12,0.005848421148742964,
0.1200498753117207,0.011537158639684773,
0.1200997506234414,0.004737896753501971,
0.1201496259351621,0.005324634081875144,
0.12019950124688279,0.004538957381117001,
0.12024937655860349,-0.012551173880012263,
0.12029925187032418,0.0035126856057027113,
0.1203491271820449,0.0026854152703810865,
0.12039900249376559,0.017969148516683756,
0.12044887780548628,0.023636006575025872,
0.12049875311720698,0.021344737914273146,
0.12054862842892768,0.014428187609435067,
0.12059850374064839,-0.013445270710427316,
0.12064837905236908,0.0025370526756226847,
0.12069825436408978,-0.00800757473750583,
0.12074812967581047,-0.011388042488622093,
0.12079800498753117,0.008290518522941916,
0.12084788029925186,0.02895750456648341,
0.12089775561097257,-0.017885811684710533,
0.12094763092269327,0.010955153155878174,
0.12099750623441397,0.010850743490592597,
0.12104738154613466,0.006309762827398488,
0.12109725685785536,0.007613822614781499,
0.12114713216957607,0.024121156384161846,
0.12119700748129676,0.010452380982359786,
0.12124688279301746,-0.010383143546111393,
0.12129675810473815,0.009943556553172573,
0.12134663341645885,0.017658803215128645,
0.12139650872817954,0.012461261211335001,
0.12144638403990025,0.015059248802076337,
0.12149625935162095,0.02341847734342844,
0.12154613466334165,-0.013778067254179157,
0.12159600997506234,0.043104283325201206,
0.12164588528678304,0.02418325967515305,
0.12169576059850375,0.01178763502530414,
0.12174563591022444,0.010195885928809292,
0.12179551122194514,0.011597234125033107,
0.12184538653366583,0.021283072902021166,
0.12189526184538653,0.014183762749600995,
0.12194513715710723,0.014778963526211848,
0.12199501246882793,0.03598602062349841,
0.12204488778054863,0.014633050814470087,
0.12209476309226933,-0.018615244280000793,
0.12214463840399002,0.02349582224103904,
0.12219451371571072,0.009841988882368171,
0.12224438902743143,0.030152471234287527,
0.12229426433915212,0.03372707991094394,
0.12234413965087282,0.003704020265309131,
0.12239401496259351,0.027848634618199686,
0.12244389027431421,0.023268182342801154,
0.12249376558603492,0.05138517168282738,
0.12254364089775562,0.0050974814661350655,
0.12259351620947631,0.0024764495526686265,
0.122643391521197,0.04152247617638931,
0.1226932668329177,0.003537019014834242,
0.1227431421446384,0.020645369165296905,
0.12279301745635911,0.00684259841293665,
0.1228428927680798,0.01801717351834949,
0.1228927680798005,0.0033862109689836717,
0.1229426433915212,0.00738252417515132,
0.12299251870324189,0.01825691817569344,
0.1230423940149626,0.029697632163302422,
0.1230922693266833,0.018420565305299244,
0.12314214463840399,0.014633937325155928,
0.12319201995012469,-0.0014472441652820071,
0.12324189526184538,0.03868910685827734,
0.12329177057356608,-0.010314997771181174,
0.12334164588528679,0.026726571960702585,
0.12339152119700748,0.050193737370931635,
0.12344139650872818,0.013835284883841212,
0.12349127182044888,0.007917421564838547,
0.12354114713216957,0.034829541008902634,
0.12359102244389028,0.028918484035821534,
0.12364089775561098,0.026608366608918636,
0.12369077306733167,-0.008445993477317882,
0.12374064837905237,0.01228959732850933,
0.12379052369077306,0.014834021717058664,
0.12384039900249376,0.018283456215117476,
0.12389027431421447,0.010329506231851696,
0.12394014962593516,0.0191252143872074,
0.12399002493765586,0.027607735270708623,
0.12403990024937656,0.007715926956343624,
0.12408977556109725,0.006801826408158237,
0.12413965087281796,0.02502832736390614,
0.12418952618453866,0.02634727462875595,
0.12423940149625935,5.749037358663417e-05,
0.12428927680798005,0.031886572251736064,
0.12433915211970074,0.02925571424469418,
0.12438902743142144,0.03459845060433224,
0.12443890274314215,0.036513791953471535,
0.12448877805486284,0.01906157806413067,
0.12453865336658354,0.012659824338459807,
0.12458852867830424,0.016021478703107772,
0.12463840399002493,0.01677218627966494,
0.12468827930174564,0.041781959898573064,
0.12473815461346634,0.015445888104607047,
0.12478802992518703,0.04847781273273019,
0.12483790523690773,0.013387948027876058,
0.12488778054862842,0.03466527673608742,
0.12493765586034913,0.008311314603714242,
0.12498753117206983,0.022176604162636233,
0.12503740648379053,0.02235026393446698,
0.12508728179551123,0.039087720606106435,
0.12513715710723192,0.012410954726443602,
0.12518703241895263,0.027573589253510358,
0.1252369077306733,0.03706122812488653,
0.12528678304239402,0.020852134652940647,
0.1253366583541147,0.013287800585524652,
0.1253865336658354,0.046620210557502664,
0.12543640897755612,0.04086020083962508,
0.1254862842892768,0.029400862044171413,
0.1255361596009975,0.0014290760213194822,
0.1255860349127182,0.02773452217294066,
0.1256359102244389,0.049295977489170736,
0.1256857855361596,0.008087511372172066,
0.1257356608478803,0.0315348860260289,
0.125785536159601,0.019926046284397626,
0.12583541147132168,0.020807705756107964,
0.1258852867830424,0.013666125147923786,
0.1259351620947631,0.03867810723597569,
0.12598503740648379,0.04222831060796575,
0.1260349127182045,0.041338949469535945,
0.12608478802992518,0.03362423282283954,
0.1261346633416459,0.028385931099715177,
0.1261845386533666,0.026496511215521986,
0.12623441396508728,0.027021688588789138,
0.126284289276808,0.02188836733066829,
0.12633416458852867,-0.00640023046325882,
0.12638403990024938,0.04499210428942815,
0.1264339152119701,0.03947963463834339,
0.12648379052369077,0.021137059678623477,
0.12653366583541148,0.01699975541955953,
0.12658354114713216,0.04819610527871937,
0.12663341645885287,0.021311627942711298,
0.12668329177057355,0.06508421127234372,
0.12673316708229426,0.03895351054821392,
0.12678304239401497,0.037896002822530035,
0.12683291770573565,0.03799766803646427,
0.12688279301745636,0.05238825279368606,
0.12693266832917705,0.031427046388045395,
0.12698254364089775,-0.0022739560095677257,
0.12703241895261846,0.02913698739971858,
0.12708229426433915,0.0352128498589805,
0.12713216957605986,0.030148258476353114,
0.12718204488778054,0.01111485185385968,
0.12723192019950125,0.027233055823018073,
0.12728179551122196,0.04439985352867924,
0.12733167082294264,0.003634678438504048,
0.12738154613466335,0.04708204261120545,
0.12743142144638403,0.012282535691094672,
0.12748129675810474,0.04236997514776692,
0.12753117206982545,0.023555310624177667,
0.12758104738154613,0.04327563340200481,
0.12763092269326684,0.045775972407573244,
0.12768079800498752,-0.002445198898546906,
0.12773067331670823,0.04264132413967549,
0.1277805486284289,0.005340166772560755,
0.12783042394014962,0.03853293908331356,
0.12788029925187033,0.02622709501099046,
0.12793017456359101,0.04127032735631072,
0.12798004987531172,0.004466605239186915,
0.1280299251870324,0.024499976057422344,
0.12807980049875312,0.04582240936474082,
0.12812967581047383,0.024624766348200385,
0.1281795511221945,0.01332519603672423,
0.12822942643391522,-0.0028904257654975424,
0.1282793017456359,0.024415876244770738,
0.1283291770573566,0.022747766712208326,
0.12837905236907732,0.02144986680004928,
0.128428927680798,0.018488524215711316,
0.1284788029925187,0.028371660009315625,
0.1285286783042394,0.04131774561220282,
0.1285785536159601,0.010262043487931416,
0.1286284289276808,0.04774843294022519,
0.1286783042394015,-0.0036686333914888805,
0.1287281795511222,0.03381521705293743,
0.12877805486284288,0.030031080713318233,
0.1288279301745636,0.02216671340026249,
0.1288778054862843,0.02335201648789245,
0.12892768079800498,0.015371706290660826,
0.1289775561097257,0.05324783719113295,
0.12902743142144638,0.002668492813351263,
0.12907730673316709,0.04335116586384648,
0.12912718204488777,0.022825049891698368,
0.12917705735660848,0.03396546126134488,
0.1292269326683292,0.012917435717546036,
0.12927680798004987,0.007708880138650802,
0.12932668329177058,0.004777577874159937,
0.12937655860349126,0.013175168878758326,
0.12942643391521197,0.029886211443109476,
0.12947630922693268,0.020816530649336428,
0.12952618453865336,0.012591918771089582,
0.12957605985037407,0.016126016167928876,
0.12962593516209475,0.01001870978307161,
0.12967581047381546,0.013644886251431265,
0.12972568578553617,0.02976419404921786,
0.12977556109725685,0.03752116970803806,
0.12982543640897756,0.011949430256899353,
0.12987531172069824,0.04642842981624392,
0.12992518703241895,0.03530728039368755,
0.12997506234413966,0.02417263186228019,
0.13002493765586035,-0.005530726867974515,
0.13007481296758105,0.02587246523868103,
0.13012468827930174,0.0323133615515829,
0.13017456359102245,0.02398819590214856,
0.13022443890274316,0.03113629551285138,
0.13027431421446384,0.02431555303095241,
0.13032418952618455,0.02373711329306731,
0.13037406483790523,0.003312168984617102,
0.13042394014962594,0.03398129375666781,
0.13047381546134662,0.008701421886069432,
0.13052369077306733,-0.0022525602709862792,
0.13057356608478804,0.021081469395205867,
0.13062344139650872,0.008625000196563572,
0.13067331670822943,-0.002813591601557674,
0.1307231920199501,0.04539731232043316,
0.13077306733167082,0.031071808221081257,
0.13082294264339153,0.02526149087816804,
0.13087281795511221,0.021585726922475873,
0.13092269326683292,-0.012471759539378135,
0.1309725685785536,-0.009196993215282404,
0.13102244389027431,0.030584383684485805,
0.13107231920199502,-0.0003199301372867596,
0.1311221945137157,-0.010535903181832423,
0.13117206982543642,0.020870980034155457,
0.1312219451371571,0.03724800346477993,
0.1312718204488778,0.002335866543630238,
0.13132169576059852,0.0012041874091686944,
0.1313715710723192,0.025565385559256214,
0.1314214463840399,0.032252732988622614,
0.1314713216957606,-0.025178404740661478,
0.1315211970074813,0.019654829195352927,
0.13157107231920198,0.024204132449017993,
0.1316209476309227,-0.003240007260548597,
0.1316708229426434,0.014528422509605989,
0.13172069825436408,-0.010733211180529563,
0.1317705735660848,0.012834247218740755,
0.13182044887780547,0.011619071051006555,
0.13187032418952618,-0.0019906224817158877,
0.1319201995012469,0.01613211328971923,
0.13197007481296757,0.010373201944342974,
0.13201995012468828,0.006965074214228727,
0.13206982543640897,0.005779100356900685,
0.13211970074812968,0.010987054366246266,
0.13216957605985039,-0.007686427334397904,
0.13221945137157107,-0.003550943092685766,
0.13226932668329178,-0.0036437807454241956,
0.13231920199501246,0.01544326472875368,
0.13236907730673317,-0.008633972952108986,
0.13241895261845388,-0.03700092997750597,
0.13246882793017456,0.006813678703535778,
0.13251870324189527,-0.02194655225863524,
0.13256857855361595,-0.0029271947495021393,
0.13261845386533666,0.006858955811592575,
0.13266832917705737,-0.009162793119731847,
0.13271820448877805,-0.013823316655040494,
0.13276807980049876,-0.01567928779321031,
0.13281795511221944,0.025955533516233913,
0.13286783042394015,0.026366167523672997,
0.13291770573566083,0.01731751219682838,
0.13296758104738154,-0.0016742280964320425,
0.13301745635910225,-0.0022779932300537637,
0.13306733167082294,0.005283034815565668,
0.13311720698254365,0.008076005684764062,
0.13316708229426433,0.010234865539457912,
0.13321695760598504,0.02205450192900417,
0.13326683291770575,0.002591326882329547,
0.13331670822942643,0.0013257188013849892,
0.13336658354114714,-0.0005895148952043665,
0.13341645885286782,-0.006972235577662487,
0.13346633416458853,-0.004868392321940054,
0.13351620947630924,0.004219234263216653,
0.13356608478802992,0.01539041869181829,
0.13361596009975063,0.01269722396356455,
0.1336658354114713,0.02611856512952631,
0.13371571072319202,-0.0018122553036533312,
0.13376558603491273,-0.006938831214380306,
0.1338154613466334,0.0015278528226001457,
0.13386533665835412,-0.02177803695638371,
0.1339152119700748,0.009529590031954163,
0.13396508728179551,-0.004551264866489819,
0.1340149625935162,-0.016191446873471106,
0.1340648379052369,0.003321484224486493,
0.13411471321695762,0.010195363822250426,
0.1341645885286783,-0.0010743834805766869,
0.134214463840399,-0.015359408211577028,
0.1342643391521197,-0.006931521989853712,
0.1343142144638404,-0.016921379992760638,
0.1343640897755611,0.010582254190686055,
0.1344139650872818,-0.004934104680157036,
0.1344638403990025,-0.04875331947563103,
0.13451371571072318,-0.012339515548035399,
0.1345635910224439,-0.013665503504568598,
0.1346134663341646,-0.004837497524386192,
0.13466334164588528,0.003720278059753109,
0.134713216957606,-0.012377133651200089,
0.13476309226932667,-0.01608357050032269,
0.13481296758104738,-0.0023042192110332704,
0.1348628428927681,-0.04425273934329457,
0.13491271820448877,-0.01803769371064172,
0.13496259351620948,-0.001966423846566934,
0.13501246882793017,0.016982694666076305,
0.13506234413965088,-0.0037038408963492283,
0.13511221945137158,0.018369563268007708,
0.13516209476309227,0.01234669266298515,
0.13521197007481298,-0.035397169328034356,
0.13526184538653366,-0.006365621784854494,
0.13531172069825437,-0.037298651397535056,
0.13536159600997505,-0.025571396528414572,
0.13541147132169576,0.008305514097004335,
0.13546134663341647,0.03189756525327833,
0.13551122194513715,-0.014041692614284937,
0.13556109725685786,-0.028788749731484185,
0.13561097256857854,0.003043947066987811,
0.13566084788029925,-0.0006029034715211747,
0.13571072319201996,-0.0024978993483846072,
0.13576059850374064,-0.011804834557852171,
0.13581047381546135,0.039687192042023436,
0.13586034912718203,-0.00778334148535291,
0.13591022443890274,-0.01709825767165351,
0.13596009975062345,-0.004789875992250099,
0.13600997506234414,-0.007573040091339294,
0.13605985037406484,-0.02777223277194219,
0.13610972568578553,-0.017099759152275566,
0.13615960099750624,-0.012030976673905975,
0.13620947630922695,-0.0032276327204426103,
0.13625935162094763,0.027633540358548384,
0.13630922693266834,-0.023691315193758992,
0.13635910224438902,0.004829411842545463,
0.13640897755610973,-0.022945206179161418,
0.1364588528678304,-0.0069578008167035296,
0.13650872817955112,-0.004645124549025575,
0.13655860349127183,-0.018043155988711784,
0.1366084788029925,0.009278144363933209,
0.13665835411471322,0.012779748713849163,
0.1367082294264339,0.003494384123726154,
0.1367581047381546,-0.00015368104437594315,
0.13680798004987532,-0.03887038741603941,
0.136857855361596,0.0008673704734355591,
0.1369077306733167,-0.02501648283823237,
0.1369576059850374,-0.011814376289659716,
0.1370074812967581,0.006243839628082613,
0.13705735660847881,0.015273193876135637,
0.1371072319201995,0.009189127099886882,
0.1371571072319202,-0.022889179155532242,
0.1372069825436409,-0.02297370002446504,
0.1372568578553616,-0.0017229268829104562,
0.1373067331670823,-0.013752140737664245,
0.137356608478803,-0.008182936322431056,
0.1374064837905237,-0.015158184709844268,
0.13745635910224438,-0.01764338807117623,
0.1375062344139651,-0.00808727671230124,
0.1375561097256858,-0.004024117690947197,
0.13760598503740648,0.0030489626350302668,
0.1376558603491272,0.012377829538995279,
0.13770573566084787,-0.002734398372645423,
0.13775561097256858,-0.02177761489393419,
0.13780548628428926,-0.012058875009575414,
0.13785536159600997,0.003012141761083156,
0.13790523690773068,0.001094830812214771,
0.13795511221945136,-0.029488603689389152,
0.13800498753117207,-0.017490471257722198,
0.13805486284289276,0.004159555222906267,
0.13810473815461347,-0.0057328512630206606,
0.13815461346633418,0.0034347913311374174,
0.13820448877805486,-0.0030239173645485026,
0.13825436408977557,-0.010067393833216547,
0.13830423940149625,-0.027501492077190173,
0.13835411471321696,-0.021939268074775278,
0.13840399002493767,-0.023638184438475145,
0.13845386533665835,0.0022623859692860477,
0.13850374064837906,0.004258498718080466,
0.13855361596009974,0.004808021276914697,
0.13860349127182045,-0.00868086413858206,
0.13865336658354116,-0.005758483880785595,
0.13870324189526184,-0.03829837528853376,
0.13875311720698255,-0.023421345878347488,
0.13880299251870323,0.030275451685179908,
0.13885286783042394,0.009627978731513604,
0.13890274314214462,-0.0037064653372431543,
0.13895261845386533,-0.03208392664624525,
0.13900249376558604,0.0034355025310155198,
0.13905236907730673,0.03755091199008402,
0.13910224438902744,0.01744709181795539,
0.13915211970074812,0.026549228760992177,
0.13920199501246883,-0.012375417170555266,
0.13925187032418954,0.0021451380746965874,
0.13930174563591022,0.013196233366756448,
0.13935162094763093,-0.007564308310746975,
0.1394014962593516,-0.0031612941433935824,
0.13945137157107232,-0.018094555670186453,
0.13950124688279303,0.013776855575525156,
0.1395511221945137,-0.027806995527846066,
0.13960099750623442,-0.010513736007602803,
0.1396508728179551,-0.013742598144048945,
0.1397007481296758,0.008909521978036596,
0.13975062344139652,-0.019990510376420058,
0.1398004987531172,0.021277914607733553,
0.1398503740648379,-0.004809082301361281,
0.1399002493765586,0.010841624579487343,
0.1399501246882793,0.015992976221894353,
0.14,0.00021538546614191913,
0.1400498753117207,-0.001011047445523626,
0.1400997506234414,-0.0028560336348375298,
0.1401496259351621,-0.026403313213859993,
0.1401995012468828,0.003943193505322564,
0.14024937655860348,-0.008866533691733037,
0.1402992518703242,-0.013428210028740097,
0.1403491271820449,0.019582025930947752,
0.14039900249376558,0.02744961727226435,
0.1404488778054863,0.02873255026539326,
0.14049875311720697,0.0035753917320646435,
0.14054862842892768,0.03078383098851285,
0.1405985037406484,-0.0026293504612838626,
0.14064837905236907,0.020333498861930862,
0.14069825436408978,0.0023756820908235887,
0.14074812967581046,0.019630928472946087,
0.14079800498753117,0.006752823096204692,
0.14084788029925188,0.00012064819235103018,
0.14089775561097256,0.0157372649449291,
0.14094763092269327,0.005733962421486087,
0.14099750623441396,0.026123533822838642,
0.14104738154613466,0.012090337721756418,
0.14109725685785537,0.01430154812672798,
0.14114713216957606,0.004373792551862787,
0.14119700748129677,0.008794855349815289,
0.14124688279301745,0.020480880087415256,
0.14129675810473816,0.018218921031101835,
