time,amplitude,label
0.0,-0.020158684067792997,
4.987531172069826e-05,-0.02168140664043551,
9.975062344139652e-05,-0.01044121637771022,
0.00014962593516209475,-0.01572229624749235,
0.00019950124688279303,0.002900648874983692,
0.00024937655860349125,-0.015851346840591127,
0.0002992518703241895,-0.027212332533702185,
0.00034912718204488776,-0.01434706165129896,
0.00039900249376558606,0.001554861831099521,
0.0004488778054862843,-0.01515272635552865,
0.0004987531172069825,-0.0059275105536346195,
0.0005486284289276808,-0.00924163909140272,
0.000598503740648379,-0.017434813441972105,
0.0006483790523690773,0.01735576840159076,
0.0006982543640897755,-0.012677746026035304,
0.0007481296758104738,-0.02012381313503302,
0.0007980049875311721,-0.01007861240300125,
0.0008478802992518703,-0.008479144301567031,
0.0008977556109725686,-0.00178243019951114,
0.0009476309226932668,-0.02831389765223833,
0.000997506234413965,0.005241146627704644,
0.0010473815461346633,0.012972314778239041,
0.0010972568578553616,0.008193399801342628,
0.00114713216957606,-0.0025383575947390603,
0.001197007481296758,-0.01217065643625082,
0.0012468827930174563,0.012029769380993958,
0.0012967581047381546,0.006855813817091556,
0.001346633416458853,0.02247066987939163,
0.001396508728179551,0.006215428478191526,
0.0014463840399002493,0.0237968654994049,
0.0014962593516209476,0.019779379557698432,
0.001546134663341646,0.013423706627195131,
0.0015960099750623442,-0.013368522040839523,
0.0016458852867830423,0.004216987837735834,
0.0016957605985037406,0.01008658889748122,
0.001745635910224439,-0.011325829745359672,
0.0017955112219451373,0.035785455289008665,
0.0018453865336658353,0.013753488827099595,
0.0018952618453865336,0.0024469794930072003,
0.001945137157107232,0.00018243110982468867,
0.00199501246882793,0.003370113826547768,
0.0020448877805486283,0.007137006540524236,
0.0020947630922693266,-0.042822333929814965,
0.002144638403990025,0.00808770138854478,
0.0021945137157107233,0.017798000513567596,
0.0022443890274314216,0.013458245605492834,
0.00229426433915212,0.026724976415593807,
0.0023441396508728177,-0.0008479587777120417,
0.002394014962593516,0.027268494881833617,
0.0024438902743142144,-0.0008611388521359538,
0.0024937655860349127,0.014934434081221963,
0.002543640897755611,0.025959405066539536,
0.0025935162094763093,0.002112667552284152,
0.0026433915211970076,0.0005605395611177778,
0.002693266832917706,0.00937558793449927,
0.002743142144638404,0.029125572059984277,
0.002793017456359102,0.02122544139113359,
0.0028428927680798004,0.0020088908522113546,
0.0028927680798004987,0.04519943668295941,
0.002942643391521197,0.001738789771770664,
0.0029925187032418953,-0.011094193153195955,
0.0030423940149625936,0.006397682573413061,
0.003092269326683292,0.011510052746579498,
0.00314214463840399,0.007291226802506431,
0.0031920199501246885,0.0079781966515796,
0.0032418952618453864,0.03498121367300817,
0.0032917705735660847,0.02078957280408868,
0.003341645885286783,0.014888243595693965,
0.0033915211970074813,-0.005744414984917607,
0.0034413965087281796,-0.004776990498409725,
0.003491271820448878,-0.012766288361617409,
0.003541147132169576,-0.024183549094817354,
0.0035910224438902745,0.01871937935641293,
0.0036408977556109724,-0.02057117073702995,
0.0036907730673316707,0.007816020975249378,
0.003740648379052369,0.044277703273825554,
0.0037905236907730673,0.008266922150154718,
0.0038403990024937656,0.014052577532379146,
0.003890274314214464,0.03352576265661578,
0.003940149625935162,0.01964375802270851,
0.00399002493765586,0.019794094404509056,
0.004039900249376558,0.016547981390794053,
0.004089775561097257,-0.006484906454672552,
0.004139650872817955,-0.006669780934135037,
0.004189526184538653,0.008181151014789782,
0.004239401496259352,0.022152769571401994,
0.00428927680798005,-0.00656301385599746,
0.004339152119700748,0.026074537353437524,
0.0043890274314214465,0.033163122103402276,
0.004438902743142145,0.05041889189319122,
0.004488778054862843,0.02296086701697539,
0.004538653366583541,0.012594580577106522,
0.00458852867830424,0.012395317147862918,
0.004638403990024938,-0.0030798873540013733,
0.0046882793017456355,0.031413034980497315,
0.004738154613466334,0.051857411935148215,
0.004788029925187032,0.02235267006016732,
0.00483790523690773,0.02516273634846533,
0.004887780548628429,0.01966069422792172,
0.004937655860349127,0.03515212088749893,
0.004987531172069825,0.013415814939874432,
0.005037406483790524,0.013878738821272333,
0.005087281795511222,0.015376508091507706,
0.00513715710723192,0.01295355885306814,
0.0051870324189526185,0.03197584357632326,
0.005236907730673317,-0.0018377817878060358,
0.005286783042394015,0.018065203038269303,
0.0053366583541147134,0.041008830516225184,
0.005386533665835412,0.01834412548669816,
0.00543640897755611,0.009389265715355748,
0.005486284289276808,0.018246380540684774,
0.005536159600997507,0.021781812923045138,
0.005586034912718204,-0.0035251697723879608,
0.005635910224438902,0.012302318038112556,
0.005685785536159601,0.02897018099452173,
0.005735660847880299,0.03510513573653483,
0.005785536159600997,0.015646395563792197,
0.005835411471321696,0.01342292009056731,
0.005885286783042394,0.00871622998303315,
0.005935162094763092,0.013755904968666181,
0.0059850374064837905,0.04525608397264001,
0.006034912718204489,0.018410133330209605,
0.006084788029925187,0.015465989670428896,
0.0061346633416458855,0.01370114767040409,
0.006184538653366584,0.023714693453725556,
0.006234413965087282,-0.007805738485927482,
0.00628428927680798,0.02724495548700669,
0.006334164588528679,0.025428569579863308,
0.006384039900249377,0.01785855615666284,
0.006433915211970074,0.016565105061370065,
0.006483790523690773,0.007421776006000502,
0.006533665835411471,0.022664720324281712,
0.006583541147132169,0.032654636790969443,
0.006633416458852868,0.01799924766701957,
0.006683291770573566,0.009127832832816322,
0.006733167082294264,0.024974019467264366,
0.0067830423940149626,0.010132038752742737,
0.006832917705735661,0.00792126775380862,
0.006882793017456359,-0.02291397012929339,
0.0069326683291770575,0.005636629034736747,
0.006982543640897756,0.03019542689749577,
0.007032418952618454,0.007151952272104441,
0.007082294264339152,0.034086859535103965,
0.007132169576059851,0.00988484475046949,
0.007182044887780549,0.022518604732294556,
0.007231920199501247,0.01578441446705868,
0.007281795511221945,0.019081017328204213,
0.007331670822942643,0.013639952426524306,
0.007381546134663341,0.0029174913621591095,
0.00743142144638404,0.03617117831115435,
0.007481296758104738,0.04048378564052643,
0.007531172069825436,0.010136225528182694,
0.007581047381546135,0.009074593297331781,
0.007630922693266833,0.033177018095480515,
0.007680798004987531,0.012424596108920365,
0.0077306733167082295,0.02607511530664003,
0.007780548628428928,0.027607856777971444,
0.007830423940149626,-0.005269657235513467,
0.007880299251870324,0.018909331320525854,
0.007930174563591023,0.048339225853995915,
0.00798004987531172,0.004749126695601975,
0.00802992518703242,0.015901083844723458,
0.008079800498753117,0.03336985033585474,
0.008129675810473816,-0.004615469081506032,
0.008179551122194513,0.013484950079689171,
0.008229426433915213,0.03310765791109207,
0.00827930174563591,-0.003331146296637333,
0.00832917705735661,0.007799695005143596,
0.008379052369077307,0.015060720818411408,
0.008428927680798006,0.009057112308560988,
0.008478802992518703,0.015672165990052493,
0.0085286783042394,0.03270441405037299,
0.0085785536159601,0.002457619753439097,
0.008628428927680797,0.01814014019697773,
0.008678304239401496,0.004834121892057225,
0.008728179551122194,-0.020706063113644237,
0.008778054862842893,0.006979921116777727,
0.00882793017456359,-0.0049344795436814335,
0.00887780548628429,0.02118139904829182,
0.008927680798004987,0.024195750840415062,
0.008977556109725686,0.026377693252009504,
0.009027431421446384,0.021329461058890893,
0.009077306733167083,-0.005101164825051479,
0.00912718204488778,0.01156387898935259,
0.00917705735660848,-0.0017358833405975594,
0.009226932668329177,0.011775508169321219,
0.009276807980049876,0.03587478376090217,
0.009326683291770574,0.01781040344359164,
0.009376558603491271,-0.0009632198518283053,
0.00942643391521197,0.046710692565498244,
0.009476309226932668,0.0037659879541330115,
0.009526184538653367,0.010289503663542875,
0.009576059850374064,-0.005977155199254878,
0.009625935162094763,0.0288096718140858,
0.00967581047381546,-0.012720553314924648,
0.00972568578553616,-0.0021747648222054782,
0.009775561097256857,0.0388840195847031,
0.009825436408977557,0.014449912660988442,
0.009875311720698254,0.017168563070118634,
0.009925187032418953,-0.022792543701688033,
0.00997506234413965,-0.0018602029165581228,
0.01002493765586035,0.012311695243517485,
0.010074812967581047,-0.00870991401976477,
0.010124688279301746,-0.004445223786977007,
0.010174563591022444,0.015151475116740528,
0.010224438902743141,0.00576530263075499,
0.01027431421446384,-0.012953802640464772,
0.010324189526184538,-0.018511009555484265,
0.010374064837905237,-0.0064235131589336514,
0.010423940149625935,0.0052714788729615976,
0.010473815461346634,0.011826567829476449,
0.010523690773067331,0.00755716963782155,
0.01057356608478803,0.011796525888589624,
0.010623441396508728,0.006617487228706049,
0.010673316708229427,-0.0040245834123461156,
0.010723192019950124,0.025125732683290835,
0.010773067331670824,0.008043820899887007,
0.010822942643391521,-0.034358892551642754,
0.01087281795511222,0.005878087109023606,
0.010922693266832918,-0.010553871111305102,
0.010972568578553617,-0.014279598905797206,
0.011022443890274314,0.025878710199111195,
0.011072319201995013,0.0009694540284559199,
0.01112219451371571,0.009415240078362834,
0.011172069825436408,0.002250620075679029,
0.011221945137157107,-0.007773231010668888,
0.011271820448877805,0.005646176717622146,
0.011321695760598504,0.014488202545276106,
0.011371571072319201,0.006500505309288394,
0.0114214463840399,0.007511886096164072,
0.011471321695760598,0.0015455918159924358,
0.011521197007481297,-0.0059920285984681,
0.011571072319201995,-0.005811881452613998,
0.011620947630922694,0.007899144684051012,
0.011670822942643391,-0.0072988189207166,
0.01172069825436409,-0.012328360450300193,
0.011770573566084788,0.01770084158030013,
0.011820448877805487,-0.006055800573533093,
0.011870324189526184,0.029282390576806414,
0.011920199501246884,-0.04657907923442622,
0.011970074812967581,-0.024655448014008208,
0.012019950124688279,-0.005394707438491761,
0.012069825436408978,0.008517849099591416,
0.012119700748129675,0.021017436334620415,
0.012169576059850374,0.040222573730481624,
0.012219451371571072,-0.008085878773064631,
0.012269326683291771,-0.006210887153544326,
0.012319201995012468,-0.014097975996134382,
0.012369077306733168,-0.03435461172190242,
0.012418952618453865,0.02027152241978087,
0.012468827930174564,-0.03487180992728405,
0.012518703241895262,0.00785053417124941,
0.01256857855361596,0.024677032510168197,
0.012618453865336658,-0.006555421290088665,
0.012668329177057357,0.010602860412139595,
0.012718204488778055,0.02797218127923426,
0.012768079800498754,-0.0010730634188928648,
0.012817955112219451,0.0021512881197879793,
0.012867830423940149,-0.0111506420430261,
0.012917705735660848,-0.0020679503689975233,
0.012967581047381545,-0.0020203700413156207,
0.013017456359102245,0.005683897891163935,
0.013067331670822942,-0.025822185268226473,
0.013117206982543641,-0.012199100626894036,
0.013167082294264339,-0.02254541128326042,
0.013216957605985038,0.008996758505870554,
0.013266832917705735,-0.005810841441914628,
0.013316708229426434,0.00922048440267626,
0.013366583541147132,-0.008749315400219795,
0.013416458852867831,-0.00040243019005605993,
0.013466334164588529,-0.009521987113789487,
0.013516209476309228,-0.011451357838985163,
0.013566084788029925,-0.006339678564624873,
0.013615960099750624,-0.02947045406243532,
0.013665835411471322,-0.023478650511414942,
0.01371571072319202,-0.017539478513599983,
0.013765586034912718,-0.028799950068976485,
0.013815461346633416,0.010248139082666299,
0.013865336658354115,-0.027178519803703706,
0.013915211970074812,-0.02247445008828111,
0.013965087281795512,-0.03344905516087189,
0.014014962593516209,-0.006498405934484376,
0.014064837905236908,-0.001360035972497094,
0.014114713216957606,0.007247244607491534,
0.014164588528678305,-0.027047529803687183,
0.014214463840399002,-0.015453794420495813,
0.014264339152119701,-0.014954945802900193,
0.014314214463840399,-0.03125484419179339,
0.014364089775561098,0.002424119431003336,
0.014413965087281795,0.011107489501813578,
0.014463840399002495,-0.014204374160993469,
0.014513715710723192,-0.030373683978640362,
0.01456359102244389,0.002293926652719911,
0.014613466334164589,-0.008803213651514822,
0.014663341645885286,-0.03655078382425109,
0.014713216957605985,-0.0016098827843119088,
0.014763092269326683,-0.022341531858410417,
0.014812967581047382,0.013653615565312919,
0.01486284289276808,-0.024474635806139025,
0.014912718204488778,-0.014479934268162454,
0.014962593516209476,-0.015320864823114892,
0.015012468827930175,-0.03087371409277575,
0.015062344139650873,-0.011192843213827276,
0.015112219451371572,-0.01203072543790407,
0.01516209476309227,-0.015625627130143496,
0.015211970074812968,-0.004241976487688244,
0.015261845386533666,-0.03865860832544557,
0.015311720698254365,-0.02480919849456583,
0.015361596009975062,-0.02106383135664552,
0.01541147132169576,-0.023086670596674283,
0.015461346633416459,-0.02665776707966623,
0.015511221945137156,-0.007144318718346717,
0.015561097256857856,-0.03052405974071721,
0.015610972568578553,-0.04286865861851984,
0.015660847880299252,-0.00661162781169981,
0.01571072319201995,-0.023727359655017644,
0.015760598503740647,-0.00494449967427643,
0.015810473815461346,-0.014571374901825945,
0.015860349127182045,-0.01621956468512181,
0.015910224438902745,-0.00026752078566351367,
0.01596009975062344,-0.003092883558138207,
0.01600997506234414,-0.01574833295291208,
0.01605985037406484,-0.013699428816683951,
0.016109725685785538,-0.028184502016925354,
0.016159600997506234,-0.017191948000909216,
0.016209476309226933,-0.03305935496964877,
0.016259351620947632,-0.02326840005504847,
0.016309226932668328,-0.015356452368342106,
0.016359102244389027,-0.025432763913069333,
0.016408977556109726,-0.024957635409264933,
0.016458852867830425,-0.015553686304231155,
0.01650872817955112,-0.04697845913184825,
0.01655860349127182,-0.024134886555382436,
0.01660847880299252,-0.00443880891295418,
0.01665835411471322,-0.007425900560866219,
0.016708229426433914,-0.020129980513806264,
0.016758104738154613,-0.010808856912322046,
0.016807980049875312,-0.01606115788208822,
0.01685785536159601,-0.029799354490022023,
0.016907730673316707,-0.013300002165508307,
0.016957605985037406,-0.029715926770489377,
0.017007481296758106,-0.03770585348639978,
0.0170573566084788,-0.022292683905927705,
0.0171072319201995,-0.019745919418750594,
0.0171571072319202,-0.020990331243321128,
0.0172069825436409,-0.012085148678091665,
0.017256857855361595,-0.012944451457737066,
0.017306733167082294,-0.005986089647350229,
0.017356608478802993,-0.0290830533105204,
0.017406483790523692,-0.031584391505872944,
0.017456359102244388,-0.03000116139673511,
0.017506234413965087,-0.02106854782740956,
0.017556109725685786,-0.03847573377846984,
0.017605985037406485,-0.021586588409358176,
0.01765586034912718,-0.01994610694944974,
0.01770573566084788,0.010432556642527395,
0.01775561097256858,-0.008530517421407962,
0.01780548628428928,-0.009304622948554584,
0.017855361596009974,-0.012360637740396387,
0.017905236907730673,-0.026934676549216767,
0.017955112219451373,-0.03038859023681563,
0.018004987531172068,0.0073761318091986015,
0.018054862842892767,-0.013001254921940708,
0.018104738154613467,-0.01648610321613527,
0.018154613466334166,-0.02477839226183755,
0.01820448877805486,-0.03882898669567578,
0.01825436408977556,-0.03828636762218714,
0.01830423940149626,-0.007222948472139446,
0.01835411471321696,-0.013120083743911387,
0.018403990024937655,-0.018872862663881638,
0.018453865336658354,0.011479130790325066,
0.018503740648379053,0.0015947401150674181,
0.018553615960099752,0.0032751696648159086,
0.018603491271820448,0.0019943268832214485,
0.018653366583541147,-0.0077354477701666,
0.018703241895261846,-0.015318197241492745,
0.018753117206982542,-0.016991202938663342,
0.01880299251870324,-0.005851938376013325,
0.01885286783042394,-0.024180468695342933,
0.01890274314214464,-0.0072490919345911025,
0.018952618453865335,-0.03448749536765701,
0.019002493765586034,-0.002999380258837425,
0.019052369077306733,-0.013704519542904097,
0.019102244389027433,-0.002230955459636242,
0.01915211970074813,-0.009974589986938155,
0.019201995012468828,-0.00837433045066627,
0.019251870324189527,0.0005851838212878983,
0.019301745635910226,-0.04037210737699192,
0.01935162094763092,0.0016596051528607238,
0.01940149625935162,-0.004339411557742919,
0.01945137157107232,0.015638602455364546,
0.01950124688279302,0.004902203234822277,
0.019551122194513715,0.011918748349611572,
0.019600997506234414,-0.00955466897639545,
0.019650872817955113,0.0077591488446664,
0.01970074812967581,-0.010131450178797734,
0.019750623441396508,0.005138704909475341,
0.019800498753117207,-0.03935447164309293,
0.019850374064837906,-0.007724868779748981,
0.019900249376558602,-0.01567390116499664,
0.0199501246882793,-0.01882731757897762,
0.02,0.01993971802106359,
0.0200498753117207,-0.0012149379252568782,
0.020099750623441395,-0.0002657707522090375,
0.020149625935162094,-0.001839160763784522,
0.020199501246882794,-0.04072735020202416,
0.020249376558603493,0.00936853181454355,
0.02029925187032419,-0.041043575157452376,
0.020349127182044888,0.022363890063264013,
0.020399002493765587,-0.01765190258774587,
0.020448877805486283,0.00784727280514183,
0.02049875311720698,-0.007026298376464686,
0.02054862842892768,0.010567049069421297,
0.02059850374064838,0.002788125030540053,
0.020648379052369076,-0.023118567165698788,
0.020698254364089775,0.0071863606442612235,
0.020748129675810474,0.010034263477656829,
0.020798004987531173,0.004925023213645357,
0.02084788029925187,0.0017708813064472352,
0.020897755610972568,-0.021836127167510842,
0.020947630922693267,0.00855187606335186,
0.020997506234413967,-0.010210664236189913,
0.021047381546134662,-0.0010261467802760316,
0.02109725685785536,-0.02586112437870081,
0.02114713216957606,1.6148555965068805e-06,
0.02119700748129676,0.01789687288227309,
0.021246882793017455,-0.01588179694463361,
0.021296758104738155,0.010026769490429605,
0.021346633416458854,-0.003273391299056312,
0.02139650872817955,0.03265846683802724,
0.02144638403990025,-0.001747876006838546,
0.021496259351620948,-0.006556519432598743,
0.021546134663341647,0.00845456866193809,
0.021596009975062343,0.007517990545060246,
0.021645885286783042,0.006523140858029483,
0.02169576059850374,-0.001486597928204209,
0.02174563591022444,0.019426696242660392,
0.021795511221945136,0.009308214538428766,
0.021845386533665835,-0.0030532107597210003,
0.021895261845386534,-0.01084085898623884,
0.021945137157107233,0.01084827088230805,
0.02199501246882793,0.002475130787029875,
0.02204488778054863,-0.03595346485359185,
0.022094763092269327,0.016121790885183875,
0.022144638403990027,0.0169908458865002,
0.022194513715710722,0.001625866406730037,
0.02224438902743142,-0.02060961255146554,
0.02229426433915212,-0.0030863464304491522,
0.022344139650872816,0.01848914688609435,
0.022394014962593516,-0.003558118429268082,
0.022443890274314215,-0.01980336785513858,
0.022493765586034914,0.008677086265018334,
0.02254364089775561,0.023641575357537,
0.02259351620947631,-0.003710391724611139,
0.022643391521197008,0.013172090301032086,
0.022693266832917707,0.002975682205298975,
0.022743142144638403,-0.001345590455598955,
0.022793017456359102,-0.015213627678914292,
0.0228428927680798,0.02521911025299221,
0.0228927680798005,0.04303900379361546,
0.022942643391521196,0.005065934003925203,
0.022992518703241895,0.005376716126840462,
0.023042394014962594,0.021219708788733214,
0.02309226932668329,0.02076370869874905,
0.02314214463840399,0.001172164300942741,
0.02319201995012469,0.01606635062571507,
0.023241895261845388,0.030653867081506508,
0.023291770573566083,-0.011499504896175525,
0.023341645885286783,-0.02216643498754944,
0.02339152119700748,0.013440706403438262,
0.02344139650872818,0.009179660724880618,
0.023491271820448877,0.024860764653691615,
0.023541147132169576,0.025248777272510684,
0.023591022443890275,0.006753571776494792,
0.023640897755610974,0.0006719984667590152,
0.02369077306733167,0.025182153470477475,
0.02374064837905237,0.009982768659068116,
0.023790523690773068,0.0057033599315149,
0.023840399002493767,0.025395172993202424,
0.023890274314214463,0.02779913122343173,
0.023940149625935162,0.029558869397164497,
0.02399002493765586,0.014848621579719492,
0.024039900249376557,0.029391882514074666,
0.024089775561097256,-0.0005689584188788947,
0.024139650872817955,-0.01230949866437192,
0.024189526184538655,0.018062880353886646,
0.02423940149625935,0.02155827610155336,
0.02428927680798005,0.02640919131207627,
0.02433915211970075,0.029594264472431544,
0.024389027431421448,0.013665092149757446,
0.024438902743142144,0.02563139720875208,
0.024488778054862843,0.033444596630772996,
0.024538653366583542,0.03254418609710378,
0.02458852867830424,0.030705839826064216,
0.024638403990024937,0.006721640728487325,
0.024688279301745636,0.009996949467025921,
0.024738154613466335,0.014725183107150049,
0.02478802992518703,0.03979040989983915,
0.02483790523690773,0.02300577937281037,
0.02488778054862843,0.014270460920259857,
0.02493765586034913,0.04243214346294821,
0.024987531172069824,0.010456448676659472,
0.025037406483790523,0.010800288530626744,
0.025087281795511222,0.0361951934946661,
0.02513715710723192,0.013870134750365411,
0.025187032418952617,0.030024291125458534,
0.025236907730673316,0.04120183444871013,
0.025286783042394016,0.0021292269868404892,
0.025336658354114715,0.0024821084157136963,
0.02538653366583541,0.027856919830981756,
0.02543640897755611,0.014297602937134554,
0.02548628428927681,0.014678132947441167,
0.025536159600997508,0.006821587635975649,
0.025586034912718204,0.002984821369435252,
0.025635910224438903,0.01165297931326303,
0.025685785536159602,0.034820376229607146,
0.025735660847880298,0.06104855620921174,
0.025785536159600997,0.01952309975528012,
0.025835411471321696,0.0005783924104569294,
0.025885286783042395,0.015643323843327592,
0.02593516209476309,0.015394587980705164,
0.02598503740648379,-0.004247827422753366,
0.02603491271820449,0.06180940148985802,
0.02608478802992519,0.0234438655608503,
0.026134663341645884,0.011978555052875555,
0.026184538653366583,0.0400573624456624,
0.026234413965087282,0.020644615093151165,
0.02628428927680798,0.01756789790724456,
0.026334164588528677,0.021503972310775464,
0.026384039900249377,0.03557266083098501,
0.026433915211970076,0.05572362435701306,
0.02648379052369077,0.03262481624751154,
0.02653366583541147,0.01747731305328583,
0.02658354114713217,0.03143108697099946,
0.02663341645885287,0.013390480145728424,
0.026683291770573565,0.02055120612550154,
0.026733167082294264,0.020429361389879767,
0.026783042394014963,0.04299786301323476,
0.026832917705735662,0.011738800498933237,
0.026882793017456358,0.009226468267653758,
0.026932668329177057,0.027965418275431708,
0.026982543640897756,0.023571052099576446,
0.027032418952618455,0.011978171303247248,
0.02708229426433915,0.04073229513266055,
0.02713216957605985,0.0321824417692452,
0.02718204488778055,-0.00473101641875142,
0.02723192019950125,0.007435384731446646,
0.027281795511221944,0.008633584427429463,
0.027331670822942643,0.009761117976336796,
0.027381546134663343,0.045411217620342156,
0.02743142144638404,0.04579881702132314,
0.027481296758104738,0.018326505133974304,
0.027531172069825437,0.00939547526492381,
0.027581047381546136,0.007566434926397379,
0.02763092269326683,0.04074754179728327,
0.02768079800498753,0.01751921616596143,
0.02773067331670823,0.00485561202885222,
0.02778054862842893,0.006987071062522001,
0.027830423940149625,0.030127679007859686,
0.027880299251870324,0.02724637701195506,
0.027930174563591023,-0.004273882101215348,
0.027980049875311722,0.00655288872997337,
0.028029925187032418,0.02322509295712408,
0.028079800498753117,-0.006759404722628641,
0.028129675810473816,0.031241558196173025,
0.028179551122194512,0.014417674490239469,
0.02822942643391521,0.030545943436810656,
0.02827930174563591,0.0018223724924813708,
0.02832917705735661,-0.00017369008688186693,
0.028379052369077305,0.005065661515362169,
0.028428927680798004,0.03257728931349027,
0.028478802992518704,0.05429821317869921,
0.028528678304239403,-0.004019116341908258,
0.0285785536159601,0.04326923191099616,
0.028628428927680798,0.03204555361151253,
0.028678304239401497,0.019384864195434632,
0.028728179551122196,0.020169511293102148,
0.02877805486284289,0.01418296428138168,
0.02882793017456359,0.014628237227318985,
0.02887780548628429,0.036267731787867144,
0.02892768079800499,0.042179099993859194,
0.028977556109725685,0.019226405104610655,
0.029027431421446384,0.0022593871023789854,
0.029077306733167083,0.02677823683315622,
0.02912718204488778,0.01421316076954113,
0.029177057356608478,0.019091402880447313,
0.029226932668329177,0.034177161364719176,
0.029276807980049877,0.004789697697810914,
0.029326683291770572,-0.003619142342309813,
0.02937655860349127,0.009129343647382424,
0.02942643391521197,0.01401841704864547,
0.02947630922693267,0.03828688891837417,
0.029526184538653365,-0.005189929726179262,
0.029576059850374065,0.009473871196957296,
0.029625935162094764,0.023877639480219204,
0.029675810473815463,0.027286755366385054,
0.02972568578553616,0.029889420231974117,
0.029775561097256858,0.01556683153703202,
0.029825436408977557,0.009299536664076954,
0.029875311720698253,-0.009348309538907144,
0.029925187032418952,0.04665668635927933,
0.02997506234413965,0.04970744984448647,
0.03002493765586035,0.012796009281391563,
0.030074812967581046,-0.006689735537886614,
0.030124688279301745,0.00707447188289914,
0.030174563591022444,0.006757398233948388,
0.030224438902743143,0.033547326070735586,
0.03027431421446384,-0.018464244231539535,
0.03032418952618454,-0.00830144920627398,
0.030374064837905237,-0.02327192179578605,
0.030423940149625937,-0.0021837207130974683,
0.030473815461346632,0.021732214319372473,
0.03052369077306733,0.017183881118129747,
0.03057356608478803,0.012306097107161455,
0.03062344139650873,0.013818459402686853,
0.030673316708229426,-0.02734674869675331,
0.030723192019950125,0.0023129387049231013,
0.030773067331670824,0.0057746057703142286,
0.03082294264339152,0.02914042385688039,
0.03087281795511222,0.013646863588283502,
0.030922693266832918,-0.006443076027558286,
0.030972568578553617,0.01920817915544238,
0.031022443890274313,-0.0011066581006313478,
0.031072319201995012,-0.009091122392567489,
0.03112219451371571,-0.0175182866854616,
0.03117206982543641,-0.017162987631496367,
0.031221945137157106,0.006207999058525645,
0.03127182044887781,0.02475633337705005,
0.031321695760598504,0.02080135582467399,
0.0313715710723192,0.014892975969715512,
0.0314214463840399,-0.006142359608632283,
0.0314713216957606,-0.03770665321972992,
0.031521197007481294,-0.009326824517985654,
0.031571072319202,0.00676826225301494,
0.03162094763092269,0.0007842677895959374,
0.03167082294264339,0.005387045001589165,
0.03172069825436409,-0.01172149902078401,
0.03177057356608479,-0.007437102099992732,
0.03182044887780549,0.0031025478100864473,
0.031870324189526185,0.002521874752315464,
0.03192019950124688,-0.02286593275176824,
0.03197007481296758,-0.005601587814063008,
0.03201995012468828,-0.002875603408271759,
0.032069825436408975,0.0008602913379000274,
0.03211970074812968,-0.021001541785270385,
0.03216957605985037,-0.010846348623712448,
0.032219451371571076,-0.006842470482860073,
0.03226932668329177,0.017479383784176412,
0.03231920199501247,-0.010871680441239524,
0.03236907730673317,-0.0006766949812823135,
0.032418952618453865,0.02385543517398816,
0.03246882793017456,0.02372479862929513,
0.032518703241895264,-0.00900257868206987,
0.03256857855361596,-0.0030869902797106795,
0.032618453865336655,-0.0090830050728854,
0.03266832917705736,-0.005848215412809386,
0.032718204488778053,-0.006505063715104574,
0.032768079800498756,0.007109106168110689,
0.03281795511221945,-0.004970450307948081,
0.03286783042394015,0.004149789950370967,
0.03291770573566085,0.0036366017619489073,
0.032967581047381546,-0.016140754288635754,
0.03301745635910224,0.005941119015938532,
0.033067331670822944,-0.011261621261318213,
0.03311720698254364,-0.036631844653460935,
0.03316708229426434,-0.03254701109880202,
0.03321695760598504,-0.005549536610344524,
0.033266832917705734,-0.025004345399964944,
0.03331670822942644,0.01019690017005695,
0.03336658354114713,-0.00937420714855372,
0.03341645885286783,-0.05804914410325561,
0.03346633416458853,-0.021575902393286925,
0.033516209476309226,-0.013128556442099823,
0.03356608478802992,-0.033829033730550975,
0.033615960099750625,-0.020419599514187405,
0.03366583541147132,-0.011192750453874549,
0.03371571072319202,-0.01414828544879452,
0.03376558603491272,-0.008463800842824255,
0.033815461346633414,-0.0024897378708683103,
0.03386533665835412,-0.00412771943151307,
0.03391521197007481,-0.01223243746051365,
0.03396508728179551,-0.007528589024633964,
0.03401496259351621,-0.011112791177715785,
0.03406483790523691,-0.008784600453229041,
0.0341147132169576,-0.020016014791374534,
0.034164588528678305,-0.008100181552820463,
0.034214463840399,-0.02785123239939071,
0.034264339152119704,0.0015438826163307398,
0.0343142144638404,-0.024166628616881694,
0.034364089775561095,-0.015016056072924906,
0.0344139650872818,-0.04089200141509092,
0.03446384039900249,-0.01941059614587767,
0.03451371571072319,-0.014284311358512335,
0.03456359102244389,0.0013519659420986423,
0.03461346633416459,-0.0006866330568576617,
0.03466334164588529,-0.029590557365108544,
0.034713216957605986,0.015043143139369332,
0.03476309226932668,-0.023652873309715855,
0.034812967581047384,-0.013353263770908706,
0.03486284289276808,-0.01050096360149435,
0.034912718204488775,0.013709525388764857,
0.03496259351620948,-0.015279063173833032,
0.035012468827930174,-0.02538732434117643,
0.03506234413965087,-0.013343988396979731,
0.03511221945137157,-0.007675297213340891,
0.03516209476309227,-0.0033016047609682082,
0.03521197007481297,-0.000135341669714531,
0.035261845386533666,-0.017000739337926004,
0.03531172069825436,-0.005488094438444993,
0.035361596009975065,-0.028128508278228256,
0.03541147132169576,-0.022311710894026275,
0.035461346633416456,-0.0059858605706802,
0.03551122194513716,-0.027592798280617427,
0.035561097256857854,-0.02612922701117419,
0.03561097256857856,-0.008265985102521996,
0.03566084788029925,0.00333521314864714,
0.03571072319201995,-0.02511294666735689,
0.03576059850374065,-0.030902944794916953,
0.03581047381546135,-0.030635816574066343,
0.03586034912718204,-0.004473858517482455,
0.035910224438902745,-0.005764294936812022,
0.03596009975062344,-0.013017434757631244,
0.036009975062344136,-0.009164921573945353,
0.03605985037406484,-0.031408593828557554,
0.036109725685785535,0.003132476561637964,
0.03615960099750624,-0.01733651381737976,
0.03620947630922693,-0.02419017252088993,
0.03625935162094763,-0.00949552739053515,
0.03630922693266833,-0.03949011802341732,
0.03635910224438903,0.0022862282998661644,
0.03640897755610972,-0.004606872152977495,
0.036458852867830426,-0.037595856365626124,
0.03650872817955112,-0.024398673308346545,
0.036558603491271824,-0.016721918522968848,
0.03660847880299252,-0.014855486368933347,
0.036658354114713215,-0.044865393590419064,
0.03670822942643392,0.0010606009175981625,
0.036758104738154614,-0.0404297326123597,
0.03680798004987531,-0.03779192803833363,
0.03685785536159601,-0.04330529758897323,
0.03690773067331671,-0.028922900991255156,
0.0369576059850374,-0.05618212237160096,
0.037007481296758106,-0.011732425703239222,
0.0370573566084788,-0.012413926817250351,
0.037107231920199504,-0.02594462224696194,
0.0371571072319202,-0.0017793911085486908,
0.037206982543640896,-0.005377704921041336,
0.0372568578553616,-0.017966125053561516,
0.037306733167082294,-0.028830170669492006,
0.03735660847880299,-0.0107277294509267,
0.03740648379052369,-0.009833593285362947,
0.03745635910224439,-0.020410622956416574,
0.037506234413965084,-0.007169925050732783,
0.037556109725685786,-0.044836494849046185,
0.03760598503740648,-0.016821980683337553,
0.037655860349127185,-0.017098184942456726,
0.03770573566084788,-0.025436651606102277,
0.037755610972568576,0.005559659374699268,
0.03780548628428928,-0.025206571835135035,
0.037855361596009975,-0.0014150300674669446,
0.03790523690773067,-0.011212406783119399,
0.03795511221945137,-0.028135981065714664,
0.03800498753117207,-0.021676129199750715,
0.03805486284289277,0.005281564263337615,
0.03810473815461347,-0.028132662446916055,
0.03815461346633416,0.0038916946486991077,
0.038204488778054865,-0.000361502918253518,
0.03825436408977556,-0.015970967550678547,
0.03830423940149626,-0.007393277383810075,
0.03835411471321696,-0.02434760823879691,
0.038403990024937655,-0.014440712058622211,
0.03845386533665835,-0.029944564918730057,
0.03850374064837905,0.007808976072746752,
0.03855361596009975,-0.0022562381545381312,
0.03860349127182045,-0.036018383549137875,
0.03865336658354115,-0.011117321880253455,
0.03870324189526184,-0.026816251607020978,
0.038753117206982546,-0.010846147344432533,
0.03880299251870324,0.0040473714316540815,
0.03885286783042394,0.0018126090473251349,
0.03890274314214464,-0.005349901536211716,
0.038952618453865336,-0.005243257654283706,
0.03900249376558604,0.017103037193131644,
0.039052369077306734,-0.02106717916326518,
0.03910224438902743,-0.028483291576429634,
0.03915211970074813,0.003366296935640528,
0.03920199501246883,-0.01628119244509009,
0.039251870324189524,-0.017468285152764274,
0.039301745635910226,-0.014321607289819098,
0.03935162094763092,-0.009077277466564867,
0.03940149625935162,0.003493616265658535,
0.03945137157107232,-0.03642995618367335,
0.039501246882793016,-0.0072942578847563,
0.03955112219451372,-0.021832173254563183,
0.039600997506234414,-0.010254456542836358,
0.03965087281795511,-0.0028427209718437374,
0.03970074812967581,-0.00176040799584945,
0.03975062344139651,-0.003355202450069867,
0.039800498753117204,-0.015161379950321236,
0.03985037406483791,-0.02103264026475695,
0.0399002493765586,-0.0017724106104330286,
0.039950124688279305,-0.006078056500546368,
0.04,-0.001007886627393375,
0.0400498753117207,-0.010186168788615491,
0.0400997506234414,0.0003342886816957457,
0.040149625935162095,-0.029296421593116153,
0.04019950124688279,-0.028374312926892745,
0.04024937655860349,-0.016349494184372936,
0.04029925187032419,-0.016020981538724322,
0.040349127182044885,0.003952486364376005,
0.04039900249376559,-0.024174853367296814,
0.04044887780548628,0.007040870728051704,
0.040498753117206986,-0.014082152667170661,
0.04054862842892768,0.003550965385691867,
0.04059850374064838,-0.005101316488011305,
0.04064837905236908,-0.012232472175605967,
0.040698254364089775,-0.01265767256245662,
0.04074812967581047,0.006644733859217851,
0.040798004987531174,-0.0074154757186744805,
0.04084788029925187,-0.012523208257721342,
0.040897755610972565,0.0008234981523675584,
0.04094763092269327,0.020337067477578314,
0.04099750623441396,0.0013112562103803384,
0.041047381546134666,0.007350925527369951,
0.04109725685785536,0.008059664610205047,
0.04114713216957606,0.021921014424096295,
0.04119700748129676,-0.04873009133715083,
0.041246882793017456,-0.003123870436791242,
0.04129675810473815,0.004194252277483996,
0.041346633416458854,0.0016224856821936452,
0.04139650872817955,0.012097856833695828,
0.04144638403990025,0.00809609289800848,
0.04149625935162095,0.010575769451041488,
0.041546134663341644,-0.0010140492856796253,
0.04159600997506235,0.01638838374976993,
0.04164588528678304,0.028084167470450106,
0.04169576059850374,-0.003563193367926723,
0.04174563591022444,0.0007277775963382199,
0.041795511221945136,-0.005816760326577965,
0.04184538653366583,0.02866955896456655,
0.041895261845386535,0.017713584472283887,
0.04194513715710723,-0.008318817624331398,
0.04199501246882793,0.020129834365878705,
0.04204488778054863,0.0018669948460062783,
0.042094763092269324,0.0156616042866254,
0.04214463840399003,0.0048624517136977435,
0.04219451371571072,0.014571565408712692,
0.04224438902743142,0.02817968709937433,
0.04229426433915212,0.02343272808650384,
0.04234413965087282,0.014993802721941136,
0.04239401496259352,0.012847064148947533,
0.042443890274314215,0.011571989007579837,
0.04249376558603491,0.023941904855073626,
0.042543640897755614,-0.011969563220922488,
0.04259351620947631,-0.0004440714725690992,
0.042643391521197005,0.0018675317368474654,
0.04269326683291771,0.0361903267516686,
0.0427431421446384,0.0251335132253244,
0.0427930174563591,0.028134858549063738,
0.0428428927680798,0.021500141961634925,
0.0428927680798005,0.011939631019508914,
0.0429426433915212,0.01091054942473202,
0.042992518703241896,0.02006701280988053,
0.04304239401496259,0.003582556251098894,
0.043092269326683294,0.019726594744483763,
0.04314214463840399,0.013435232423289886,
0.043192019950124685,0.011236884908073813,
0.04324189526184539,0.012756791723070395,
0.043291770573566084,0.02988443491927036,
0.043341645885286786,0.008503969956555888,
0.04339152119700748,0.034831223276903425,
0.04344139650872818,0.01868373511491934,
0.04349127182044888,0.0027558339370248094,
0.043541147132169576,0.000809386926175739,
0.04359102244389027,0.02372982050988683,
0.043640897755610975,0.013275250309762619,
0.04369077306733167,0.005923828636642588,
0.043740648379052366,0.042749770859892594,
0.04379052369077307,0.032827763077149116,
0.043840399002493764,0.006122341814485512,
0.04389027431421447,0.026203682594155377,
0.04394014962593516,0.00817142847765981,
0.04399002493765586,0.018856767736827654,
0.04403990024937656,0.009198977732967248,
0.04408977556109726,0.009886539650636366,
0.04413965087281795,0.010894651253354978,
0.044189526184538655,0.031214256650773764,
0.04423940149625935,0.021653907668196973,
0.04428927680798005,0.03213985401395898,
0.04433915211970075,0.035877539862808734,
0.044389027431421445,0.02463365516466211,
0.04443890274314215,0.025630234391242526,
0.04448877805486284,-0.0015446219326213408,
0.04453865336658354,0.018718134714077305,
0.04458852867830424,0.017695200341746892,
0.04463840399002494,0.008935674304079844,
0.04468827930174563,0.02089032362945632,
0.044738154613466335,0.05263420597775925,
0.04478802992518703,0.025355374936064344,
0.044837905236907734,0.021017533185980816,
0.04488778054862843,0.021073545482179955,
0.044937655860349125,0.026227134509428842,
0.04498753117206983,0.030559360293873898,
0.045037406483790524,0.002571928318321936,
0.04508728179551122,0.0024548268006167537,
0.04513715710723192,0.0038709599611695122,
0.04518703241895262,0.03413975533606142,
0.04523690773067331,0.007392086864616728,
0.045286783042394016,0.007161793015684268,
0.04533665835411471,0.04094335678504378,
0.045386533665835414,0.03714389428443541,
0.04543640897755611,0.056387960676903895,
0.045486284289276806,0.02772491833701826,
0.04553615960099751,0.050207814825279515,
0.045586034912718204,0.026798265523469724,
0.0456359102244389,-0.008278091359454367,
0.0456857855361596,0.04287037677733658,
0.0457356608478803,0.016171755428773197,
0.045785536159601,0.06126420842087513,
0.045835411471321696,0.014538476319121781,
0.04588528678304239,0.03615122978605269,
0.045935162094763095,0.019204914420581524,
0.04598503740648379,0.0405614301817357,
0.046034912718204486,0.027116786674605955,
0.04608478802992519,0.03287378874066836,
0.046134663341645885,0.007143959228772357,
0.04618453865336658,0.04683810257974611,
0.04623441396508728,0.04836041893920873,
0.04628428927680798,0.05894324774333866,
0.04633416458852868,0.04480673116250348,
0.04638403990024938,0.028000343632123757,
0.04643391521197007,0.0032636926354219324,
0.046483790523690775,0.0094538852996354,
0.04653366583541147,0.01638141664935081,
0.04658354114713217,0.03454744882776924,
0.04663341645885287,0.0203284681531915,
0.046683291770573565,0.003496902714358912,
0.04673316708229427,0.019464855610309813,
0.04678304239401496,0.030300765152963004,
0.04683291770573566,0.02628031602717976,
0.04688279301745636,0.034445032030456166,
0.04693266832917706,0.033100094861905835,
0.04698254364089775,0.02039425859106534,
0.047032418952618456,0.011504173267642888,
0.04708229426433915,0.05387030532074365,
0.04713216957605985,0.021939008418285624,
0.04718204488778055,0.016037777645763703,
0.047231920199501246,0.023793945847229044,
0.04728179551122195,0.017302072269577196,
0.047331670822942644,0.028832392279362573,
0.04738154613466334,-0.0007175247101340702,
0.04743142144638404,0.023044201015384506,
0.04748129675810474,0.01970810241987706,
0.047531172069825434,0.019070205848964634,
0.047581047381546136,0.015070980255194086,
0.04763092269326683,0.025429923978601995,
0.047680798004987535,0.022507078904150223,
0.04773067331670823,0.03209636730016735,
0.047780548628428926,0.014372960602016628,
0.04783042394014963,0.024070020145428646,
0.047880299251870324,0.022572610300215117,
0.04793017456359102,0.03283443858268023,
0.04798004987531172,0.005781929266357554,
0.04802992518703242,0.003367113865533889,
0.048079800498753114,0.034905653180384195,
0.04812967581047382,0.02456018420156563,
0.04817955112219451,0.03760799305606143,
0.048229426433915215,0.019746096992119967,
0.04827930174563591,-0.010676436184735644,
0.048329177057356607,0.010953765064520041,
0.04837905236907731,-0.0104024917126442,
0.048428927680798005,0.004494899465026358,
0.0484788029925187,-0.006083781998803842,
0.0485286783042394,0.028038341286033535,
0.0485785536159601,0.00797881255429877,
0.048628428927680795,0.008574146868445324,
0.0486783042394015,-0.005577639991061194,
0.04872817955112219,0.006877106810282259,
0.048778054862842896,0.01782296377451449,
0.04882793017456359,0.005078739981296213,
0.04887780548628429,0.030925831639799704,
0.04892768079800499,0.031043815812042058,
0.048977556109725685,0.0036903389558919416,
0.04902743142144638,0.012734202738021953,
0.049077306733167084,0.006827730176300697,
0.04912718204488778,0.0029595958675598232,
0.04917705735660848,0.00421431563090619,
0.04922693266832918,0.007518014631373245,
0.04927680798004987,0.013496134065162813,
0.049326683291770576,0.015822251133064867,
0.04937655860349127,0.038290463468180415,
0.04942643391521197,0.008797630107813469,
0.04947630922693267,0.04397518563346306,
0.049526184538653366,0.01813427627281023,
0.04957605985037406,0.026045353719388608,
0.049625935162094764,0.017642178460007065,
0.04967581047381546,0.021959963301799085,
0.04972568578553616,0.003443091633071653,
0.04977556109725686,-0.0037821981421183124,
0.049825436408977554,0.011528801627997163,
0.04987531172069826,0.016153060019495312,
0.04992518703241895,0.04010891063826143,
0.04997506234413965,0.014457442555634702,
0.05002493765586035,0.018872433074408727,
0.050074812967581046,0.0022265822608485784,
0.05012468827930175,-0.0011627995051042526,
0.050174563591022445,0.0031479817394445284,
0.05022443890274314,0.03632145533066312,
0.05027431421446384,0.030744112394348284,
0.05032418952618454,-0.0016826049681589773,
0.050374064837905234,0.0017698908572583959,
0.05042394014962594,0.020137100245924633,
0.05047381546134663,-0.006449060921819742,
0.05052369077306733,-0.009820265487985416,
0.05057356608478803,0.003024426326219844,
0.05062344139650873,-0.022389263038024493,
0.05067331670822943,-0.002152802386594586,
0.050723192019950125,-0.005928725117323659,
0.05077306733167082,0.01585807681834199,
0.050822942643391524,0.023155615057046934,
0.05087281795511222,0.014595801946897259,
0.050922693266832915,0.015189657958069402,
0.05097256857855362,0.014789184301391136,
0.05102244389027431,0.018220625676486836,
0.051072319201995016,0.010980628442943556,
0.05112219451371571,0.007594274341957342,
0.05117206982543641,0.006868661869821436,
0.05122194513715711,-0.019089452845750317,
0.051271820448877806,0.0168544644012884,
0.0513216957605985,-0.006955918479214401,
0.051371571072319204,-0.012096643392113002,
0.0514214463840399,0.010492213182393191,
0.051471321695760595,0.022319226571551668,
0.0515211970074813,-0.013575288977111044,
0.051571072319201994,0.013712952705802172,
0.051620947630922696,-0.004635719789707638,
0.05167082294264339,-0.01922244561456562,
0.05172069825436409,0.0031772594801756327,
0.05177057356608479,-0.003119842996138096,
0.051820448877805486,-0.021985613745527488,
0.05187032418952618,-0.0005510374065891883,
0.051920199501246884,-0.002552778235808655,
0.05197007481296758,0.05252998600877366,
0.052019950124688276,0.027811416402127108,
0.05206982543640898,-0.034294168826976654,
0.052119700748129674,-0.0021132380196200494,
0.05216957605985038,0.00942992962618103,
0.05221945137157107,0.004285929484163182,
0.05226932668329177,0.007254404151987383,
0.05231920199501247,-0.02397808820775947,
0.05236907730673317,-0.0033795404015290265,
0.05241895261845386,-0.010778825081377768,
0.052468827930174565,-0.013263563898344297,
0.05251870324189526,-0.00836992984109471,
0.05256857855361596,-0.026376174353880937,
0.05261845386533666,-0.031178363794712758,
0.052668329177057355,-0.018106166611450633,
0.05271820448877806,0.007080967075411238,
0.05276807980049875,-0.019888559152898812,
0.05281795511221945,-0.02417003554196589,
0.05286783042394015,-0.008667389627755977,
0.05291770573566085,0.002030793381290516,
0.05296758104738154,0.005609322180839097,
0.053017456359102245,-0.04078794982435599,
0.05306733167082294,-0.009649047649253934,
0.053117206982543644,-0.018705348485685495,
0.05316708229426434,-0.0030740706569219317,
0.053216957605985035,0.020620340346505787,
0.05326683291770574,-0.03419741991519576,
0.053316708229426434,-0.0048977096991411565,
0.05336658354114713,-0.004166488237088523,
0.05341645885286783,0.019131416586023315,
0.05346633416458853,-0.015932359053031288,
0.05351620947630923,-0.024615382770190503,
0.053566084788029926,-0.025055006254590756,
0.05361596009975062,-0.025266424942383698,
0.053665835411471324,0.004047383637915625,
0.05371571072319202,-0.00233565957509807,
0.053765586034912716,-0.04234519280734841,
0.05381546134663342,-0.008345285984140033,
0.053865336658354114,0.018997242990294594,
0.05391521197007481,-0.01924791871183664,
0.05396508728179551,0.0005534913177455587,
0.05401496259351621,-0.02422396236574686,
0.05406483790523691,-0.00281912631210055,
0.054114713216957606,-0.0017266802892586426,
0.0541645885286783,0.026367530335843076,
0.054214463840399005,0.004418086064200081,
0.0542643391521197,-0.017671041189033725,
0.054314214463840396,0.03726368098167597,
0.0543640897755611,0.004919867717093521,
0.054413965087281795,-0.029830780067372286,
0.0544638403990025,0.01567195228216782,
0.05451371571072319,-0.03121720811638241,
0.05456359102244389,0.03281353133258626,
0.05461346633416459,-0.04088151150723423,
0.05466334164588529,-0.016554447631500328,
0.05471321695760598,-0.0014121277672982154,
0.054763092269326685,-0.008356503718104473,
0.05481296758104738,-0.018258519297796597,
0.05486284289276808,-0.019236709528875684,
0.05491271820448878,-0.01901427569468926,
0.054962593516209475,-0.009246233428744196,
0.05501246882793018,-0.01218557405455486,
0.05506234413965087,-0.004119540701493113,
0.05511221945137157,-0.020639161962782617,
0.05516209476309227,0.004335776026889277,
0.05521197007481297,-0.033334653737947466,
0.05526184538653366,-0.03258194259035305,
0.055311720698254366,-0.017413073403662337,
0.05536159600997506,0.0006293092122788956,
0.05541147132169576,-0.02662201342830259,
0.05546134663341646,-0.014974350408789765,
0.055511221945137156,0.010030969192149467,
0.05556109725685786,0.003962879350047056,
0.055610972568578554,-0.012256368630364892,
0.05566084788029925,-0.015534640341702485,
0.05571072319201995,-0.005092322646285712,
0.05576059850374065,-0.0040103698605394745,
0.055810473815461344,-0.019878834408964513,
0.055860349127182046,-0.02508530630642659,
0.05591022443890274,-0.002351633159552738,
0.055960099750623445,0.007682277900693899,
0.05600997506234414,-0.02006133494058638,
0.056059850374064836,-0.02206110908745407,
0.05610972568578554,-0.035281932481123296,
0.056159600997506234,0.007603491647040064,
0.05620947630922693,-0.024252256910615444,
0.05625935162094763,-0.011949774907245733,
0.05630922693266833,-0.015958593178302356,
0.056359102244389024,-0.0250109248678403,
0.05640897755610973,-0.007284307124267229,
0.05645885286783042,-0.006023194108106407,
0.056508728179551125,-0.03549031321372583,
0.05655860349127182,-0.03685159837328163,
0.056608478802992516,-0.013710671893736792,
0.05665835411471322,-0.03776247405939646,
0.056708229426433915,-0.013854711226370185,
0.05675810473815461,-0.03414395591994198,
0.05680798004987531,-0.01680420773262656,
0.05685785536159601,-0.022085961275142004,
0.05690773067331671,-0.0011164615757409142,
0.05695760598503741,-0.007219808432091024,
0.0570074812967581,-0.0047025746079643015,
0.057057356608478806,-0.025755422151288974,
0.0571072319201995,-0.008526817190791866,
0.0571571072319202,0.026605642841496087,
0.0572069825436409,-0.012357907726822416,
0.057256857855361595,-0.03314692676328786,
0.05730673316708229,0.0167148147889715,
0.057356608478802994,-0.028687172656690536,
0.05740648379052369,-0.055603136326275004,
0.05745635910224439,-0.020972459938297525,
0.05750623441396509,-0.015732555419599545,
0.05755610972568578,-0.05092838462658268,
0.057605985037406486,0.009379874539756373,
0.05765586034912718,-0.028926585720027407,
0.05770573566084788,-0.025714413374880382,
0.05775561097256858,-0.003425643053045631,
0.057805486284289276,-0.03596169203055634,
0.05785536159600998,-0.018858236918908557,
0.057905236907730674,-0.027290421414114162,
0.05795511221945137,-0.002052474332944785,
0.05800498753117207,-0.035997124358780414,
0.05805486284289277,-0.0010293644006188658,
0.058104738154613464,0.00650235151325443,
0.05815461346633417,-0.022859082949859173,
0.05820448877805486,-0.019862717117932537,
0.05825436408977556,-0.01657287053031664,
0.05830423940149626,-0.008944233679999976,
0.058354114713216956,-0.01184264881486388,
0.05840399002493766,-0.002152261387830725,
0.058453865336658355,-0.004270042302825854,
0.05850374064837905,-0.003804320602751884,
0.05855361596009975,-0.015782438878231986,
0.05860349127182045,-0.028475779773743482,
0.058653366583541144,-0.010969970602810164,
0.05870324189526185,0.00647650517122406,
0.05875311720698254,-0.009178398524433615,
0.05880299251870324,-0.02076982904791022,
0.05885286783042394,0.016618127049463895,
0.05890274314214464,-0.007075840294496466,
0.05895261845386534,-0.010624167517858281,
0.059002493765586035,-0.00044164389910036905,
0.05905236907730673,-0.02239256915092283,
0.059102244389027433,-0.02050620704695354,
0.05915211970074813,-0.012377722054653706,
0.059201995012468825,-0.00504788734718041,
0.05925187032418953,-0.02333145231282264,
0.05930174563591022,-0.0007161697645379087,
0.059351620947630926,-0.030953301176047176,
0.05940149625935162,-0.023662553184276545,
0.05945137157107232,0.012764233869548468,
0.05950124688279302,-0.0027460111808804847,
0.059551122194513716,0.02837404981108232,
0.05960099750623441,-0.019264107793073495,
0.059650872817955114,0.02262972648205862,
0.05970074812967581,-0.015157053193298124,
0.059750623441396505,-0.0024511570594751364,
0.05980049875311721,-0.015062109909420137,
0.059850374064837904,-0.015785814494983324,
0.059900249376558606,0.0026611808011600983,
0.0599501246882793,-0.014411777653823519,
0.06,0.03307748054503494,
0.0600498753117207,0.012337381331369714,
0.060099750623441396,-0.008584286919091941,
0.06014962593516209,0.013650765408196515,
0.060199501246882794,-0.031726256855552984,
0.06024937655860349,-0.0025878454961790268,
0.06029925187032419,-0.0002749778806324922,
0.06034912718204489,0.014042569994236306,
0.060399002493765584,-0.02369774258912544,
0.06044887780548629,-0.014660113148723567,
0.06049875311720698,0.017673935536896727,
0.06054862842892768,-0.006159079783443442,
0.06059850374064838,-0.016116971030369173,
0.06064837905236908,0.0004131336996873794,
0.06069825436408977,0.005451577016742027,
0.060748129675810475,0.004756487446185452,
0.06079800498753117,-0.003609865717721805,
0.06084788029925187,-0.028666716168748115,
0.06089775561097257,-0.022504561895878482,
0.060947630922693265,0.024413632209502066,
0.06099750623441397,-0.006766639029256366,
0.06104738154613466,0.027162847926189927,
0.06109725685785536,-0.002407948990818266,
0.06114713216957606,-0.003992214436138664,
0.06119700748129676,0.001478814606107856,
0.06124688279301746,0.007410568710233993,
0.061296758104738155,0.002913904858054212,
0.06134663341645885,0.010061311025462379,
0.061396508728179554,0.02248248818023924,
0.06144638403990025,-0.01978959973997949,
0.061496259351620945,0.0008909011600519772,
0.06154613466334165,-0.011529125808884612,
0.061596009975062344,0.010657762616691768,
0.06164588528678304,-0.007024382805633092,
0.06169576059850374,0.008477289194089471,
0.06174563591022444,0.017762645268853815,
0.06179551122194514,-0.00882649784285591,
0.061845386533665836,0.018140560628217457,
0.06189526184538653,0.019291015609014205,
0.061945137157107234,-0.017189539360449698,
0.06199501246882793,0.018039386367600475,
0.062044887780548626,0.0010943092065499715,
0.06209476309226933,0.005554458609083466,
0.062144638403990024,0.022481574572845584,
0.06219451371571072,-0.0027140386865077346,
0.06224438902743142,-0.0015178224931694517,
0.06229426433915212,-0.0007560876453798701,
0.06234413965087282,0.0008659567435126848,
0.062394014962593516,0.03433196241527635,
0.06244389027431421,0.009760629274296342,
0.062493765586034915,0.011302808132292657,
0.06254364089775562,0.033203177914858106,
0.06259351620947631,0.00707467146890836,
0.06264339152119701,0.017752311893106363,
0.0626932668329177,0.007515588007372318,
0.0627431421446384,0.006684200821735107,
0.0627930174563591,0.018955668247189375,
0.0628428927680798,0.014117436661120808,
0.0628927680798005,0.016864507119840767,
0.0629426433915212,-0.0023747151465519298,
0.06299251870324189,0.029723355850230233,
0.06304239401496259,0.020734689441443674,
0.0630922693266833,0.006051476315605814,
0.063142144638404,0.0005874005656863711,
0.06319201995012469,0.03976396148459176,
0.06324189526184539,0.017269156012684344,
0.06329177057356608,0.02241264995240406,
0.06334164588528678,0.021163386487006042,
0.06339152119700749,0.016137379964879968,
0.06344139650872818,0.008333162990000854,
0.06349127182044888,0.011102311886884087,
0.06354114713216957,0.042748751290875464,
0.06359102244389027,0.008085580793116165,
0.06364089775561098,0.036980209013794244,
0.06369077306733167,0.009986956896178942,
0.06374064837905237,0.03278126783770346,
0.06379052369077307,0.02369567036849137,
0.06384039900249376,0.04110789861273336,
0.06389027431421446,0.02394884219353735,
0.06394014962593517,0.011916273337405385,
0.06399002493765586,0.02101340288388678,
0.06403990024937656,0.020090463343032057,
0.06408977556109725,0.02119048140810777,
0.06413965087281795,0.003827068896291131,
0.06418952618453866,0.03294171876761304,
0.06423940149625935,0.03716030134590821,
0.06428927680798005,0.022076855798573294,
0.06433915211970075,-0.0030112675508773626,
0.06438902743142144,0.03158591953587886,
0.06443890274314215,0.024493011447821303,
0.06448877805486285,0.03800675450773587,
0.06453865336658354,0.020098592731764623,
0.06458852867830424,0.0394663895163946,
0.06463840399002493,0.026149871520287048,
0.06468827930174563,0.02506397716574347,
0.06473815461346634,0.04773106487668929,
0.06478802992518704,0.033028629869264095,
0.06483790523690773,-0.00563624043138803,
0.06488778054862843,0.01369466746446304,
0.06493765586034912,0.028289802404744345,
0.06498753117206983,0.0426838505628727,
0.06503740648379053,0.004774528434237684,
0.06508728179551122,0.020429137630904464,
0.06513715710723192,0.027092328870991562,
0.06518703241895261,0.023432534335940024,
0.06523690773067331,0.030419354154961664,
0.06528678304239402,0.019081271229874356,
0.06533665835411472,0.04905514093071009,
0.06538653366583541,0.013034593885673894,
0.06543640897755611,0.005006521747318998,
0.0654862842892768,0.039197674391325446,
0.06553615960099751,-0.0009801738729707903,
0.06558603491271821,0.04102197982060794,
0.0656359102244389,0.03317956749540493,
0.0656857855361596,-0.006122934326498141,
0.0657356608478803,0.018591892193919594,
0.06578553615960099,0.023132189160482142,
0.0658354114713217,0.03011728195908783,
0.0658852867830424,0.03589629657860542,
0.06593516209476309,0.04429695887745981,
0.06598503740648379,0.042546902398527854,
0.06603491271820448,0.014796376747651255,
0.06608478802992519,0.013735173760880508,
0.06613466334164589,0.011082205002317666,
0.06618453865336658,0.018962703021720782,
0.06623441396508728,0.056441664501440315,
0.06628428927680798,0.005179848518383667,
0.06633416458852869,0.028705866671586366,
0.06638403990024938,0.02615947793206613,
0.06643391521197008,0.012293470327561203,
0.06648379052369077,0.01811766513519531,
0.06653366583541147,0.03292352326324982,
0.06658354114713216,0.03253453504775074,
0.06663341645885287,0.002189058711418723,
0.06668329177057357,0.023070108657359877,
0.06673316708229426,0.036309549514719104,
0.06678304239401496,0.009209060282246039,
0.06683291770573566,0.03167425280227784,
0.06688279301745637,0.02742325232239944,
0.06693266832917706,0.02326648432726661,
0.06698254364089776,0.010812985845482698,
0.06703241895261845,0.02074835873740105,
0.06708229426433915,0.021595117565532947,
0.06713216957605984,0.03304464365260413,
0.06718204488778055,0.008678876188231977,
0.06723192019950125,0.02215569285488651,
0.06728179551122195,0.01587967230676841,
0.06733167082294264,0.02504503945587292,
0.06738154613466334,-0.002726126296097208,
0.06743142144638405,0.0053116853830335355,
0.06748129675810474,0.043946952967031896,
0.06753117206982544,0.025792695399952777,
0.06758104738154613,0.04849042621293195,
0.06763092269326683,-0.0028741676499633717,
0.06768079800498752,0.053954128790412406,
0.06773067331670823,0.059452955944702124,
0.06778054862842893,0.044206958222384345,
0.06783042394014963,0.037097620877196716,
0.06788029925187032,0.04122857163862577,
0.06793017456359102,0.0191196191941541,
0.06798004987531173,0.0346378389278797,
0.06802992518703242,0.01602191018405417,
0.06807980049875312,0.025565603791915047,
0.06812967581047381,-0.003486592493268832,
0.06817955112219451,0.02809538441755983,
0.0682294264339152,0.03279860721473936,
0.06827930174563591,0.03371209873215863,
0.06832917705735661,0.03161756456884708,
0.0683790523690773,-0.00371968910596885,
0.068428927680798,0.013648341488412177,
0.0684788029925187,0.02183437113336577,
0.06852867830423941,0.030057944368762288,
0.0685785536159601,0.029780938539528443,
0.0686284289276808,-0.011319827195181122,
0.0686783042394015,0.024338943021059295,
0.06872817955112219,0.026867830027181534,
0.0687780548628429,0.05221510577563887,
0.0688279301745636,0.023722929756184924,
0.06887780548628429,-0.005758786648417915,
0.06892768079800499,0.03473694275161964,
0.06897755610972568,0.002857578861770741,
0.06902743142144638,-0.007772760696008581,
0.06907730673316709,0.0015251213485238183,
0.06912718204488778,0.02449591218499933,
0.06917705735660848,0.015321000865479946,
0.06922693266832917,0.01975511212217354,
0.06927680798004987,-0.0046970952016815275,
0.06932668329177058,0.032150106586130336,
0.06937655860349128,0.020742446633469958,
0.06942643391521197,0.031659662709972954,
0.06947630922693267,0.008357372088481745,
0.06952618453865336,0.023897424680048067,
0.06957605985037406,0.004943009315283216,
0.06962593516209477,0.022882879746360663,
0.06967581047381546,0.02888704364477567,
0.06972568578553616,0.011028741712143927,
0.06977556109725686,0.0074357694723397065,
0.06982543640897755,0.02583747930748931,
0.06987531172069826,0.02460806421781004,
0.06992518703241896,0.018508119858272713,
0.06997506234413965,0.023862718103860855,
0.07002493765586035,-0.0002628727561206669,
0.07007481296758104,0.03459081763923416,
0.07012468827930174,0.024744698627821943,
0.07017456359102245,0.01427610119134634,
0.07022443890274314,-0.002889714283826684,
0.07027431421446384,0.04823532093981425,
0.07032418952618454,0.000761119976806621,
0.07037406483790523,-0.008318871562956912,
0.07042394014962594,-0.014159254450351367,
0.07047381546134664,0.026855712300324193,
0.07052369077306733,0.021703828853688413,
0.07057356608478803,0.011024195401298953,
0.07062344139650872,0.008292768358385745,
0.07067331670822943,0.02856699124536368,
0.07072319201995013,-0.01453923011995114,
0.07077306733167082,0.01988366921606083,
0.07082294264339152,-0.007379802612923077,
0.07087281795511222,0.035871125004332344,
0.07092269326683291,0.029443954528010477,
0.07097256857855362,0.022432301340249018,
0.07102244389027432,0.031699773859057735,
0.07107231920199501,-0.0045605863218843795,
0.07112219451371571,0.018802756838247205,
0.0711720698254364,0.004974987608708188,
0.07122194513715711,0.00044723229593807406,
0.07127182044887781,0.0044985660026566005,
0.0713216957605985,0.012748925136324552,
0.0713715710723192,0.002814272878463299,
0.0714214463840399,0.020303904188603526,
0.07147132169576059,-0.009004694677576214,
0.0715211970074813,0.007789535627965482,
0.071571072319202,-0.017512431224319877,
0.0716209476309227,0.019667778465728727,
0.07167082294264339,0.012129916602638723,
0.07172069825436408,0.008909964087916812,
0.0717705735660848,0.001386248991373397,
0.07182044887780549,-0.017080334265596284,
0.07187032418952619,0.004318512995652123,
0.07192019950124688,-0.03784017347943371,
0.07197007481296758,-0.017378563817587844,
0.07201995012468827,0.012716376992541582,
0.07206982543640898,0.008079541525839165,
0.07211970074812968,-0.01411153175809478,
0.07216957605985037,0.0030818007020815964,
0.07221945137157107,0.008252338909946186,
0.07226932668329177,-0.029639506925204843,
0.07231920199501247,-0.0046043065583828025,
0.07236907730673317,-0.013845525054436685,
0.07241895261845387,-0.012711794593089609,
0.07246882793017456,-0.023235262782040418,
0.07251870324189526,-0.0339455922863235,
0.07256857855361595,-0.04446952261397134,
0.07261845386533666,0.006051246904963436,
0.07266832917705736,0.016205801920506968,
0.07271820448877805,0.016487326668874935,
0.07276807980049875,-0.01024313617186286,
0.07281795511221945,-0.011911246717163839,
0.07286783042394016,0.0003339643960717561,
0.07291770573566085,0.0046092653291622656,
0.07296758104738155,-0.008931999340649623,
0.07301745635910224,-0.018632635537272808,
0.07306733167082294,-0.023191796422086717,
0.07311720698254365,-0.029422132012451977,
0.07316708229426434,-0.03443618895946789,
0.07321695760598504,-0.011131869829927258,
0.07326683291770573,0.010142838481730988,
0.07331670822942643,-0.0003128124916276266,
0.07336658354114713,-0.0015033728102299797,
0.07341645885286784,-0.009579538634397713,
0.07346633416458853,-0.004598655129842885,
0.07351620947630923,-0.02500963918170889,
0.07356608478802992,0.03296102201627694,
0.07361596009975062,0.032049990787940325,
0.07366583541147133,0.012966629932572962,
0.07371571072319202,0.0023026263987052428,
0.07376558603491272,-0.034660495185977615,
0.07381546134663342,0.0051836399600419854,
0.07386533665835411,-0.0015111352328520903,
0.0739152119700748,-0.0253636500100174,
0.07396508728179552,-0.0114437373020961,
0.07401496259351621,-0.0203671902705777,
0.07406483790523691,-0.019368322258639867,
0.0741147132169576,-0.0048176965975264855,
0.0741645885286783,-0.02952680377174689,
0.07421446384039901,-0.025457337688366163,
0.0742643391521197,-0.026932542515551078,
0.0743142144638404,0.0059947240627314345,
0.0743640897755611,-0.03109202594769972,
0.07441396508728179,-0.025242220107187983,
0.07446384039900249,-0.014906101255270256,
0.0745137157107232,-0.008368776342423192,
0.07456359102244389,-0.020997427975368577,
0.07461346633416459,-0.01421036401934617,
0.07466334164588528,-0.014290399768764518,
0.07471321695760598,-0.01811163039902729,
0.07476309226932669,-0.003854125984602561,
0.07481296758104738,-0.017875296725633823,
0.07486284289276808,0.004253522812181065,
0.07491271820448878,-0.029373228158022003,
0.07496259351620947,-0.00443606926861183,
0.07501246882793017,-0.010798593221777108,
0.07506234413965088,-0.000765697684403226,
0.07511221945137157,0.011519565173822586,
0.07516209476309227,-0.019714510028155552,
0.07521197007481296,-0.001397284033031635,
0.07526184538653366,0.004948614524577561,
0.07531172069825437,-0.006844983316413962,
0.07536159600997507,0.0004974046618520384,
0.07541147132169576,-0.03715210413540419,
0.07546134663341646,-0.017607835409926154,
0.07551122194513715,-0.005976121773639379,
0.07556109725685786,-0.0077841418014718815,
0.07561097256857856,-0.0027498459054756275,
0.07566084788029925,0.0013622100511635916,
0.07571072319201995,-0.021699437068707056,
0.07576059850374064,-0.0010531164428268722,
0.07581047381546134,0.0009103032886929492,
0.07586034912718205,-0.010365236138546514,
0.07591022443890275,-0.0005056078239146656,
0.07596009975062344,0.015212591865813576,
0.07600997506234414,-0.012630122004224822,
0.07605985037406483,-0.013632403653043757,
0.07610972568578554,-0.02257339960295947,
0.07615960099750624,-0.01514357114926186,
0.07620947630922693,0.0031706243038821334,
0.07625935162094763,0.006498362874532622,
0.07630922693266833,-0.017783637184481418,
0.07635910224438902,0.015878315637696025,
0.07640897755610973,-0.02332110965513181,
0.07645885286783043,-0.03486626818393276,
0.07650872817955112,-0.013599658595430008,
0.07655860349127182,-0.03218685843846051,
0.07660847880299251,-0.018956637212569728,
0.07665835411471322,-0.045599425957139714,
0.07670822942643392,0.001364642852575447,
0.07675810473815461,-0.005640508375828806,
0.07680798004987531,-0.0309533813014249,
0.076857855361596,-0.04199541541200171,
0.0769077306733167,-0.017238680354969952,
0.07695760598503741,0.0021367224886223654,
0.0770074812967581,-0.021430173246512044,
0.0770573566084788,-0.042925003515943,
0.0771072319201995,0.0205990696202466,
0.0771571072319202,-0.005824492564466355,
0.0772069825436409,-0.013760331875895353,
0.0772568578553616,-0.014285836186578329,
0.0773067331670823,-0.01716805873319993,
0.07735660847880299,-0.018882705179863447,
0.07740648379052369,0.03858368339682355,
0.0774563591022444,-0.006688806821959267,
0.07750623441396509,-0.008954868791311143,
0.07755610972568579,0.007442537486549062,
0.07760598503740648,-0.0046673303262497615,
0.07765586034912718,-0.01680874175774903,
0.07770573566084787,-0.013721401765716904,
0.07775561097256858,-0.0012512685598799478,
0.07780548628428928,0.018750498881848765,
0.07785536159600998,-0.00955999040397745,
0.07790523690773067,-0.0066349808122160075,
0.07795511221945137,0.006894096388235842,
0.07800498753117208,-0.009467669528396234,
0.07805486284289277,-0.013092897380757538,
0.07810473815461347,-0.0068394874790235075,
0.07815461346633416,-0.01667387354018189,
0.07820448877805486,-0.007361846857162544,
0.07825436408977555,-0.015930890675309145,
0.07830423940149626,-0.02640290681500119,
0.07835411471321696,-0.004378034738371491,
0.07840399002493766,-0.028392901364468176,
0.07845386533665835,-0.010573470021336327,
0.07850374064837905,-0.0035722045219472908,
0.07855361596009976,-0.007718744150894106,
0.07860349127182045,0.003061052614454624,
0.07865336658354115,-0.03799705684325309,
0.07870324189526184,-0.011365406804950708,
0.07875311720698254,-0.0005941791460355112,
0.07880299251870324,-0.021286961352357525,
0.07885286783042394,-0.01644093980734117,
0.07890274314214464,-0.02112066176970981,
0.07895261845386534,-0.003144994021868095,
0.07900249376558603,0.015543330345557714,
0.07905236907730673,-0.038922337808746196,
0.07910224438902744,-0.012914085607118275,
0.07915211970074813,-0.022951290267077,
0.07920199501246883,-0.00514736271908057,
0.07925187032418952,-0.029339278640154627,
0.07930174563591022,-0.018839284006573826,
0.07935162094763092,0.0036051041781800745,
0.07940149625935163,-0.005084529592732103,
0.07945137157107232,-0.016205969065440723,
0.07950124688279302,-0.02674638443881922,
0.07955112219451371,0.005140936981677345,
0.07960099750623441,-0.014649433807546158,
0.07965087281795512,0.0027528790847218534,
0.07970074812967581,-0.0019871426730603556,
0.07975062344139651,-0.00309100016791157,
0.0798004987531172,0.023670608111261045,
0.0798503740648379,-0.004728533368288103,
0.07990024937655861,-0.004473362321902819,
0.0799501246882793,-0.005924955489428355,
0.08,0.008535719916215864,
0.0800498753117207,-0.010238252668263868,
0.0800997506234414,-0.00015411705415285413,
0.08014962593516209,0.010218780067421353,
0.0801995012468828,-0.010517273083330822,
0.0802493765586035,0.01458319454006448,
0.08029925187032419,0.004248823276784466,
0.08034912718204489,0.016457341357493598,
0.08039900249376558,0.0056531311068804165,
0.08044887780548629,-0.03153503855412232,
0.08049875311720699,0.006587579145194732,
0.08054862842892768,-0.015443608560977751,
0.08059850374064838,0.003951634494489547,
0.08064837905236907,0.002590848986450505,
0.08069825436408977,0.01912087294779765,
0.08074812967581048,-0.0065716790447453224,
0.08079800498753117,0.00878318398198787,
0.08084788029925187,0.025127993692561745,
0.08089775561097257,-0.008191666387512583,
0.08094763092269326,0.026804342538882982,
0.08099750623441397,0.005859248909163205,
0.08104738154613467,-0.004915957914885006,
0.08109725685785536,4.551147024275514e-05,
0.08114713216957606,0.0022493185438836037,
0.08119700748129675,-0.010935757743490468,
0.08124688279301745,-0.020727734956677818,
0.08129675810473816,-0.034598649283894695,
0.08134663341645886,0.001184404101570385,
0.08139650872817955,-0.02867509702665997,
0.08144638403990025,-0.006478580618752016,
0.08149625935162094,-0.018132350245730525,
0.08154613466334165,0.019364677527742798,
0.08159600997506235,-0.007923221591625784,
0.08164588528678304,0.0027254493919699474,
0.08169576059850374,0.0069237987637121474,
0.08174563591022443,0.026245883456523247,
0.08179551122194513,0.003786781426145719,
0.08184538653366584,0.012141225265389449,
0.08189526184538654,0.024149675705328135,
0.08194513715710723,0.013120251044675492,
0.08199501246882793,0.005527522239486507,
0.08204488778054862,0.021728365585133694,
0.08209476309226933,0.02764549124888252,
0.08214463840399003,0.021907839753989536,
0.08219451371571072,0.02642806578570639,
0.08224438902743142,0.033010224308903074,
0.08229426433915212,0.006705591214073039,
0.08234413965087282,-0.0018024674812439235,
0.08239401496259352,0.003768274042951887,
0.08244389027431422,-0.01956433844744139,
0.08249376558603491,0.01669884621993087,
0.08254364089775561,0.020484878263761705,
0.0825935162094763,0.03021169024184048,
0.08264339152119701,0.005346105191638615,
0.08269326683291771,0.02686632199021153,
0.0827431421446384,0.0070115207317363,
0.0827930174563591,0.012695087935177705,
0.0828428927680798,0.0024635625794147045,
0.0828927680798005,-0.0018061397355063,
0.0829426433915212,0.004857364245778669,
0.0829925187032419,0.019104847019773108,
0.08304239401496259,0.01812323500411428,
0.08309226932668329,0.030357451062483498,
0.08314214463840398,0.02092976348245009,
0.0831920199501247,0.018728985547302842,
0.08324189526184539,0.03177723575742017,
0.08329177057356608,0.01835503441509153,
0.08334164588528678,0.00016060662154416053,
0.08339152119700748,0.024886936218516377,
0.08344139650872819,0.029807272641418667,
0.08349127182044888,0.030521741453633948,
0.08354114713216958,0.025610698898704605,
0.08359102244389027,0.03993877846421688,
0.08364089775561097,0.0033103280787906766,
0.08369077306733166,0.027744384707873937,
0.08374064837905237,-0.0014561991130314818,
0.08379052369077307,0.0235570178144377,
0.08384039900249377,0.039848368261400584,
0.08389027431421446,-0.021279527842713686,
0.08394014962593516,0.011295181733878678,
0.08399002493765587,0.006934520448055549,
0.08403990024937656,0.019011881835610145,
0.08408977556109726,0.022876864706251908,
0.08413965087281795,0.013659137261600743,
0.08418952618453865,0.03099091916798951,
0.08423940149625936,0.02580239354096528,
0.08428927680798005,0.007883408555940573,
0.08433915211970075,0.04587881463736469,
0.08438902743142145,0.055191627203846474,
0.08443890274314214,-0.0038411080091955083,
0.08448877805486284,0.0383896985136611,
0.08453865336658355,0.04829664949418784,
0.08458852867830424,0.02172172673835253,
0.08463840399002494,0.01644248446714627,
0.08468827930174563,0.0207306836068625,
0.08473815461346633,0.010588167909885798,
0.08478802992518704,0.011670057271656178,
0.08483790523690773,0.03626084004891645,
0.08488778054862843,0.024422651096311337,
0.08493765586034913,0.03771286313540262,
0.08498753117206982,0.012444978448285337,
0.08503740648379052,-0.015585309552505283,
0.08508728179551123,0.03126143477710139,
0.08513715710723192,0.002658265385861582,
0.08518703241895262,0.037060747203025025,
0.08523690773067331,0.01717698892898984,
0.08528678304239401,0.002421336777123702,
0.08533665835411472,0.02347279506445658,
0.08538653366583542,0.031759134435353165,
0.08543640897755611,0.02918116066536671,
0.0854862842892768,0.01612633756784859,
0.0855361596009975,0.024784112365830658,
0.0855860349127182,0.018931267437029786,
0.08563591022443891,0.03647585588870691,
0.0856857855361596,0.014454483601628624,
0.0857356608478803,0.026198906522763653,
0.085785536159601,0.040003427522776226,
0.08583541147132169,0.024915743362002137,
0.0858852867830424,0.012078012377742569,
0.0859351620947631,0.021784222312482792,
0.08598503740648379,0.033395601192768964,
0.08603491271820449,0.016065506628627643,
0.08608478802992518,0.033724166750414106,
0.08613466334164588,0.03441860422366913,
0.08618453865336659,0.005358107221486212,
0.08623441396508728,0.035580813532558965,
0.08628428927680798,0.02907333447526337,
0.08633416458852868,0.0033497199913605606,
0.08638403990024937,0.011720265204325557,
0.08643391521197008,0.010333914705587772,
0.08648379052369078,0.026869251606823265,
0.08653366583541147,0.021587052578789904,
0.08658354114713217,0.033662916047865414,
0.08663341645885286,0.030632840896789075,
0.08668329177057357,0.038314071414545174,
0.08673316708229427,0.03073214822334705,
0.08678304239401496,0.02663509862013977,
0.08683291770573566,0.00943948496445933,
0.08688279301745636,0.009996257488966171,
0.08693266832917705,0.035376136432950386,
0.08698254364089776,0.02751361989778143,
0.08703241895261846,0.04355026066874208,
0.08708229426433915,0.038158333347555334,
0.08713216957605985,0.039198981475435504,
0.08718204488778054,0.020649274199539977,
0.08723192019950125,0.013945641339299639,
0.08728179551122195,0.03466377066167142,
0.08733167082294264,0.021069422936214707,
0.08738154613466334,0.014021146117110379,
0.08743142144638404,0.030822988028723557,
0.08748129675810473,0.06006841726066775,
0.08753117206982544,0.03633283291564518,
0.08758104738154614,0.04827468724433295,
0.08763092269326683,0.018861530120868584,
0.08768079800498753,0.004734085291016273,
0.08773067331670822,0.028268414387622006,
0.08778054862842893,0.04773809035559036,
0.08783042394014963,0.034844990828324485,
0.08788029925187033,0.042713100126063316,
0.08793017456359102,0.026965900544223733,
0.08798004987531172,0.03435403969669441,
0.08802992518703241,0.054967732577116506,
0.08807980049875312,0.00916450889739265,
0.08812967581047382,0.011054786586950976,
0.08817955112219451,0.022829237835459513,
0.08822942643391521,0.03524751226083252,
0.0882793017456359,0.005906830006952746,
0.08832917705735661,0.003123147509901409,
0.08837905236907731,0.024809833116543008,
0.088428927680798,0.007658652393601898,
0.0884788029925187,0.0248763345027525,
0.0885286783042394,0.006399543753600859,
0.0885785536159601,0.021445896845189463,
0.0886284289276808,0.02626484040849559,
0.0886783042394015,0.015558766120945934,
0.0887281795511222,0.014131517492527319,
0.08877805486284289,0.03347374356250181,
0.08882793017456359,0.014523418359663365,
0.0888778054862843,0.01991331800089912,
0.08892768079800499,0.014916869702324316,
0.08897755610972569,0.026727503317991307,
0.08902743142144638,0.009288328153138787,
0.08907730673316708,0.029767718569652067,
0.08912718204488779,0.038840035324736746,
0.08917705735660848,0.03676491933775021,
0.08922693266832918,0.037714360954962306,
0.08927680798004987,0.03230022553080879,
0.08932668329177057,0.037692961166083165,
0.08937655860349127,0.011493914824300615,
0.08942643391521198,0.03432416871293392,
0.08947630922693267,0.011882445889058412,
0.08952618453865337,0.029769753602601683,
0.08957605985037406,0.01123914590578185,
0.08962593516209476,0.008748582140507277,
0.08967581047381547,0.009750603394274655,
0.08972568578553616,0.006102359343980146,
0.08977556109725686,-0.0018823783542736318,
0.08982543640897755,0.037435497350255365,
0.08987531172069825,0.02188080052942598,
0.08992518703241895,0.013088871452138648,
0.08997506234413966,0.03865830492934278,
0.09002493765586035,0.03894530840454362,
0.09007481296758105,-0.0027481577476454293,
0.09012468827930174,0.017697985616957568,
0.09017456359102244,0.03389709908491127,
0.09022443890274315,0.04023076553137888,
0.09027431421446384,0.015342243908255223,
0.09032418952618454,0.0025285652649145417,
0.09037406483790524,0.012171893670095349,
0.09042394014962593,0.0010074141176952614,
0.09047381546134663,-0.0025903607484129444,
0.09052369077306734,0.002911159463648772,
0.09057356608478803,0.013391360296880024,
0.09062344139650873,-0.008328696265798425,
0.09067331670822942,0.0356145314346263,
0.09072319201995012,0.003087247458944604,
0.09077306733167083,0.021601567546027024,
0.09082294264339152,-0.004530700110536268,
0.09087281795511222,0.014246995292643765,
0.09092269326683292,0.005419203097030456,
0.09097256857855361,0.011202503902501026,
0.09102244389027432,0.003211578754274142,
0.09107231920199502,0.0071766879189669895,
0.09112219451371571,0.003965611238802656,
0.09117206982543641,0.017576428087987386,
0.0912219451371571,-0.007083077128541768,
0.0912718204488778,0.02290534005442509,
0.09132169576059851,0.03264591192880389,
0.0913715710723192,0.03412911127359532,
0.0914214463840399,0.0039644131651921,
0.0914713216957606,0.03583744226600401,
0.09152119700748129,0.012882511740215256,
0.091571072319202,0.0182004544311703,
0.0916209476309227,0.011553950203407336,
0.09167082294264339,-0.01703612509015611,
0.09172069825436409,-0.013211828126743598,
0.09177057356608478,-0.011674282490774927,
0.09182044887780548,0.0031764673663268834,
0.09187032418952619,0.008513681059651548,
0.09192019950124689,0.01478729387011984,
0.09197007481296758,0.00941299564529512,
0.09201995012468828,-0.0024681443538694236,
0.09206982543640897,0.030922732262845025,
0.09211970074812968,0.008666260161350327,
0.09216957605985038,0.01227117116478691,
0.09221945137157107,0.015363184091525902,
0.09226932668329177,-0.003969006855020454,
0.09231920199501246,0.011344116049277393,
0.09236907730673316,-0.0036999213093970988,
0.09241895261845387,-0.003283637504827234,
0.09246882793017457,0.010824554844050108,
0.09251870324189526,-0.024686166725868625,
0.09256857855361596,-0.025485424196510266,
0.09261845386533665,-0.019783439876823572,
0.09266832917705736,0.006042430137644112,
0.09271820448877806,0.02125688653294532,
0.09276807980049875,-0.004894519739301685,
0.09281795511221945,0.008336916692999694,
0.09286783042394015,0.03342829280903003,
0.09291770573566084,-0.004394614576798234,
0.09296758104738155,0.012092541201422682,
0.09301745635910225,-0.009605283103597737,
0.09306733167082294,0.0027943429423148885,
0.09311720698254364,0.0042651134382382504,
0.09316708229426433,-0.01597304182851182,
0.09321695760598504,0.02369471911149474,
0.09326683291770574,0.0004765195150648275,
0.09331670822942643,-0.016210350699954065,
0.09336658354114713,-0.004140198504718045,
0.09341645885286783,-0.016040133651152318,
0.09346633416458854,-0.010401791055310375,
0.09351620947630923,-0.01641602710622992,
0.09356608478802993,-0.01811321762339628,
0.09361596009975062,-0.009863656585691518,
0.09366583541147132,-0.011506110192567032,
0.09371571072319201,-0.01862744968033153,
0.09376558603491272,-0.006151777432067563,
0.09381546134663342,-0.005399051647565973,
0.09386533665835411,0.009796806583839725,
0.09391521197007481,0.0033554068689510327,
0.0939650872817955,0.0039999966074725415,
0.09401496259351622,-0.004987663145346169,
0.09406483790523691,0.011105917187146182,
0.09411471321695761,-0.005283926475405418,
0.0941645885286783,-0.026631227016745414,
0.094214463840399,-0.01353670347315159,
0.0942643391521197,-0.003968108581551113,
0.0943142144638404,-0.012530104729807562,
0.0943640897755611,-0.0027156172558927836,
0.0944139650872818,-0.01167369268296135,
0.09446384039900249,-0.011675204637176667,
0.09451371571072319,-0.017699817124412966,
0.0945635910224439,0.0005485282548017209,
0.09461346633416459,-0.010562190331197638,
0.09466334164588529,-0.006259137200673766,
0.09471321695760598,0.008336131571757145,
0.09476309226932668,-0.024118698091769995,
0.09481296758104737,0.02085109227881875,
0.09486284289276808,-0.022741979324947155,
0.09491271820448878,-0.020380892228234845,
0.09496259351620948,-0.007034219921411049,
0.09501246882793017,-0.009054661508829748,
0.09506234413965087,-0.015665168565171823,
0.09511221945137158,0.006346571389888308,
0.09516209476309227,-0.015283497025376501,
0.09521197007481297,-0.017562801792018953,
0.09526184538653366,0.0020065303701448725,
0.09531172069825436,-0.013068650098398533,
0.09536159600997507,-0.006136385419535448,
0.09541147132169576,-0.02259280208116804,
0.09546134663341646,-0.029997923160494013,
0.09551122194513716,0.00042924892794739787,
0.09556109725685785,-0.011845108783701146,
0.09561097256857855,0.00885712726554819,
0.09566084788029926,0.01688308328060001,
0.09571072319201995,0.01291112219454413,
0.09576059850374065,0.010107378978746098,
0.09581047381546134,-0.02312262566674369,
0.09586034912718204,-0.02244785861587928,
0.09591022443890275,-0.03143413018566603,
0.09596009975062345,-0.01498204262967203,
0.09600997506234414,-0.0013690734190810669,
0.09605985037406484,-0.01836028758867222,
0.09610972568578553,-0.013932735252177652,
0.09615960099750623,-0.03222757274582473,
0.09620947630922694,-0.010399472273049748,
0.09625935162094763,-0.005667372522916561,
0.09630922693266833,-0.006406098587548481,
0.09635910224438902,0.008695008650566143,
0.09640897755610972,0.016023554848259486,
0.09645885286783043,0.010193167202933354,
0.09650872817955113,-0.03963424539795152,
0.09655860349127182,-0.031741365068253605,
0.09660847880299252,-0.022424042706788515,
0.09665835411471321,-0.0032828266706653904,
0.09670822942643391,-0.02410889542002821,
0.09675810473815462,0.00465974635745766,
0.09680798004987531,-0.027641529913104285,
0.09685785536159601,-0.008232790053149135,
0.0969077306733167,-0.006229612137540947,
0.0969576059850374,-0.019890473859046895,
0.09700748129675811,0.006309984937563268,
0.0970573566084788,-0.01108184791602924,
0.0971072319201995,-0.01936222402562178,
0.0971571072319202,0.008374902599638565,
0.0972069825436409,-0.023830661495512828,
0.09725685785536159,0.023543017658690338,
0.0973067331670823,-0.02247162146462234,
0.097356608478803,-0.04287968403483991,
0.09740648379052369,-0.0013320864789697507,
0.09745635910224439,-0.014084017585151216,
0.09750623441396508,0.011016826220730958,
0.09755610972568579,0.0018158554434589396,
0.09760598503740649,-0.03049649464175861,
0.09765586034912718,0.00538909525665136,
0.09770573566084788,-0.006955149858098305,
0.09775561097256857,0.0032694549486658227,
0.09780548628428928,0.003835185400492474,
0.09785536159600998,0.002513202405998687,
0.09790523690773068,-0.03940541926971508,
0.09795511221945137,-0.026181480785603922,
0.09800498753117207,0.017841241488867784,
0.09805486284289276,-0.005106996969082694,
0.09810473815461347,-0.00847480697782083,
0.09815461346633417,-0.0059409854206571595,
0.09820448877805486,0.002265087990792846,
0.09825436408977556,-0.008663554612683796,
0.09830423940149625,-0.004952519909987056,
0.09835411471321696,-0.019171035475337925,
0.09840399002493766,0.01193367506045932,
0.09845386533665836,-0.036818685658356345,
0.09850374064837905,-0.020058332247704924,
0.09855361596009975,-0.013158938808772985,
0.09860349127182044,-0.017094941950707297,
0.09865336658354115,0.015786078556965465,
0.09870324189526185,-5.456306829727461e-06,
0.09875311720698254,-0.023496534282001193,
0.09880299251870324,0.01363129704970204,
0.09885286783042393,0.006821022986901046,
0.09890274314214464,-0.012721216294001404,
0.09895261845386534,-0.009862139566694815,
0.09900249376558604,-0.0156913258064489,
0.09905236907730673,-0.00313232218363394,
0.09910224438902743,-0.016014792976278808,
0.09915211970074812,-0.009797689870301813,
0.09920199501246883,0.028470307878971965,
0.09925187032418953,0.014089159670014152,
0.09930174563591022,-0.014213272326508375,
0.09935162094763092,-0.0008790385489779295,
0.09940149625935162,0.006044916400374048,
0.09945137157107233,-0.002523965023118109,
0.09950124688279302,-0.004719571276428088,
0.09955112219451372,0.015754467669155826,
0.09960099750623441,-0.02452427967940011,
0.09965087281795511,0.020666640441562287,
0.0997007481296758,0.020650826431713745,
0.09975062344139651,-0.028560555597374963,
0.09980049875311721,-0.008607959752178384,
0.0998503740648379,0.014809897768403593,
0.0999002493765586,0.010609263052085146,
0.0999501246882793,0.03532241868292658,
0.1,-0.0008858559563549486,
0.1000498753117207,0.002929057826482601,
0.1000997506234414,0.000997180743850485,
0.10014962593516209,-0.01050489970739038,
0.10019950124688279,0.015067894954649792,
0.1002493765586035,0.015947602789138794,
0.1002992518703242,0.026461446892572613,
0.10034912718204489,-0.030033078430217148,
0.10039900249376559,0.009314955277777077,
0.10044887780548628,0.01844442247269314,
0.10049875311720698,0.012507877234561477,
0.10054862842892769,0.015313186101130406,
0.10059850374064838,0.01436290220286663,
0.10064837905236908,0.008455387971655832,
0.10069825436408977,0.006028306127373947,
0.10074812967581047,0.008860848116105784,
0.10079800498753118,0.01766246931392646,
0.10084788029925187,0.032697327970782446,
0.10089775561097257,0.013992101426891324,
0.10094763092269327,-0.015950807432512492,
0.10099750623441396,0.0033192771272915578,
0.10104738154613466,0.02076562233155494,
0.10109725685785537,0.019860252178172416,
0.10114713216957606,0.011104366902812753,
0.10119700748129676,0.020319014177391178,
0.10124688279301745,0.002715587977825008,
0.10129675810473815,-0.009825829679715414,
0.10134663341645886,0.02397040117753583,
0.10139650872817955,0.023630103624651226,
0.10144638403990025,0.005824928193843021,
0.10149625935162095,0.018361953143313816,
0.10154613466334164,0.005783254131630609,
0.10159600997506234,-0.020114970987512693,
0.10164588528678305,-0.0074089020629851884,
0.10169576059850374,0.03573391188774105,
0.10174563591022444,0.017934247390349115,
0.10179551122194513,-0.003526759930477647,
0.10184538653366583,-0.003808702332143749,
0.10189526184538654,0.005931058818990291,
0.10194513715710724,-0.006331643089250657,
0.10199501246882793,0.01249343615598267,
0.10204488778054863,0.0034945307129047656,
0.10209476309226932,0.01344253604624423,
0.10214463840399003,0.03240125251967692,
0.10219451371571073,0.005423494528664594,
0.10224438902743142,0.011879161107467243,
0.10229426433915212,0.04514942271688377,
0.10234413965087281,0.022122445229745755,
0.10239401496259351,0.006642499435626772,
0.10244389027431422,0.03142500543335354,
0.10249376558603492,0.01906647486556353,
0.10254364089775561,0.012014955709912747,
0.10259351620947631,0.01991367291597524,
0.102643391521197,0.012337553537262121,
0.10269326683291771,0.016568299328849553,
0.10274314214463841,0.02357040516738752,
0.1027930174563591,0.028940733143897165,
0.1028428927680798,0.011884138493509552,
0.1028927680798005,0.027001298633495915,
0.10294264339152119,-0.006829660786152814,
0.1029925187032419,0.03009353789865119,
0.1030423940149626,0.014594486570672884,
0.10309226932668329,0.0014910085270198117,
0.10314214463840399,0.018823134217479564,
0.10319201995012468,0.03569982409100454,
0.10324189526184539,0.00016844869616722616,
0.10329177057356609,0.008371605967135272,
0.10334164588528678,0.019127038072593108,
0.10339152119700748,0.02080565982568552,
0.10344139650872818,0.006312432635830055,
0.10349127182044887,0.03718937787641931,
0.10354114713216958,0.03113566718827481,
0.10359102244389028,0.043976339954908954,
0.10364089775561097,0.04939747538100808,
0.10369077306733167,0.04081744141413245,
0.10374064837905236,0.0116851122193076,
0.10379052369077307,0.045150282159012935,
0.10384039900249377,0.010570726777647128,
0.10389027431421446,0.032683383479847415,
0.10394014962593516,0.04788692045957049,
0.10399002493765586,0.05995619460943964,
0.10403990024937655,0.030782067726979508,
0.10408977556109726,0.0015782736521603065,
0.10413965087281796,0.03200663067121552,
0.10418952618453865,0.007171641733832473,
0.10423940149625935,0.03891451541094932,
0.10428927680798004,0.01825722252097988,
0.10433915211970075,0.018779298246074626,
0.10438902743142145,0.031609269697411305,
0.10443890274314215,0.025897049110242123,
0.10448877805486284,0.022599770432235544,
0.10453865336658354,0.037596072727265006,
0.10458852867830425,0.032860417252970016,
0.10463840399002494,0.03098884507351322,
0.10468827930174564,0.05041584970568408,
0.10473815461346633,0.03593999614964881,
0.10478802992518703,0.011366006777714146,
0.10483790523690772,0.020352107082169814,
0.10488778054862843,0.03784732618582217,
0.10493765586034913,0.030989111501440823,
0.10498753117206983,0.02579900680648476,
0.10503740648379052,0.05043862251906192,
0.10508728179551122,0.0341380766677093,
0.10513715710723193,0.03426934219583985,
0.10518703241895262,0.03138140703824568,
0.10523690773067332,0.03271519249830185,
0.10528678304239401,0.0002533897134892188,
0.10533665835411471,0.029143008216321747,
0.1053865336658354,0.014106698452003184,
0.10543640897755611,0.03253223741101786,
0.10548628428927681,0.02102286085667966,
0.1055361596009975,0.034080631291691234,
0.1055860349127182,0.03298215194378034,
0.1056359102244389,0.02372622249613587,
0.10568578553615961,0.06294705346013532,
0.1057356608478803,0.03903456000566943,
0.105785536159601,0.04973144749728791,
0.1058354114713217,0.028341543275449736,
0.10588528678304239,0.006030101071439649,
0.10593516209476309,0.007610032608081772,
0.1059850374064838,0.027204696387481193,
0.10603491271820449,0.049698092579202935,
0.10608478802992519,0.028395721157596022,
0.10613466334164588,0.004297125117902773,
0.10618453865336658,0.029509811772319292,
0.10623441396508729,0.03086355968207679,
0.10628428927680798,0.06194209719694109,
0.10633416458852868,0.03187910771147803,
0.10638403990024937,0.05267566468229934,
0.10643391521197007,0.041790314008640556,
0.10648379052369077,0.05610406810687907,
0.10653366583541148,0.030514326589694347,
0.10658354114713217,0.05123102422130622,
0.10663341645885287,0.03891569610366383,
0.10668329177057356,0.04946699685328471,
0.10673316708229426,0.026706295848036063,
0.10678304239401497,0.0388628531863545,
0.10683291770573566,0.025598850489792553,
0.10688279301745636,0.008441909328991068,
0.10693266832917706,0.03740334768412341,
0.10698254364089775,0.0410296372559978,
0.10703241895261846,0.010653512212165563,
0.10708229426433916,0.024219057664388016,
0.10713216957605985,0.022702438323067394,
0.10718204488778055,0.02322121576707014,
0.10723192019950124,0.034671718220578705,
0.10728179551122194,0.028047327640476863,
0.10733167082294265,0.030324725497383576,
0.10738154613466334,0.020793271316978543,
0.10743142144638404,0.03247019433861953,
0.10748129675810474,0.03676186041199608,
0.10753117206982543,0.03241369636050455,
0.10758104738154614,0.03223220847530934,
0.10763092269326684,0.01858063526346423,
0.10768079800498753,0.049072702949139076,
0.10773067331670823,0.05874974739510892,
0.10778054862842892,0.04914051832385172,
0.10783042394014962,0.016529860733101674,
0.10788029925187033,0.03277015181404807,
0.10793017456359102,0.007253687807863708,
0.10798004987531172,0.02135797949032636,
0.10802992518703242,-0.008884313441934712,
0.10807980049875311,0.03419887770596098,
0.10812967581047382,0.018535050852085767,
0.10817955112219452,0.013495025314553282,
0.10822942643391521,0.010020529144581562,
0.10827930174563591,-5.871445360065841e-06,
0.1083291770573566,0.003993377339483815,
0.1083790523690773,0.029562906089469158,
0.10842892768079801,0.024891555254629525,
0.1084788029925187,0.005324229155035096,
0.1085286783042394,0.055600682806567936,
0.1085785536159601,-0.007331650410014559,
0.10862842892768079,0.015422276833675818,
0.1086783042394015,0.013065319107359735,
0.1087281795511222,0.017655399560878717,
0.1087780548628429,0.0003937910540183741,
0.10882793017456359,0.016064108953819087,
0.10887780548628428,0.006654067557712771,
0.108927680798005,0.03800236558096101,
0.10897755610972569,0.031090056005499255,
0.10902743142144639,0.015336952168681212,
0.10907730673316708,0.014478620712761351,
0.10912718204488778,0.05878602762604175,
0.10917705735660847,0.007409010329427921,
0.10922693266832918,0.04764122070871489,
0.10927680798004988,0.007536550228201414,
0.10932668329177057,0.014313494663612399,
0.10937655860349127,0.016043010469113998,
0.10942643391521197,0.023068406403673684,
0.10947630922693267,-0.00041859659800872265,
0.10952618453865337,0.02819194104449797,
0.10957605985037407,0.004350472742814141,
0.10962593516209476,0.03015982077272307,
0.10967581047381546,0.05175588517965336,
0.10972568578553615,0.0073164641258664335,
0.10977556109725686,0.019598089429433863,
0.10982543640897756,0.023852267550535267,
0.10987531172069825,0.03696942567993669,
0.10992518703241895,0.049858307573308266,
0.10997506234413965,0.03334894814310374,
0.11002493765586036,0.01680835347798179,
0.11007481296758105,0.021051585587639525,
0.11012468827930175,0.03836287943614814,
0.11017456359102244,-0.000778692994199387,
0.11022443890274314,-0.006296770445896762,
0.11027431421446383,0.03499914951480689,
0.11032418952618454,0.004524222819889078,
0.11037406483790524,0.023408455325870475,
0.11042394014962593,0.004052665694277686,
0.11047381546134663,0.03031922453013998,
0.11052369077306733,-0.014089991095336936,
0.11057356608478804,0.005771776416816121,
0.11062344139650873,-0.008667238094560579,
0.11067331670822943,0.010925354077291848,
0.11072319201995012,0.021659062267159527,
0.11077306733167082,-0.007124707452934986,
0.11082294264339151,0.014405541740198972,
0.11087281795511222,0.02076448953931881,
0.11092269326683292,0.009505764506608842,
0.11097256857855362,-0.0018401341018048443,
0.11102244389027431,-0.019314601921429,
0.111072319201995,0.021666936963582118,
0.11112219451371572,0.0340643116924462,
0.11117206982543641,0.006499613847983409,
0.11122194513715711,0.005473705375006419,
0.1112718204488778,0.032884371414477934,
0.1113216957605985,0.012171368159275407,
0.11137157107231921,0.017808870279878607,
0.1114214463840399,-0.0062961498237589,
0.1114713216957606,-0.0014078108527983673,
0.1115211970074813,0.01565290409774778,
0.11157107231920199,-0.0010313448932785917,
0.11162094763092269,0.005734855054351644,
0.1116708229426434,0.024052233621984307,
0.11172069825436409,-0.004651714487874413,
0.11177057356608479,0.010178944444097693,
0.11182044887780548,0.0032436685428433656,
0.11187032418952618,0.008625061148425137,
0.11192019950124689,0.010217081214198776,
0.11197007481296758,0.012962925086475386,
0.11201995012468828,0.0013799340132583835,
0.11206982543640898,-0.012117107832978249,
0.11211970074812967,0.009158336589365688,
0.11216957605985037,0.009989311885888915,
0.11221945137157108,0.0003443261426430064,
0.11226932668329177,0.003998532205973557,
0.11231920199501247,0.008015152136275544,
0.11236907730673316,-0.030400146279987127,
0.11241895261845386,0.0031240872922722114,
0.11246882793017457,0.025973943959124113,
0.11251870324189527,0.013280087224774964,
0.11256857855361596,-0.0022965852456950167,
0.11261845386533666,-0.013814542724771488,
0.11266832917705735,0.013927761483688421,
0.11271820448877805,0.0005799786178255716,
0.11276807980049876,-0.004500845644105099,
0.11281795511221945,-0.004478599262406701,
0.11286783042394015,-0.019740838725495112,
0.11291770573566084,-0.004502577979218141,
0.11296758104738154,0.00042947500736851586,
0.11301745635910225,-0.004261588720715622,
0.11306733167082295,-0.009716820572987183,
0.11311720698254364,-0.0036668601524426944,
0.11316708229426434,-0.009650194881767835,
0.11321695760598503,-0.012146040812163517,
0.11326683291770574,0.0072565028861768174,
0.11331670822942644,0.006410475992420107,
0.11336658354114713,-0.004107218396134432,
0.11341645885286783,-0.017955333478427392,
0.11346633416458853,-0.0006760208908546035,
0.11351620947630922,-0.00818121825307493,
0.11356608478802993,-0.021896606783138872,
0.11361596009975063,-0.029229955857920438,
0.11366583541147132,0.011484818954242694,
0.11371571072319202,-0.01241684469201041,
0.11376558603491271,0.018851142336884893,
0.11381546134663342,-0.005559373180283581,
0.11386533665835412,-0.00728911960212649,
0.11391521197007481,-0.024997490012183522,
0.11396508728179551,-0.003674401028280272,
0.1140149625935162,-0.024572335406846654,
0.1140648379052369,-0.017340495283651416,
0.11411471321695761,0.007412069850893004,
0.1141645885286783,-0.019772819254521498,
0.114214463840399,-0.027244575317155663,
0.1142643391521197,0.02053150734504515,
0.1143142144638404,-0.02506327576758297,
0.1143640897755611,-0.004776157859421553,
0.1144139650872818,0.006930318924317655,
0.1144638403990025,-0.0013715540450760337,
0.11451371571072319,-0.00787541349424564,
0.11456359102244389,-0.012257743064470214,
0.11461346633416458,-0.01658197176626804,
0.11466334164588529,0.006324844054278715,
0.11471321695760599,0.02528286090144516,
0.11476309226932668,0.00039943767453974946,
0.11481296758104738,-0.007586325650185792,
0.11486284289276807,0.02224755366991398,
0.11491271820448878,-0.004889636065098758,
0.11496259351620948,-0.02432031605278504,
0.11501246882793018,0.0006217922989486362,
0.11506234413965087,-0.031017147704529915,
0.11511221945137157,-0.013381728744762802,
0.11516209476309226,-0.010939014289381684,
0.11521197007481297,-0.00702835589775172,
0.11526184538653367,-0.01616588588802542,
0.11531172069825436,-0.009244928587033775,
0.11536159600997506,-0.02446984911962196,
0.11541147132169575,-0.011025215703955907,
0.11546134663341646,-0.013917681207437435,
0.11551122194513716,-0.0016602081088267148,
0.11556109725685786,-0.023840511448589008,
0.11561097256857855,-0.01613664903629347,
0.11566084788029925,-0.01936663940551229,
0.11571072319201996,-0.03003232644631526,
0.11576059850374065,-0.04025996236298588,
0.11581047381546135,-0.006740581745899748,
0.11586034912718204,-0.008966740101121671,
0.11591022443890274,0.002807812288909483,
0.11596009975062344,0.005791437770589335,
0.11600997506234415,0.021036801134474196,
0.11605985037406484,-0.02444812203973093,
0.11610972568578554,-0.011631285149614135,
0.11615960099750623,-0.029831963628429013,
0.11620947630922693,-0.011122601226685102,
0.11625935162094764,0.015303824262180481,
0.11630922693266833,-0.009521732117026038,
0.11635910224438903,-0.012385807808402123,
0.11640897755610972,-0.0004846099662745313,
0.11645885286783042,-0.029524715750717172,
0.11650872817955112,0.0008634663164433318,
0.11655860349127183,-5.787100691628279e-05,
0.11660847880299252,-0.03344405019316536,
0.11665835411471322,-0.020942936123529245,
0.11670822942643391,0.011470787801241868,
0.11675810473815461,-0.0037721585512565745,
0.11680798004987532,0.003187717960847056,
0.11685785536159601,0.005310936321955164,
0.11690773067331671,-0.02447539068261699,
0.1169576059850374,-0.0265667990380293,
0.1170074812967581,-0.04309619362293822,
0.1170573566084788,-0.013212243681810378,
0.1171072319201995,-0.021257079634702768,
0.1171571072319202,-0.008603781253171891,
0.1172069825436409,-0.008077707413860623,
0.1172568578553616,0.003702356951258928,
0.11730673316708229,-0.0035648694559086936,
0.117356608478803,-0.035198548823943396,
0.1174064837905237,-0.02041004296593335,
0.11745635910224439,-0.01625580531660021,
0.11750623441396509,0.01889576840097024,
0.11755610972568578,-0.014321576408102391,
0.11760598503740648,-0.005470113799951583,
0.11765586034912719,-0.01719369554606366,
0.11770573566084788,-0.00616341970502467,
0.11775561097256858,0.006695452908584809,
0.11780548628428927,-0.0038490509637331936,
0.11785536159600997,0.027070724790656586,
0.11790523690773068,0.017939005829872637,
0.11795511221945137,-0.01956531003888514,
0.11800498753117207,0.011477953402468143,
0.11805486284289277,0.022894582608683253,
0.11810473815461346,0.0035078137795318143,
0.11815461346633417,-0.019644928325339553,
0.11820448877805487,-0.016884856692221457,
0.11825436408977556,0.008423517520379115,
0.11830423940149626,-0.0014227625802787748,
0.11835411471321695,-0.012710997570285458,
0.11840399002493765,0.0006132729098520199,
0.11845386533665836,-0.0004050825833070721,
0.11850374064837906,-0.0035940548255299415,
0.11855361596009975,-0.007190453010002622,
0.11860349127182045,-0.008395494282220065,
0.11865336658354114,0.013107378021010254,
0.11870324189526185,0.005333346811634755,
0.11875311720698255,-0.024591843498396458,
0.11880299251870324,-0.009981752298274887,
0.11885286783042394,-0.017876358081442455,
0.11890274314214463,0.001063162914613838,
0.11895261845386533,-0.025696452970523795,
0.11900249376558604,0.008854354892387145,
0.11905236907730674,-0.01405008698892366,
0.11910224438902743,-0.0083147305477867,
0.11915211970074813,-0.003300872607272465,
0.11920199501246882,-0.017101705251521285,
0.11925187032418953,0.01996895610245858,
0.11930174563591023,-0.021303390670981644,
0.11935162094763092,0.012854970496505002,
0.11940149625935162,0.0405412446040335,
0.11945137157107232,-5.9058002016792836e-05,
0.11950124688279301,-0.0006703377588643246,
0.11955112219451372,0.002686046402155326,
0.11960099750623442,-0.01297681467843616,
0.11965087281795511,0.016033427579395094,
0.11970074812967581,0.0038931934442485274,
0.1197506234413965,0.023181150157412435,
0.11980049875311721,-0.012054229697076141,
0.11985037406483791,-0.010232276388863797,
0.1199002493765586,-0.02830134266895289,
0.1199501246882793,0.01689563760894692,
0.12,0.014191290696877867,
0.1200498753117207,-3.62121621159733e-05,
0.1200997506234414,0.010159672712599911,
0.1201496259351621,0.01773669710113788,
0.12019950124688279,0.00807368095547306,
0.12024937655860349,0.0006199996983748575,
0.12029925187032418,-0.006879937534214079,
0.1203491271820449,-0.030777963439902807,
0.12039900249376559,-0.01742764824536229,
0.12044887780548628,0.009411686945152025,
0.12049875311720698,-0.02211352340813561,
0.12054862842892768,0.01756811990636531,
0.12059850374064839,-0.001997005979975124,
0.12064837905236908,-0.006366743201193325,
0.12069825436408978,-0.007307540162451471,
0.12074812967581047,0.002312737998981275,
0.12079800498753117,0.004846950639666694,
0.12084788029925186,0.003432839418765761,
0.12089775561097257,-0.009769452872889137,
0.12094763092269327,0.026920898116021323,
0.12099750623441397,0.006745174195860201,
0.12104738154613466,-0.0023896303988789093,
0.12109725685785536,0.051026222584577695,
0.12114713216957607,0.05383706723363625,
0.12119700748129676,0.01164176781760624,
0.12124688279301746,0.010926831914974632,
0.12129675810473815,-0.025503833006338225,
0.12134663341645885,-0.004926159041693754,
0.12139650872817954,0.012123448665527923,
0.12144638403990025,-0.005494178307017653,
0.12149625935162095,0.005916443352394188,
0.12154613466334165,-0.00132033050798816,
0.12159600997506234,0.021507326609388998,
0.12164588528678304,0.002074271626666409,
0.12169576059850375,-0.0015050052862566297,
0.12174563591022444,0.0267358984699098,
0.12179551122194514,0.03720149481086448,
0.12184538653366583,0.0016747382420527184,
0.12189526184538653,0.011535669717468706,
0.12194513715710723,-0.0017019268666206289,
0.12199501246882793,0.011552631783106688,
0.12204488778054863,0.03632907345703575,
0.12209476309226933,0.026092829926817898,
0.12214463840399002,0.013800453877432799,
0.12219451371571072,0.002384186074397509,
0.12224438902743143,-0.0038578715682944555,
0.12229426433915212,0.005709706750995561,
0.12234413965087282,-0.004390007318451315,
0.12239401496259351,0.040105093816731205,
0.12244389027431421,0.020073085686541526,
0.12249376558603492,0.02542742033120554,
0.12254364089775562,0.051880394415288224,
0.12259351620947631,0.006068618296907847,
0.122643391521197,0.020571158868803834,
0.1226932668329177,0.014694427707311747,
0.1227431421446384,0.02261401233474495,
0.12279301745635911,0.023455997006118515,
0.1228428927680798,0.02131574900482187,
0.1228927680798005,0.010331098593345169,
0.1229426433915212,0.008096385168253539,
0.12299251870324189,0.021509741918758755,
0.1230423940149626,0.004700793352237675,
0.1230922693266833,0.025045692700277976,
0.12314214463840399,0.018423447547291513,
0.12319201995012469,0.031480437328003125,
0.12324189526184538,0.023855197132311826,
0.12329177057356608,0.011865411824942993,
0.12334164588528679,0.03911235019049672,
0.12339152119700748,0.015966635798326304,
0.12344139650872818,0.02381636928112386,
0.12349127182044888,0.01714633537413057,
0.12354114713216957,0.02714218053144571,
0.12359102244389028,0.035897537367361405,
0.12364089775561098,0.0354131722027175,
0.12369077306733167,0.01781397115253773,
0.12374064837905237,0.040426541454833126,
0.12379052369077306,0.03853615716065002,
0.12384039900249376,0.011438918333073655,
0.12389027431421447,0.02967028195463153,
0.12394014962593516,0.01356520544081514,
0.12399002493765586,0.039883864921381844,
0.12403990024937656,0.02814372017581783,
0.12408977556109725,0.01077209635793989,
0.12413965087281796,0.04813685730594716,
0.12418952618453866,0.0017531164091791583,
0.12423940149625935,0.052584816772294714,
0.12428927680798005,0.01672782909874513,
0.12433915211970074,0.05715295567821342,
0.12438902743142144,0.045433760854986086,
0.12443890274314215,0.04307265773403601,
0.12448877805486284,0.01091609344203479,
0.12453865336658354,0.026951666747640976,
0.12458852867830424,0.05420404866889575,
0.12463840399002493,0.029952630430378085,
0.12468827930174564,0.03264016383669966,
0.12473815461346634,0.024474104255952586,
0.12478802992518703,0.03505501340143175,
0.12483790523690773,0.0156478997043906,
0.12488778054862842,0.05477372890622327,
0.12493765586034913,0.040017422341075935,
0.12498753117206983,0.018177606022494436,
0.12503740648379053,-0.0037030197912610516,
0.12508728179551123,0.057105483117418074,
0.12513715710723192,0.028136867786657423,
0.12518703241895263,0.04031061742917852,
0.1252369077306733,0.06387024480251538,
0.12528678304239402,0.0015092572184011756,
0.1253366583541147,0.0293579285255654,
0.1253865336658354,0.03012711675478811,
0.12543640897755612,0.028009033975739436,
0.1254862842892768,0.024392452021518865,
0.1255361596009975,0.04413002926784381,
0.1255860349127182,0.03637093877969744,
0.1256359102244389,0.027295698010500656,
0.1256857855361596,-0.0004875194105421893,
0.1257356608478803,0.054084144215144174,
0.125785536159601,0.010150596486948691,
0.12583541147132168,0.001781495720804712,
0.1258852867830424,0.014035661782688438,
0.1259351620947631,0.021913826893955133,
0.12598503740648379,0.055236169012071484,
0.1260349127182045,0.027617833122218754,
0.12608478802992518,0.029903985364273737,
0.1261346633416459,0.02565781210883225,
0.1261845386533666,0.02008715592552603,
0.12623441396508728,0.017959503007879834,
0.126284289276808,0.01276706151624623,
0.12633416458852867,0.059287609769373084,
0.12638403990024938,0.004646719759757799,
0.1264339152119701,0.01142251241127627,
0.12648379052369077,0.019023549740141803,
0.12653366583541148,0.02835030856172848,
0.12658354114713216,0.05206489210654015,
0.12663341645885287,0.02749909020364191,
0.12668329177057355,0.04230597417285967,
0.12673316708229426,0.02818569345776666,
0.12678304239401497,0.007245797512319609,
0.12683291770573565,0.03168630697168203,
0.12688279301745636,0.022088917841350544,
0.12693266832917705,0.03150560072300047,
0.12698254364089775,0.015083831854659214,
0.12703241895261846,0.022315657275715096,
0.12708229426433915,0.008600641990740187,
0.12713216957605986,0.025592480909017022,
0.12718204488778054,0.013823135503073382,
0.12723192019950125,0.014164949039106391,
0.12728179551122196,0.021668988605639164,
0.12733167082294264,0.025111594701597337,
0.12738154613466335,0.016792099724513496,
0.12743142144638403,0.03238358781645353,
0.12748129675810474,0.01931363418109342,
0.12753117206982545,0.023992118233648475,
0.12758104738154613,0.00038781277094630806,
0.12763092269326684,0.032157801850605745,
0.12768079800498752,0.01282549779320373,
0.12773067331670823,0.034578265711346604,
0.1277805486284289,0.01490333589034732,
0.12783042394014962,0.03899431721418174,
0.12788029925187033,0.02187613815875696,
0.12793017456359101,0.037906053456403105,
0.12798004987531172,0.020710421880140155,
0.1280299251870324,0.014092183835853507,
0.12807980049875312,-0.0021488450827623212,
0.12812967581047383,0.031422945499738675,
0.1281795511221945,0.023055115455997966,
0.12822942643391522,0.00931125440911126,
0.1282793017456359,0.027049786353208614,
0.1283291770573566,0.01953890637612068,
0.12837905236907732,0.024312472917041188,
0.128428927680798,0.030724639244093552,
0.1284788029925187,0.02593368766501781,
0.1285286783042394,-0.003206375552956879,
0.1285785536159601,0.03002374500027518,
0.1286284289276808,0.013493120941921776,
0.1286783042394015,0.019397611180118967,
0.1287281795511222,-0.0003277350305352124,
0.12877805486284288,0.015423530279571263,
0.1288279301745636,0.013117938731817628,
0.1288778054862843,0.017036907333315265,
0.12892768079800498,-0.0026276777736918104,
0.1289775561097257,0.018209227957779024,
0.12902743142144638,0.028958973104137455,
0.12907730673316709,0.0284899081604719,
0.12912718204488777,0.021285070194307216,
0.12917705735660848,0.044417437911884766,
0.1292269326683292,0.031016615051116886,
0.12927680798004987,0.047423507982415576,
0.12932668329177058,0.020169118605073214,
0.12937655860349126,0.028713188434924097,
0.12942643391521197,0.01655395376704253,
0.12947630922693268,0.03819055822917358,
0.12952618453865336,0.02424143545847909,
0.12957605985037407,0.0304719028417299,
0.12962593516209475,0.011290657175772316,
0.12967581047381546,0.036655217906262694,
0.12972568578553617,0.03925316913720206,
0.12977556109725685,0.0026939551794741244,
0.12982543640897756,0.04121299602024122,
0.12987531172069824,0.030308010918263233,
0.12992518703241895,0.030882239284973752,
0.12997506234413966,0.011016392215235373,
0.13002493765586035,0.007364602047903108,
0.13007481296758105,0.019629285718307618,
0.13012468827930174,0.04412669865110848,
0.13017456359102245,0.02806827559171705,
0.13022443890274316,0.0018525496907072364,
0.13027431421446384,0.017540449045562092,
0.13032418952618455,0.013855951332731403,
0.13037406483790523,-0.004725037539002816,
0.13042394014962594,0.023623809988257055,
0.13047381546134662,0.03420295403935847,
0.13052369077306733,0.026450204115653762,
0.13057356608478804,0.015168912181858424,
0.13062344139650872,0.019758896789757643,
0.13067331670822943,0.004755761429569022,
0.1307231920199501,0.01506116980608688,
0.13077306733167082,0.01383914003270998,
0.13082294264339153,-0.0024191880067182883,
0.13087281795511221,-0.01870417460476877,
0.13092269326683292,-0.006862405197217196,
0.1309725685785536,0.016041831823095615,
0.13102244389027431,-0.004934155530417641,
0.13107231920199502,0.030025071486255106,
0.1311221945137157,0.0407016502891034,
0.13117206982543642,0.03280070550270992,
0.1312219451371571,0.025149090864027675,
0.1312718204488778,0.02214884192664756,
0.13132169576059852,0.03173256662545346,
0.1313715710723192,0.014848226399664084,
0.1314214463840399,0.004543293026017853,
0.1314713216957606,0.02057339741051396,
0.1315211970074813,0.01711629938619087,
0.13157107231920198,0.003017086184284498,
0.1316209476309227,0.005423329520811121,
0.1316708229426434,0.047116636976257335,
0.13172069825436408,-0.01633382309897513,
0.1317705735660848,0.018383400469687797,
0.13182044887780547,0.025429644411259715,
0.13187032418952618,0.02129516760844657,
0.1319201995012469,0.007721026114415049,
0.13197007481296757,-0.0173806050916026,
0.13201995012468828,0.042702795134250425,
0.13206982543640897,0.006361682738574814,
0.13211970074812968,-0.00923009734748129,
0.13216957605985039,0.0011398849697811862,
0.13221945137157107,0.0049678209216133425,
0.13226932668329178,-0.022838008735880752,
0.13231920199501246,0.005271307586917693,
0.13236907730673317,0.010683444337729126,
0.13241895261845388,0.015152816908026542,
0.13246882793017456,0.010908713181326888,
0.13251870324189527,0.010557156969849142,
0.13256857855361595,-0.015545255542844846,
0.13261845386533666,0.00845276470446475,
0.13266832917705737,0.007567693292069355,
0.13271820448877805,-0.009961695965069415,
0.13276807980049876,-0.0009864115638974075,
0.13281795511221944,-0.0057843464781629364,
0.13286783042394015,0.002630555121601927,
0.13291770573566083,0.008789373606748111,
0.13296758104738154,-0.027179303511950796,
0.13301745635910225,0.020545603176467257,
0.13306733167082294,-0.00019238093026192698,
0.13311720698254365,0.0060304539952309635,
0.13316708229426433,-0.007353110245619829,
0.13321695760598504,-0.0033638376189480787,
0.13326683291770575,0.0038171237499252395,
0.13331670822942643,0.00048402347837919746,
0.13336658354114714,-0.005564086061627099,
0.13341645885286782,-0.007913308034072553,
0.13346633416458853,0.05544231163281237,
0.13351620947630924,-0.0044585363370987455,
0.13356608478802992,0.024964522641763326,
0.13361596009975063,-0.010066438751671427,
0.1336658354114713,0.013917535298139404,
0.13371571072319202,-0.00497411142252469,
0.13376558603491273,-0.006131647264311837,
0.1338154613466334,-0.00875424692612006,
0.13386533665835412,-0.02185046553880297,
0.1339152119700748,-0.036182340328722695,
0.13396508728179551,0.03015757963460597,
0.1340149625935162,-0.022487888526598235,
0.1340648379052369,-0.010417000071017599,
0.13411471321695762,-0.0030009222432556995,
0.1341645885286783,-0.03233432906015049,
0.134214463840399,-0.0029282632953339196,
0.1342643391521197,-0.03568732202898575,
0.1343142144638404,-0.02493054782184872,
0.1343640897755611,-0.005263423159391102,
0.1344139650872818,-0.03156320209652032,
0.1344638403990025,0.011948547494531203,
0.13451371571072318,-0.012639322435207165,
0.1345635910224439,-0.012473873033539348,
0.1346134663341646,-0.03879605597101606,
0.13466334164588528,-0.025276824068011516,
0.134713216957606,-0.004760388953678463,
0.13476309226932667,0.02302016255834989,
0.13481296758104738,0.0004372352521273739,
0.1348628428927681,-0.024448603187837523,
0.13491271820448877,0.004207330353252537,
0.13496259351620948,-0.005523556860161656,
0.13501246882793017,-0.002791700883847656,
0.13506234413965088,-0.0012994128325923247,
0.13511221945137158,-0.002960265884293636,
0.13516209476309227,0.023049522359373374,
0.13521197007481298,0.013371013491536698,
0.13526184538653366,0.008323534023087834,
0.13531172069825437,0.0025342406732415355,
0.13536159600997505,-0.0017373867951416735,
0.13541147132169576,-0.0012344715303564818,
0.13546134663341647,0.006058712289797916,
0.13551122194513715,0.00043640688043972836,
0.13556109725685786,-0.025149559530069487,
0.13561097256857854,0.0029043000489003424,
0.13566084788029925,-0.015739253008051273,
0.13571072319201996,-0.022658775105054305,
0.13576059850374064,-0.00018907398710001772,
0.13581047381546135,-0.028664727670086605,
0.13586034912718203,-0.03170713222343007,
0.13591022443890274,0.004919547699378756,
0.13596009975062345,-0.008664891562192776,
0.13600997506234414,0.00683925946265612,
0.13605985037406484,0.006584655185534851,
0.13610972568578553,-0.029257772621403173,
0.13615960099750624,-0.01034313940551351,
0.13620947630922695,-0.02369708818587117,
0.13625935162094763,-0.007671262313256395,
0.13630922693266834,-0.004475954769437751,
0.13635910224438902,-0.012046906541712001,
0.13640897755610973,-0.008907270050591103,
0.1364588528678304,-0.009974063149533325,
0.13650872817955112,-0.026129978266546484,
0.13655860349127183,0.002380406884365487,
0.1366084788029925,-0.014838388419428337,
0.13665835411471322,-0.012669446926683215,
0.1367082294264339,-0.0018720459697625525,
0.1367581047381546,-0.0054623137332682785,
0.13680798004987532,0.013099057348245997,
0.136857855361596,0.006393369879346177,
0.1369077306733167,-0.029086778678794247,
0.1369576059850374,-0.017580550886125423,
0.1370074812967581,-0.012540139314681533,
0.13705735660847881,0.0042536631745726285,
0.1371072319201995,-0.04762697002690923,
0.1371571072319202,0.005824453909502118,
0.1372069825436409,-0.004941840143952171,
0.1372568578553616,-0.0033016470916311146,
0.1373067331670823,-0.011173020424316308,
0.137356608478803,0.00826140260079966,
0.1374064837905237,-0.007433992057068275,
0.13745635910224438,-0.022806006403750616,
0.1375062344139651,0.005651906836133787,
0.1375561097256858,-0.002211100082090055,
0.13760598503740648,-0.0281322965276436,
0.1376558603491272,0.012029313734922435,
0.13770573566084787,0.03848239157351849,
0.13775561097256858,-0.02609363436920554,
0.13780548628428926,-0.015155553107883272,
0.13785536159600997,0.0073309988739318835,
0.13790523690773068,-0.009722477927862124,
0.13795511221945136,0.0039459143280739725,
0.13800498753117207,0.007959905422032822,
0.13805486284289276,-0.016426212505990523,
0.13810473815461347,-0.02404491905633023,
0.13815461346633418,0.02702107502913069,
0.13820448877805486,-0.015066647448170583,
0.13825436408977557,-0.008251666407865937,
0.13830423940149625,-0.004845976912274969,
0.13835411471321696,-0.01793673293788599,
0.13840399002493767,-0.02886585193774415,
0.13845386533665835,0.011065805743408642,
0.13850374064837906,0.01301489396619738,
0.13855361596009974,0.007547916063229146,
0.13860349127182045,-0.029011333063206003,
0.13865336658354116,-0.001978338265810485,
0.13870324189526184,-0.028659118644897133,
0.13875311720698255,0.00938052546956012,
0.13880299251870323,0.019351451963405084,
0.13885286783042394,0.009678533447797323,
0.13890274314214462,0.009972484297828649,
0.13895261845386533,-0.01725157433693949,
0.13900249376558604,-5.4406943240719804e-06,
0.13905236907730673,-0.01014967020266374,
0.13910224438902744,-0.002553659155419596,
0.13915211970074812,-0.00628917144681198,
0.13920199501246883,0.007263130731050425,
0.13925187032418954,-0.007443986443626971,
0.13930174563591022,-0.010189557233252315,
0.13935162094763093,-0.018933047245256924,
0.1394014962593516,0.01487157936319799,
0.13945137157107232,-0.008250436456060006,
0.13950124688279303,-0.02584090107910534,
0.1395511221945137,0.0033879463681086674,
0.13960099750623442,-0.00897161697999457,
0.1396508728179551,-0.02682715676591032,
0.1397007481296758,0.01744514777780529,
0.13975062344139652,-0.003424068537191208,
0.1398004987531172,0.009720389954790014,
0.1398503740648379,0.01633804160703743,
0.1399002493765586,0.010316286463527651,
0.1399501246882793,0.017424264298193957,
0.14,0.016688111348344047,
0.1400498753117207,0.0215181682621753,
0.1400997506234414,-0.015432659635878258,
0.1401496259351621,0.022815179725277034,
0.1401995012468828,-0.01703291988729988,
0.14024937655860348,0.006585836931632042,
0.1402992518703242,0.011589860112393975,
0.1403491271820449,-0.0038443459547033354,
0.14039900249376558,-0.022926114041169447,
0.1404488778054863,0.01110018852157849,
0.14049875311720697,0.001991689511513805,
0.14054862842892768,0.008771291693194124,
0.1405985037406484,0.03081463034388343,
0.14064837905236907,-0.010464019542086173,
0.14069825436408978,0.030780815618161664,
0.14074812967581046,-0.013367749306812452,
0.14079800498753117,0.01473295927304703,
0.14084788029925188,0.0170522137386665,
0.14089775561097256,-0.004995483181920002,
0.14094763092269327,0.023134120226550738,
0.14099750623441396,-0.004151386352684673,
0.14104738154613466,0.02298331361853826,
0.14109725685785537,-0.0031556865331535764,
0.14114713216957606,0.023458105291873522,
0.14119700748129677,0.017354949670317497,
0.14124688279301745,0.011429081423856301,
0.14129675810473816,0.014874081227678368,
0.14134663341645887,0.03358653261002871,
0.14139650872817955,0.015880406993939288,
