time,amplitude,label
0.0,0.02453258070496718,
4.987531172069826e-05,-0.028471107927157138,
9.975062344139652e-05,0.00023675055765987312,
0.00014962593516209475,-0.012771560142926682,
0.00019950124688279303,-0.01659272507440493,
0.00024937655860349125,0.010804806279637934,
0.0002992518703241895,-0.0008172623497385281,
0.00034912718204488776,0.002231894452596899,
0.00039900249376558606,-0.007805018198000162,
0.0004488778054862843,0.013249918357971931,
0.0004987531172069825,-0.005835967489032312,
0.0005486284289276808,-0.007282247137690967,
0.000598503740648379,0.03515030437424944,
0.0006483790523690773,-0.029565950916568558,
0.0006982543640897755,-0.03866419532679751,
0.0007481296758104738,-0.01832278452289981,
0.0007980049875311721,-0.006872507595694066,
0.0008478802992518703,-0.02972389947348915,
0.0008977556109725686,-0.016970059081177154,
0.0009476309226932668,0.016673770293948002,
0.000997506234413965,-0.003783183918760291,
0.0010473815461346633,-0.013788422250387523,
0.0010972568578553616,-0.02447280257780763,
0.00114713216957606,-0.009548148841373373,
0.001197007481296758,-0.004217247969109583,
0.0012468827930174563,-0.021933928668161594,
0.0012967581047381546,-0.007865694163989603,
0.001346633416458853,-0.015208823400980735,
0.001396508728179551,-0.03428129387039371,
0.0014463840399002493,-0.018542478894368903,
0.0014962593516209476,-0.021849600054267795,
0.001546134663341646,0.00782174438277775,
0.0015960099750623442,-0.018492316208151942,
0.0016458852867830423,-0.015315210406311572,
0.0016957605985037406,-0.004352804234773286,
0.001745635910224439,-0.01619710990029628,
0.0017955112219451373,-0.02202501142724724,
0.0018453865336658353,0.010185738849698082,
0.0018952618453865336,-0.010521128688095896,
0.001945137157107232,-0.03273486763842229,
0.00199501246882793,-0.01708252159733242,
0.0020448877805486283,-0.004100702535719456,
0.0020947630922693266,-0.05846782575526862,
0.002144638403990025,0.003147238024290202,
0.0021945137157107233,-0.007313230154937877,
0.0022443890274314216,-0.01275083165909587,
0.00229426433915212,-0.03984056709863312,
0.0023441396508728177,-0.03540687466129686,
0.002394014962593516,-0.04220054849986476,
0.0024438902743142144,-0.047283977423295306,
0.0024937655860349127,-0.04800930613887097,
0.002543640897755611,-0.0038850285788755365,
0.0025935162094763093,0.005212412888428025,
0.0026433915211970076,-0.029763541200552003,
0.002693266832917706,-0.020606214604826235,
0.002743142144638404,-0.022467386953269473,
0.002793017456359102,-0.010118035857091593,
0.0028428927680798004,-0.02149034667279883,
0.0028927680798004987,-0.024399210352476837,
0.002942643391521197,-0.004636910934212885,
0.0029925187032418953,-0.013659193139136971,
0.0030423940149625936,-0.013837435311823005,
0.003092269326683292,-0.02946126450845675,
0.00314214463840399,-0.030674982020750734,
0.0031920199501246885,0.01065474141545656,
0.0032418952618453864,-0.0037471370412266065,
0.0032917705735660847,-0.00227027450531209,
0.003341645885286783,-0.012879468577740796,
0.0033915211970074813,-0.04528142190848343,
0.0034413965087281796,-0.05141312409250958,
0.003491271820448878,-0.030832751297589278,
0.003541147132169576,-0.031974841785014,
0.0035910224438902745,-0.024841267040223446,
0.0036408977556109724,-0.013502570035868532,
0.0036907730673316707,-0.005009439708659788,
0.003740648379052369,0.0005377822961312728,
0.0037905236907730673,-0.005914067629848762,
0.0038403990024937656,-0.027844038011594695,
0.003890274314214464,0.0008669520272699648,
0.003940149625935162,-0.010017341495081577,
0.00399002493765586,-0.01699777970715893,
0.004039900249376558,-0.04332727820002749,
0.004089775561097257,-0.025093620463639665,
0.004139650872817955,-0.0030176696278180724,
0.004189526184538653,-0.025622194896337654,
0.004239401496259352,-0.02615493609069626,
0.00428927680798005,-0.01134039535966815,
0.004339152119700748,-0.005490161822336607,
0.0043890274314214465,-0.00913596298689432,
0.004438902743142145,-0.02118889084598394,
0.004488778054862843,-0.02037595824781832,
0.004538653366583541,-0.008954676840529727,
0.00458852867830424,-0.058189386506203304,
0.004638403990024938,-0.02114298781714018,
0.0046882793017456355,0.02433803317253247,
0.004738154613466334,-0.036157371255868626,
0.004788029925187032,-0.026107842132998334,
0.00483790523690773,-0.012179587128004214,
0.004887780548628429,-0.028594279216281278,
0.004937655860349127,-0.04991109938853068,
0.004987531172069825,-0.01717939193653829,
0.005037406483790524,-0.016214894453295263,
0.005087281795511222,-0.03617225704125433,
0.00513715710723192,-0.005731310493948878,
0.0051870324189526185,-0.011443840620764801,
0.005236907730673317,-0.010606462944982957,
0.005286783042394015,-0.022819342136672666,
0.0053366583541147134,-0.027011639053444628,
0.005386533665835412,-0.031459350737699315,
0.00543640897755611,-0.010342618711016528,
0.005486284289276808,-0.018988716521529194,
0.005536159600997507,0.011549076928866392,
0.005586034912718204,-0.015341559525741899,
0.005635910224438902,-0.00580855947404061,
0.005685785536159601,-0.017360913597759743,
0.005735660847880299,-0.015767829525243537,
0.005785536159600997,-0.014394135383739497,
0.005835411471321696,-0.02287414791937327,
0.005885286783042394,-0.027535564226540542,
0.005935162094763092,-0.010266832851087487,
0.0059850374064837905,-0.035050605889650734,
0.006034912718204489,-0.04000872086543508,
0.006084788029925187,-0.016957036347911517,
0.0061346633416458855,-0.025190480502109883,
0.006184538653366584,-0.002572788788873348,
0.006234413965087282,-0.025723823346382232,
0.00628428927680798,-0.03823738025839258,
0.006334164588528679,0.012939816186383905,
0.006384039900249377,-0.013217833151895437,
0.006433915211970074,0.0008184998890362772,
0.006483790523690773,-0.026977499015526412,
0.006533665835411471,-0.014903027046456008,
0.006583541147132169,-0.01486494813975113,
0.006633416458852868,-0.01832346182820746,
0.006683291770573566,-0.019027718291327253,
0.006733167082294264,-0.04136017477848644,
0.0067830423940149626,-0.03301130563227465,
0.006832917705735661,-0.002106070894199499,
0.006882793017456359,-0.018282628913392104,
0.0069326683291770575,0.0179384266276622,
0.006982543640897756,-0.024716971338611206,
0.007032418952618454,0.00010280158885500948,
0.007082294264339152,-0.007445421574067618,
0.007132169576059851,0.016720441168769168,
0.007182044887780549,-0.029463196599475317,
0.007231920199501247,-0.00885871909576216,
0.007281795511221945,-0.023763048447868005,
0.007331670822942643,0.00440945261006509,
0.007381546134663341,-0.0191880007143646,
0.00743142144638404,-0.004046397810951449,
0.007481296758104738,0.0011284717508540047,
0.007531172069825436,-0.008524382521357924,
0.007581047381546135,-0.005559974379419298,
0.007630922693266833,-0.002885255592139666,
0.007680798004987531,0.002592318791991426,
0.0077306733167082295,-0.012063208920785936,
0.007780548628428928,-0.017471910774544967,
0.007830423940149626,-0.01638517028002632,
0.007880299251870324,0.0038930527697334646,
0.007930174563591023,0.006509302045438937,
0.00798004987531172,-0.016838222207839874,
0.00802992518703242,-0.020000151142242868,
0.008079800498753117,-0.014652806190030197,
0.008129675810473816,-0.0035151310689917913,
0.008179551122194513,0.00806907591073706,
0.008229426433915213,0.0046554186412664286,
0.00827930174563591,-0.02391624978954257,
0.00832917705735661,-0.006375005981338715,
0.008379052369077307,-0.024152020244585803,
0.008428927680798006,-0.0037629544216475244,
0.008478802992518703,0.016306602343293293,
0.0085286783042394,0.027089061722073746,
0.0085785536159601,0.005658628922097609,
0.008628428927680797,-0.01219387423060326,
0.008678304239401496,-0.02877635893586521,
0.008728179551122194,-0.0072532754455717705,
0.008778054862842893,0.007600794468576954,
0.00882793017456359,0.011698111409885997,
0.00887780548628429,0.026832956970357064,
0.008927680798004987,-0.004049444744353083,
0.008977556109725686,-0.023810385956115555,
0.009027431421446384,0.002459785788464709,
0.009077306733167083,-0.002940704235287309,
0.00912718204488778,0.005687595202307038,
0.00917705735660848,0.0205792191681493,
0.009226932668329177,0.018307985228247232,
0.009276807980049876,-0.005684333263471427,
0.009326683291770574,-0.0030169787592475247,
0.009376558603491271,-0.009254480964302404,
0.00942643391521197,0.012469711871025524,
0.009476309226932668,0.014596961717905685,
0.009526184538653367,0.011171430162310318,
0.009576059850374064,-0.004097288148516537,
0.009625935162094763,-0.005760259638036267,
0.00967581047381546,-0.019908943977560968,
0.00972568578553616,-0.011980247279534402,
0.009775561097256857,0.012241338496303125,
0.009825436408977557,-0.01261280066508532,
0.009875311720698254,-0.00042679891268080673,
0.009925187032418953,0.011355703863358504,
0.00997506234413965,0.017821675458708844,
0.01002493765586035,0.023152919589678057,
0.010074812967581047,0.03163768200171595,
0.010124688279301746,0.05139849461208314,
0.010174563591022444,0.0015553132445951532,
0.010224438902743141,-0.009014738901756556,
0.01027431421446384,0.014951362363263082,
0.010324189526184538,-0.009534246621016877,
0.010374064837905237,0.01717923482301722,
0.010423940149625935,0.018901041529734423,
0.010473815461346634,0.03269012296024685,
0.010523690773067331,-0.010356644054387028,
0.01057356608478803,0.028824172629351268,
0.010623441396508728,0.01524338568921762,
0.010673316708229427,0.013822536040758499,
0.010723192019950124,0.028561707152114764,
0.010773067331670824,0.007453269307648869,
0.010822942643391521,0.003241177786979242,
0.01087281795511222,0.006461455969459771,
0.010922693266832918,0.005204119789655218,
0.010972568578553617,0.02470137563489696,
0.011022443890274314,0.021894750465760747,
0.011072319201995013,0.044045836395922036,
0.01112219451371571,-0.0007677633728637185,
0.011172069825436408,0.00910953511609592,
0.011221945137157107,0.014703620914053842,
0.011271820448877805,-0.0030975128392206046,
0.011321695760598504,0.030159552168539508,
0.011371571072319201,0.02268822977928395,
0.0114214463840399,0.03819987668857029,
0.011471321695760598,-0.005469773960236492,
0.011521197007481297,0.0218525547634039,
0.011571072319201995,-0.0012724266600402934,
0.011620947630922694,0.01329589755164091,
0.011670822942643391,0.009696626438608406,
0.01172069825436409,-0.03352463802901842,
0.011770573566084788,0.019351463084785057,
0.011820448877805487,-0.006653921763434559,
0.011870324189526184,0.015738546601372305,
0.011920199501246884,0.005746200932813106,
0.011970074812967581,0.009714914031291298,
0.012019950124688279,0.006400627156878403,
0.012069825436408978,0.004482117170047206,
0.012119700748129675,0.019399215378569614,
0.012169576059850374,0.01972973614131512,
0.012219451371571072,0.010076679994986662,
0.012269326683291771,0.03339442010188008,
0.012319201995012468,0.034707891906991445,
0.012369077306733168,0.03523340765417497,
0.012418952618453865,0.019464090208906996,
0.012468827930174564,0.026703844773447557,
0.012518703241895262,0.0002161719469612848,
0.01256857855361596,0.039106126355751926,
0.012618453865336658,0.05576102446133828,
0.012668329177057357,0.003912489773913973,
0.012718204488778055,0.008045878787722631,
0.012768079800498754,0.03216990842142898,
0.012817955112219451,0.017591822273387424,
0.012867830423940149,0.014209435185352455,
0.012917705735660848,0.02183299403905676,
0.012967581047381545,0.025553940579798626,
0.013017456359102245,0.013186253237861044,
0.013067331670822942,0.01611091915581924,
0.013117206982543641,0.016576747656901012,
0.013167082294264339,0.01737468782815074,
0.013216957605985038,0.013069545125169014,
0.013266832917705735,0.04213831476035107,
0.013316708229426434,0.02945542488548246,
0.013366583541147132,0.004515083172534361,
0.013416458852867831,0.009839311535581156,
0.013466334164588529,-0.0028574010134323514,
0.013516209476309228,0.012002055307553636,
0.013566084788029925,0.04575969503766068,
0.013615960099750624,0.016459004806562802,
0.013665835411471322,0.018407046381414795,
0.01371571072319202,0.03376115923165747,
0.013765586034912718,0.020004663646238062,
0.013815461346633416,0.033089928248639516,
0.013865336658354115,0.01872956317762188,
0.013915211970074812,0.021624484227683732,
0.013965087281795512,0.007681041112165334,
0.014014962593516209,0.026254499211176542,
0.014064837905236908,0.025843626404634883,
0.014114713216957606,0.006933644473787309,
0.014164588528678305,0.016337979170329683,
0.014214463840399002,0.02132085653984986,
0.014264339152119701,0.010315477736964757,
0.014314214463840399,0.02007126522528015,
0.014364089775561098,0.02504876634721765,
0.014413965087281795,0.02259487982201107,
0.014463840399002495,0.008747083367875975,
0.014513715710723192,0.041466072510474454,
0.01456359102244389,0.03874270139741694,
0.014613466334164589,0.03627439173151982,
0.014663341645885286,0.035295757826093496,
0.014713216957605985,0.013886160986898832,
0.014763092269326683,0.03941364880136243,
0.014812967581047382,0.012135110820515415,
0.01486284289276808,0.021693327539860127,
0.014912718204488778,0.03889402711378902,
0.014962593516209476,0.040472013181294626,
0.015012468827930175,0.04350243334683618,
0.015062344139650873,0.02648737905127707,
0.015112219451371572,0.015003834295320744,
0.01516209476309227,0.009835517480345309,
0.015211970074812968,0.019194447277612815,
0.015261845386533666,-0.0036434006096528887,
0.015311720698254365,0.009408212684576195,
0.015361596009975062,0.033990285831904665,
0.01541147132169576,0.026057237276370878,
0.015461346633416459,0.039602736610295064,
0.015511221945137156,0.022803248803457445,
0.015561097256857856,0.0383548148077639,
0.015610972568578553,0.012096682509248247,
0.015660847880299252,0.02976785777656392,
0.01571072319201995,-0.0052515384197766475,
0.015760598503740647,0.004053030189763182,
0.015810473815461346,0.003083183452532017,
0.015860349127182045,0.001735731602065655,
0.015910224438902745,-0.016766433128827533,
0.01596009975062344,0.010474385883828914,
0.01600997506234414,0.050308503872879384,
0.01605985037406484,0.012086626826402786,
0.016109725685785538,0.05337196501418997,
0.016159600997506234,0.03308040932310477,
0.016209476309226933,0.01045737782300613,
0.016259351620947632,0.044964844238910465,
0.016309226932668328,0.023086560577873907,
0.016359102244389027,0.024932203364553124,
0.016408977556109726,0.0185835918981749,
0.016458852867830425,0.03918780732755295,
0.01650872817955112,-0.011099615211291576,
0.01655860349127182,0.045745163247478106,
0.01660847880299252,0.004706786536152132,
0.01665835411471322,0.01989403897719395,
0.016708229426433914,0.014663347306762109,
0.016758104738154613,0.02257642278087292,
0.016807980049875312,0.005343897594049862,
0.01685785536159601,0.0008438464963664901,
0.016907730673316707,0.030034742636268923,
0.016957605985037406,0.01597450377992925,
0.017007481296758106,0.021307816727812567,
0.0170573566084788,0.022174888014650312,
0.0171072319201995,0.03532912848420365,
0.0171571072319202,-0.0014747252629433959,
0.0172069825436409,0.009638439213782244,
0.017256857855361595,-0.005458432941402252,
0.017306733167082294,0.013278322412867425,
0.017356608478802993,0.021391928397070614,
0.017406483790523692,0.009017635212867773,
0.017456359102244388,0.003099066766209438,
0.017506234413965087,0.032735720748527604,
0.017556109725685786,-0.012388414786398298,
0.017605985037406485,0.011659559467432787,
0.01765586034912718,0.02919259411676957,
0.01770573566084788,0.006650226997150897,
0.01775561097256858,0.02524301290216427,
0.01780548628428928,0.02654167451288461,
0.017855361596009974,-0.0030332311192655496,
0.017905236907730673,0.01538816205522053,
0.017955112219451373,-0.013604908558698045,
0.018004987531172068,-0.0018166460424685667,
0.018054862842892767,0.024943492293024623,
0.018104738154613467,0.013734776862929864,
0.018154613466334166,-0.006457368466029966,
0.01820448877805486,0.008349698373992033,
0.01825436408977556,0.016022536108579188,
0.01830423940149626,-0.008108038952010569,
0.01835411471321696,0.001570949334545628,
0.018403990024937655,-0.013514512834986062,
0.018453865336658354,0.015488346609442266,
0.018503740648379053,-0.010482116473913505,
0.018553615960099752,-0.0024503876993236893,
0.018603491271820448,-0.0030186127553240042,
0.018653366583541147,0.009531354872004244,
0.018703241895261846,-0.005460759114955596,
0.018753117206982542,0.003800506727766156,
0.01880299251870324,0.012437227549585192,
0.01885286783042394,0.03364918685304139,
0.01890274314214464,-0.008416154382274955,
0.018952618453865335,0.018555867487941982,
0.019002493765586034,-0.010123307572539942,
0.019052369077306733,-0.003335507947769152,
0.019102244389027433,0.002725658533627979,
0.01915211970074813,0.017252098558808077,
0.019201995012468828,0.0022011150066711394,
0.019251870324189527,0.02082785993713543,
0.019301745635910226,-0.0030146774332123682,
0.01935162094763092,0.019314807518516323,
0.01940149625935162,0.0069151196331338795,
0.01945137157107232,0.02398355334345658,
0.01950124688279302,-0.009146047911369543,
0.019551122194513715,0.019584396418067786,
0.019600997506234414,-0.0030598134843357007,
0.019650872817955113,0.005928508982264675,
0.01970074812967581,-0.0015391838891552385,
0.019750623441396508,-0.02155948260422686,
0.019800498753117207,0.0013290484523581954,
0.019850374064837906,-0.020834110597220505,
0.019900249376558602,-0.0021169019268950395,
0.0199501246882793,0.011955675995087567,
0.02,0.0007420323472436098,
0.0200498753117207,0.0036270023311137352,
0.020099750623441395,-0.012236346424839208,
0.020149625935162094,0.013212405507520307,
0.020199501246882794,-0.029144455716926428,
0.020249376558603493,0.02884253415516833,
0.02029925187032419,-0.012080986653399402,
0.020349127182044888,0.02188130749369984,
0.020399002493765587,-0.023057387627248332,
0.020448877805486283,-0.018443743242994897,
0.02049875311720698,-0.003117079689139447,
0.02054862842892768,0.00011033137009079305,
0.02059850374064838,0.013945924154418279,
0.020648379052369076,-0.03433160252766867,
0.020698254364089775,0.007498109930361131,
0.020748129675810474,-0.004441374042553597,
0.020798004987531173,-0.00015312143466723535,
0.02084788029925187,-0.016722364863455914,
0.020897755610972568,-0.001331553068031805,
0.020947630922693267,-0.01483208320067752,
0.020997506234413967,-2.4116715177158188e-05,
0.021047381546134662,-0.01574752852842017,
0.02109725685785536,-0.024058665828000717,
0.02114713216957606,-0.01578185429955594,
0.02119700748129676,-0.006640807852799433,
0.021246882793017455,-0.005836666855364516,
0.021296758104738155,-0.032249538019776536,
0.021346633416458854,-0.004211335602692342,
0.02139650872817955,-0.043501952637078574,
0.02144638403990025,-0.052158533639471545,
0.021496259351620948,-0.014159187797018165,
0.021546134663341647,-0.012538753560410057,
0.021596009975062343,0.00011177334496324798,
0.021645885286783042,-0.024827031436688303,
0.02169576059850374,-0.03174401137362565,
0.02174563591022444,-0.0052996748673134544,
0.021795511221945136,-0.03274607305101146,
0.021845386533665835,-0.03688745062619777,
0.021895261845386534,-0.012354848044420393,
0.021945137157107233,-0.0008909438139561993,
0.02199501246882793,-0.0018616510254336888,
0.02204488778054863,-0.030692142052049946,
0.022094763092269327,-0.01729316921545263,
0.022144638403990027,-0.00019017293122041388,
0.022194513715710722,6.406701429095829e-05,
0.02224438902743142,0.0023649137252416616,
0.02229426433915212,0.0042967989026852366,
0.022344139650872816,-0.022717452529186978,
0.022394014962593516,-0.026342921083237478,
0.022443890274314215,0.01574746889814298,
0.022493765586034914,-0.012611080793420212,
0.02254364089775561,-0.026402775146208184,
0.02259351620947631,-0.0312739686268646,
0.022643391521197008,-0.01817188890123607,
0.022693266832917707,-0.01970708316718427,
0.022743142144638403,-0.002832406192038315,
0.022793017456359102,-0.015248366714226838,
0.0228428927680798,-0.0013874768936787026,
0.0228927680798005,0.0020461234351776027,
0.022942643391521196,-0.022106329503622287,
0.022992518703241895,0.00405807506389802,
0.023042394014962594,-0.021312967271318033,
0.02309226932668329,-0.006924716733137106,
0.02314214463840399,-0.03041269005741807,
0.02319201995012469,-0.04994302376656031,
0.023241895261845388,-0.04366758791691333,
0.023291770573566083,-0.05338092590796293,
0.023341645885286783,-0.023274220173813413,
0.02339152119700748,-0.04613107008094761,
0.02344139650872818,-0.0349692097556074,
0.023491271820448877,-0.02699546289540377,
0.023541147132169576,-0.0037451643228913114,
0.023591022443890275,-0.018303292521539335,
0.023640897755610974,-0.010433397124228284,
0.02369077306733167,0.00429812549827404,
0.02374064837905237,-0.0049873762205524235,
0.023790523690773068,-0.026417559662403257,
0.023840399002493767,-0.027801643964977165,
0.023890274314214463,-0.013845623454067648,
0.023940149625935162,-0.008807883477323,
0.02399002493765586,-0.02908480558872377,
0.024039900249376557,-0.019705452123960552,
0.024089775561097256,-0.01403306178482683,
0.024139650872817955,-0.017592086024344797,
0.024189526184538655,-0.03281797009228602,
0.02423940149625935,0.004227363645421603,
0.02428927680798005,-0.028916435721985247,
0.02433915211970075,-0.012696218746195335,
0.024389027431421448,-0.03263682080337368,
0.024438902743142144,-0.023352514033195458,
0.024488778054862843,-0.05069849663674289,
0.024538653366583542,-0.019983765893805634,
0.02458852867830424,0.019218866062856454,
0.024638403990024937,0.013169990559554583,
0.024688279301745636,-0.0027931294523254307,
0.024738154613466335,-0.027255561473766912,
0.02478802992518703,0.006743803774902697,
0.02483790523690773,-0.005995737418947322,
0.02488778054862843,0.02003562580453644,
0.02493765586034913,-0.037123997031615785,
0.024987531172069824,-0.029583545416644978,
0.025037406483790523,0.007744265399546854,
0.025087281795511222,-0.0077570952566804775,
0.02513715710723192,-0.02678409224868461,
0.025187032418952617,-0.02362598346703165,
0.025236907730673316,-0.01271878510320804,
0.025286783042394016,0.005105023340384693,
0.025336658354114715,-0.016853327659500816,
0.02538653366583541,-0.013145345598739266,
0.02543640897755611,-0.012344233320284876,
0.02548628428927681,0.0019417952838333922,
0.025536159600997508,-0.02992909260098168,
0.025586034912718204,-0.020915947408972464,
0.025635910224438903,0.008952473977926704,
0.025685785536159602,-0.009584025548238213,
0.025735660847880298,-0.03394397457396262,
0.025785536159600997,0.00017488256133788883,
0.025835411471321696,-0.004295307694477779,
0.025885286783042395,-0.03589647042486287,
0.02593516209476309,-0.016566860671366625,
0.02598503740648379,-0.03667617855900654,
0.02603491271820449,-0.01837218438655258,
0.02608478802992519,-0.019890623492535762,
0.026134663341645884,-0.014500595782089294,
0.026184538653366583,-0.00855110416662499,
0.026234413965087282,-0.038359235263170074,
0.02628428927680798,-0.020489857529062242,
0.026334164588528677,-0.016156173559076878,
0.026384039900249377,0.007194962486521666,
0.026433915211970076,-0.0041286721645070225,
0.02648379052369077,-0.02531136668035064,
0.02653366583541147,-0.0007671615242959735,
0.02658354114713217,-0.022711604377714197,
0.02663341645885287,-0.017756471166932866,
0.026683291770573565,-0.037372018807589676,
0.026733167082294264,-0.027311760076412197,
0.026783042394014963,0.0061131214507476085,
0.026832917705735662,-0.03150984474636338,
0.026882793017456358,-0.020254059796156028,
0.026932668329177057,-0.028164470725222056,
0.026982543640897756,0.010356988077145534,
0.027032418952618455,0.007343073659497983,
0.02708229426433915,0.002863508962687354,
0.02713216957605985,-0.02005430451714713,
0.02718204488778055,0.0007780621099108542,
0.02723192019950125,-0.013460553049307551,
0.027281795511221944,-0.005752119177979214,
0.027331670822942643,0.008714493649243184,
0.027381546134663343,-0.021420533330415274,
0.02743142144638404,-0.006160233275364203,
0.027481296758104738,-0.012987180502531559,
0.027531172069825437,0.0002492256738084028,
0.027581047381546136,0.010400837585002674,
0.02763092269326683,-0.01298597818368126,
0.02768079800498753,0.0067843768585119715,
0.02773067331670823,0.0005513734956242517,
0.02778054862842893,0.0032648238631294534,
0.027830423940149625,0.010298999004946446,
0.027880299251870324,-0.03169869612103452,
0.027930174563591023,0.009477715385703684,
0.027980049875311722,-0.016614768792352286,
0.028029925187032418,-0.0014124616081667269,
0.028079800498753117,0.0030447054687457553,
0.028129675810473816,-0.000963838164153051,
0.028179551122194512,-0.018897660949255757,
0.02822942643391521,-0.026442602529404467,
0.02827930174563591,0.0004954825582784237,
0.02832917705735661,-0.017210812994795384,
0.028379052369077305,-0.006243996318822683,
0.028428927680798004,0.015395646472835513,
0.028478802992518704,-0.025625745501782895,
0.028528678304239403,-0.020787964736991644,
0.0285785536159601,-0.02097603559306967,
0.028628428927680798,-0.0014686380399761508,
0.028678304239401497,-6.906520416936695e-05,
0.028728179551122196,-0.027024704300932942,
0.02877805486284289,0.010268828015091495,
0.02882793017456359,0.01756382920445811,
0.02887780548628429,-0.00026670356454563124,
0.02892768079800499,0.005528147939200018,
0.028977556109725685,0.005326760408041116,
0.029027431421446384,0.002752800181897504,
0.029077306733167083,-0.016831290380065624,
0.02912718204488778,0.001954593000197469,
0.029177057356608478,0.012434586362787586,
0.029226932668329177,0.03424084608426446,
0.029276807980049877,0.003349829377675242,
0.029326683291770572,-0.02098918837955124,
0.02937655860349127,0.00348098876290336,
0.02942643391521197,0.0059159867379690225,
0.02947630922693267,0.004866434814254709,
0.029526184538653365,0.0032809978525873465,
0.029576059850374065,0.011818837098982765,
0.029625935162094764,-0.0004924431509691221,
0.029675810473815463,0.01390530222642195,
0.02972568578553616,0.032430518444373745,
0.029775561097256858,0.012961458947028319,
0.029825436408977557,0.00047258503785918213,
0.029875311720698253,-0.008214505734287609,
0.029925187032418952,0.0006323810940094196,
0.02997506234413965,0.00800972964078758,
0.03002493765586035,-0.01646644091175864,
0.030074812967581046,0.027732950777532392,
0.030124688279301745,-0.020144783729720638,
0.030174563591022444,-0.020438759383975557,
0.030224438902743143,0.021311973715412044,
0.03027431421446384,0.044849707923375705,
0.03032418952618454,-0.0034455586410399985,
0.030374064837905237,-0.0015020051756577738,
0.030423940149625937,0.008080342501305758,
0.030473815461346632,0.0005325596940448339,
0.03052369077306733,0.030264963108195358,
0.03057356608478803,0.014594716235177474,
0.03062344139650873,0.019237393103159577,
0.030673316708229426,0.004839453218530758,
0.030723192019950125,0.01395684350082513,
0.030773067331670824,0.020050246706237687,
0.03082294264339152,-0.006705660554309562,
0.03087281795511222,0.004349216269565187,
0.030922693266832918,0.00014291740194202068,
0.030972568578553617,0.03388048713855805,
0.031022443890274313,0.010914802963360504,
0.031072319201995012,0.024881956826518444,
0.03112219451371571,0.037271890682826436,
0.03117206982543641,0.02692207600259697,
0.031221945137157106,-0.0027807754802395834,
0.03127182044887781,0.03136571371345193,
0.031321695760598504,0.02234510268287645,
0.0313715710723192,0.03439065081490923,
0.0314214463840399,0.01679433963488746,
0.0314713216957606,0.0054281926020532285,
0.031521197007481294,0.0015438941239803126,
0.031571072319202,0.01686166835928941,
0.03162094763092269,0.021810018178707615,
0.03167082294264339,0.02770996996672514,
0.03172069825436409,0.010074382390241199,
0.03177057356608479,0.010173835186594355,
0.03182044887780549,0.03225638816687071,
0.031870324189526185,0.036264830979968715,
0.03192019950124688,0.041805382614492015,
0.03197007481296758,0.03156438375232605,
0.03201995012468828,-0.015888144748833478,
0.032069825436408975,0.02665222860601372,
0.03211970074812968,0.004222519086422979,
0.03216957605985037,0.025357770934779082,
0.032219451371571076,0.020816201957848536,
0.03226932668329177,0.004428750302647874,
0.03231920199501247,0.01929882403461726,
0.03236907730673317,0.0237570617568646,
0.032418952618453865,0.0338725156926615,
0.03246882793017456,-0.0005036471566614957,
0.032518703241895264,0.016109310855253505,
0.03256857855361596,0.008426334652197024,
0.032618453865336655,0.03840142775716531,
0.03266832917705736,0.022448135051806314,
0.032718204488778053,0.018898690818235905,
0.032768079800498756,0.028558825193275232,
0.03281795511221945,0.04778559293887398,
0.03286783042394015,0.028731139806003253,
0.03291770573566085,0.03517693519807715,
0.032967581047381546,0.040449170146824046,
0.03301745635910224,0.025552676889114133,
0.033067331670822944,0.00975055868899807,
0.03311720698254364,0.010215731919500901,
0.03316708229426434,-0.0005472614670290095,
0.03321695760598504,0.020934860092362253,
0.033266832917705734,0.02012644023048537,
0.03331670822942644,0.01359579042208054,
0.03336658354114713,0.028188203450112866,
0.03341645885286783,0.009482788512698693,
0.03346633416458853,0.022022010052166932,
0.033516209476309226,0.030503683772007933,
0.03356608478802992,0.015468535934405551,
0.033615960099750625,0.034657431829886995,
0.03366583541147132,0.022978874477011267,
0.03371571072319202,0.01417016265544985,
0.03376558603491272,0.02221135353390157,
0.033815461346633414,0.01825362254887011,
0.03386533665835412,0.006511113355849824,
0.03391521197007481,0.04056513916706049,
0.03396508728179551,0.024726711914759638,
0.03401496259351621,-0.005783844835898992,
0.03406483790523691,0.031686925249118286,
0.0341147132169576,0.012095196416207817,
0.034164588528678305,0.039759428391802354,
0.034214463840399,0.01132734346015462,
0.034264339152119704,0.018649868982171948,
0.0343142144638404,0.03590966596546807,
0.034364089775561095,0.03527555993079101,
0.0344139650872818,0.01825728212925574,
0.03446384039900249,0.03370957786152914,
0.03451371571072319,0.016214451317495035,
0.03456359102244389,0.021758606366652982,
0.03461346633416459,0.0006321152871405049,
0.03466334164588529,0.018369438053423427,
0.034713216957605986,0.02750404576102843,
0.03476309226932668,0.02641479447397318,
0.034812967581047384,0.021481535937641925,
0.03486284289276808,-0.001257298183356334,
0.034912718204488775,0.030864314416694315,
0.03496259351620948,0.026339431258893098,
0.035012468827930174,0.033263210286005145,
0.03506234413965087,0.038964668301029126,
0.03511221945137157,0.012518811117961862,
0.03516209476309227,-0.0006397190770754124,
0.03521197007481297,0.012431352573833349,
0.035261845386533666,0.04024423715936416,
0.03531172069825436,0.03639200825132126,
0.035361596009975065,0.020778455002361945,
0.03541147132169576,0.013318745887692324,
0.035461346633416456,0.03290811089359813,
0.03551122194513716,0.03356873190311794,
0.035561097256857854,0.03463124149040134,
0.03561097256857856,0.009409481894815027,
0.03566084788029925,0.024016416500573852,
0.03571072319201995,-0.004140963963838968,
0.03576059850374065,0.02612995998751664,
0.03581047381546135,0.00900218901277541,
0.03586034912718204,0.02407595976269941,
0.035910224438902745,0.03558320139642423,
0.03596009975062344,0.021252316640726354,
0.036009975062344136,0.02615094689687906,
0.03605985037406484,0.03972255117653476,
0.036109725685785535,0.007709540411635895,
0.03615960099750624,-0.010331614663636565,
0.03620947630922693,0.002604864730855477,
0.03625935162094763,0.01699494858345292,
0.03630922693266833,0.0087869241030399,
0.03635910224438903,0.012187311102805933,
0.03640897755610972,0.004346952236529172,
0.036458852867830426,-0.014590842044821951,
0.03650872817955112,0.013515513854302292,
0.036558603491271824,0.00778331072660178,
0.03660847880299252,-0.0018538088057160028,
0.036658354114713215,0.02675583255529672,
0.03670822942643392,0.006901936183635469,
0.036758104738154614,-0.0038142705752477572,
0.03680798004987531,-0.005628866614132871,
0.03685785536159601,0.006642539366796572,
0.03690773067331671,-0.003012296902054505,
0.0369576059850374,-0.00039950627705586696,
0.037007481296758106,0.0008873830867804182,
0.0370573566084788,-0.0034106831547653788,
0.037107231920199504,0.027267595000667177,
0.0371571072319202,-0.0009983492271350026,
0.037206982543640896,-0.009261691328383892,
0.0372568578553616,0.019663332974012817,
0.037306733167082294,0.017797282735546035,
0.03735660847880299,0.02428482713087237,
0.03740648379052369,0.007415071053755569,
0.03745635910224439,0.027254385836951195,
0.037506234413965084,-0.003549366279056004,
0.037556109725685786,0.03275825836108731,
0.03760598503740648,0.01892151768616113,
0.037655860349127185,0.0027556631497735523,
0.03770573566084788,0.01428068009011009,
0.037755610972568576,-0.015184841912461344,
0.03780548628428928,0.010288665384234796,
0.037855361596009975,0.01001405959465875,
0.03790523690773067,0.03743375035690413,
0.03795511221945137,0.03197915692897166,
0.03800498753117207,-0.01215267990819312,
0.03805486284289277,-0.02340452766160715,
0.03810473815461347,-0.014829519812169244,
0.03815461346633416,0.010983981410886702,
0.038204488778054865,0.01793133426809528,
0.03825436408977556,0.0065102234376703235,
0.03830423940149626,-0.011980457048482251,
0.03835411471321696,-0.016873541536078843,
0.038403990024937655,0.00750793295910391,
0.03845386533665835,0.014689540077012092,
0.03850374064837905,0.02350888736288228,
0.03855361596009975,0.015110360881407726,
0.03860349127182045,-0.016898493033046618,
0.03865336658354115,0.011309921578173773,
0.03870324189526184,0.009277911005173445,
0.038753117206982546,0.005270857844081747,
0.03880299251870324,0.00558769966344844,
0.03885286783042394,-0.014901295638705282,
0.03890274314214464,0.03563973739176829,
0.038952618453865336,0.0007293491617194334,
0.03900249376558604,-0.006159455886025497,
0.039052369077306734,0.00785739292099439,
0.03910224438902743,-0.00016349417743906336,
0.03915211970074813,-0.010044804025720548,
0.03920199501246883,0.03257577127220466,
0.039251870324189524,0.021588115980497372,
0.039301745635910226,-0.00046361649419075714,
0.03935162094763092,-0.00692757170464407,
0.03940149625935162,0.0046401011865407765,
0.03945137157107232,-0.010589445988296664,
0.039501246882793016,-0.004696240938947436,
0.03955112219451372,-0.013697040488464322,
0.039600997506234414,-0.01015737465274792,
0.03965087281795511,0.0020294481234677114,
0.03970074812967581,-0.008198902093438322,
0.03975062344139651,-0.001808783331651361,
0.039800498753117204,0.0031554049379752106,
0.03985037406483791,-0.01566236943106523,
0.0399002493765586,-0.015509521573186092,
0.039950124688279305,-0.006860469732087567,
0.04,0.0020092337975175277,
0.0400498753117207,-0.019241852314126964,
0.0400997506234414,0.008172746708787709,
0.040149625935162095,0.0028856429461770593,
0.04019950124688279,-0.005406436081999768,
0.04024937655860349,-0.018538792090435983,
0.04029925187032419,-5.323449146561743e-06,
0.040349127182044885,-0.008766233310909536,
0.04039900249376559,-0.02742749584474568,
0.04044887780548628,-0.0035418094770537823,
0.040498753117206986,0.001807558252217202,
0.04054862842892768,-7.658071076216584e-05,
0.04059850374064838,0.0026007879369213272,
0.04064837905236908,-0.040501897475373944,
0.040698254364089775,-0.041311974659718864,
0.04074812967581047,-0.003711901571111363,
0.040798004987531174,-0.017825608660805674,
0.04084788029925187,0.020817894956203405,
0.040897755610972565,-0.0004975393810039072,
0.04094763092269327,-0.021680173718352933,
0.04099750623441396,-0.005195455659833856,
0.041047381546134666,-0.030757829277304184,
0.04109725685785536,-0.03801859601214631,
0.04114713216957606,-0.010256566996050924,
0.04119700748129676,-0.0081337507058187,
0.041246882793017456,-0.028595405998266894,
0.04129675810473815,0.0033827336591345826,
0.041346633416458854,-0.020101675963707766,
0.04139650872817955,0.014676179630348694,
0.04144638403990025,-0.045819380280410174,
0.04149625935162095,-0.006770261246344428,
0.041546134663341644,-0.01651698229273438,
0.04159600997506235,0.013578928414093428,
0.04164588528678304,-0.010116744222432653,
0.04169576059850374,-0.035239348286755595,
0.04174563591022444,-0.02041041354947038,
0.041795511221945136,-0.022446199132917483,
0.04184538653366583,-0.0060906429123362485,
0.041895261845386535,-0.010603238896703558,
0.04194513715710723,-0.012954106521544002,
0.04199501246882793,-0.008250382413720194,
0.04204488778054863,-0.02699251216707298,
0.042094763092269324,-0.015459877522987607,
0.04214463840399003,-0.03015277533648538,
0.04219451371571072,-0.025660715499476967,
0.04224438902743142,0.002365097971917793,
0.04229426433915212,-0.00095701518351465,
0.04234413965087282,-0.00980001370145479,
0.04239401496259352,0.004034395866436485,
0.042443890274314215,-0.003640973902758674,
0.04249376558603491,0.009532470833510654,
0.042543640897755614,0.004743579250707345,
0.04259351620947631,-0.003850682061374913,
0.042643391521197005,-0.02049725156275602,
0.04269326683291771,-0.03556367235945668,
0.0427431421446384,-0.025219269072978646,
0.0427930174563591,-0.027609561775816183,
0.0428428927680798,-0.026302414524693847,
0.0428927680798005,-0.015604603385945505,
0.0429426433915212,-0.023206666118757144,
0.042992518703241896,-0.018909679540349396,
0.04304239401496259,-0.0394611580929196,
0.043092269326683294,0.004288794536166478,
0.04314214463840399,-0.010213902984328553,
0.043192019950124685,-0.03525806774257274,
0.04324189526184539,-0.02180945339028861,
0.043291770573566084,-0.029456027614947686,
0.043341645885286786,-0.009684680459910684,
0.04339152119700748,-0.0012119558793119815,
0.04344139650872818,-0.02709795907161263,
0.04349127182044888,-0.010697525716359657,
0.043541147132169576,-0.01667630721272842,
0.04359102244389027,-0.01679064082892862,
0.043640897755610975,-0.01922393907197203,
0.04369077306733167,0.0012551852383358396,
0.043740648379052366,-0.01944382906345233,
0.04379052369077307,-0.007593465212267026,
0.043840399002493764,-0.011549867251356566,
0.04389027431421447,-0.04704245236632375,
0.04394014962593516,-0.005276241679436414,
0.04399002493765586,-0.019653028198632492,
0.04403990024937656,-0.02880409710216473,
0.04408977556109726,-0.020183547535901725,
0.04413965087281795,-0.039281867132808984,
0.044189526184538655,-0.010594790969978018,
0.04423940149625935,-0.03097131039173634,
0.04428927680798005,0.005858161981179305,
0.04433915211970075,-0.01766180632538752,
0.044389027431421445,0.005528075004860387,
0.04443890274314215,-0.02551734415260635,
0.04448877805486284,-0.0254588529724476,
0.04453865336658354,-0.012236546000310346,
0.04458852867830424,-0.02980817475205167,
0.04463840399002494,-0.003996345968093484,
0.04468827930174563,-0.02321147654000437,
0.044738154613466335,-0.0025879604260862898,
0.04478802992518703,-0.01957666590877393,
0.044837905236907734,0.0005126206795302464,
0.04488778054862843,-0.007157003458259403,
0.044937655860349125,-0.023734679510926962,
0.04498753117206983,-0.045553369577416396,
0.045037406483790524,-0.03508194201276871,
0.04508728179551122,-0.008586908564794176,
0.04513715710723192,-0.039359450409848354,
0.04518703241895262,-0.017664659519355905,
0.04523690773067331,-0.01178305617799363,
0.045286783042394016,-0.014921818420211619,
0.04533665835411471,-0.015347015880178283,
0.045386533665835414,-0.009687206106919612,
0.04543640897755611,-0.01579000086820388,
0.045486284289276806,-0.013327557572598153,
0.04553615960099751,-0.03622963365676751,
0.045586034912718204,0.006396688100395988,
0.0456359102244389,0.006842389095167222,
0.0456857855361596,-0.0062025627959708275,
0.0457356608478803,-0.011596218136832197,
0.045785536159601,-0.008770690048828678,
0.045835411471321696,-0.016908447877467515,
0.04588528678304239,-0.014005597193726104,
0.045935162094763095,-0.006863692917812279,
0.04598503740648379,-0.003948041751733423,
0.046034912718204486,-0.020518040909003117,
0.04608478802992519,-0.03543425730598919,
0.046134663341645885,-0.004099245903334429,
0.04618453865336658,-0.005438511335542928,
0.04623441396508728,-0.022341104150460752,
0.04628428927680798,-0.011544159224654071,
0.04633416458852868,-0.008269402935094053,
0.04638403990024938,-0.02260395362313722,
0.04643391521197007,-0.025521560555740522,
0.046483790523690775,-0.01825228649411509,
0.04653366583541147,-0.03136331090004146,
0.04658354114713217,-0.01584551512185521,
0.04663341645885287,-0.02711565138588897,
0.046683291770573565,0.005758604641419267,
0.04673316708229427,-0.020056558111732715,
0.04678304239401496,0.016891064392137813,
0.04683291770573566,0.003899938571323907,
0.04688279301745636,-0.02166489746292758,
0.04693266832917706,-0.0038860824840181857,
0.04698254364089775,0.00043049440526431865,
0.047032418952618456,-0.019327189560003503,
0.04708229426433915,0.013137438506102364,
0.04713216957605985,-0.011210432052810464,
0.04718204488778055,-0.014425316280633291,
0.047231920199501246,0.022563604799667514,
0.04728179551122195,0.009424113273171976,
0.047331670822942644,0.016439467505196675,
0.04738154613466334,0.00922370742808142,
0.04743142144638404,-0.014015524485344506,
0.04748129675810474,0.003041824062705544,
0.047531172069825434,0.001817468292319384,
0.047581047381546136,-0.016342610082624966,
0.04763092269326683,0.006857981935024353,
0.047680798004987535,0.007073196587916818,
0.04773067331670823,0.0028595400706401273,
0.047780548628428926,0.019017672400796798,
0.04783042394014963,-0.005240640781242565,
0.047880299251870324,-0.023755790866951523,
0.04793017456359102,-0.007739312216723216,
0.04798004987531172,-0.02090844337871079,
0.04802992518703242,-0.0053541498410717495,
0.048079800498753114,0.030978770043530654,
0.04812967581047382,-0.009543220858230181,
0.04817955112219451,0.020523961357909216,
0.048229426433915215,-0.002743365994122693,
0.04827930174563591,-0.01846857212359337,
0.048329177057356607,-0.010819583255622165,
0.04837905236907731,0.02239029740630233,
0.048428927680798005,-0.006577169740522398,
0.0484788029925187,-0.00702949203353344,
0.0485286783042394,0.03289294995855512,
0.0485785536159601,0.010456975927135171,
0.048628428927680795,0.02900957845702052,
0.0486783042394015,0.018971117265040995,
0.04872817955112219,0.0305336184237262,
0.048778054862842896,-0.016115832607083595,
0.04882793017456359,0.008280895285909907,
0.04887780548628429,-0.028082011983270455,
0.04892768079800499,0.029401309084626508,
0.048977556109725685,-0.038337118837234146,
0.04902743142144638,0.010571648081544531,
0.049077306733167084,-0.0017630444373369766,
0.04912718204488778,0.008792524787965246,
0.04917705735660848,0.019727263504387416,
0.04922693266832918,0.016475751521948075,
0.04927680798004987,-0.005381673377731822,
0.049326683291770576,0.008611307380742778,
0.04937655860349127,0.0037495847189360737,
0.04942643391521197,0.013551796348176392,
0.04947630922693267,0.000489451677252695,
0.049526184538653366,-0.015124151822130946,
0.04957605985037406,-0.009295843728911941,
0.049625935162094764,0.023444920723724377,
0.04967581047381546,-0.0007170824143963306,
0.04972568578553616,0.01813401706511191,
0.04977556109725686,0.008161432298002536,
0.049825436408977554,0.005011389947050495,
0.04987531172069826,0.014193618856683424,
0.04992518703241895,0.01842640607407025,
0.04997506234413965,-0.0027767437674472706,
0.05002493765586035,0.018719473929849496,
0.050074812967581046,0.004877882765878108,
0.05012468827930175,6.867072529429322e-05,
0.050174563591022445,0.005212041577968598,
0.05022443890274314,-0.006435708754994095,
0.05027431421446384,0.02358965840390788,
0.05032418952618454,0.009612373612225143,
0.050374064837905234,0.011997865685305116,
0.05042394014962594,0.0015697296367947339,
0.05047381546134663,0.024790467006315042,
0.05052369077306733,0.032048683451450614,
0.05057356608478803,0.026142213833936393,
0.05062344139650873,0.014331425445060568,
0.05067331670822943,0.02454290002433148,
0.050723192019950125,0.017637931289785802,
0.05077306733167082,0.0035448642352748274,
0.050822942643391524,0.02498888346080889,
0.05087281795511222,0.01752895197990495,
0.050922693266832915,-0.001244297369529409,
0.05097256857855362,0.02119714767519713,
0.05102244389027431,0.04641615624696143,
0.051072319201995016,0.016083699267302323,
0.05112219451371571,0.006726082457079499,
0.05117206982543641,0.02357116196593895,
0.05122194513715711,0.03896086868466066,
0.051271820448877806,-0.001754609738175282,
0.0513216957605985,0.02297318622702381,
0.051371571072319204,0.0019187770878006521,
0.0514214463840399,0.023606135476727904,
0.051471321695760595,0.012777048416098055,
0.0515211970074813,0.04636724514059959,
0.051571072319201994,0.023160100718333104,
0.051620947630922696,0.024740303361189535,
0.05167082294264339,0.04007056138796322,
0.05172069825436409,0.04954301171241409,
0.05177057356608479,0.05541334067923315,
0.051820448877805486,0.034473647140868785,
0.05187032418952618,-0.002364930446091193,
0.051920199501246884,-0.0020468576916369517,
0.05197007481296758,0.019344902667893366,
0.052019950124688276,0.01888344795733877,
0.05206982543640898,0.048097350567425486,
0.052119700748129674,0.04181727632518659,
0.05216957605985038,0.014634463777036467,
0.05221945137157107,-0.005442630001618782,
0.05226932668329177,0.018990684676052635,
0.05231920199501247,-0.0042116710185256916,
0.05236907730673317,0.04264124102850772,
0.05241895261845386,0.01605490279479919,
0.052468827930174565,0.030099085562233407,
0.05251870324189526,0.008498347740897052,
0.05256857855361596,0.05623984677601884,
0.05261845386533666,0.051233451557170975,
0.052668329177057355,0.03407176423202303,
0.05271820448877806,0.0018838860341071906,
0.05276807980049875,0.026009822591571138,
0.05281795511221945,0.008077550933763406,
0.05286783042394015,0.02144167507405822,
0.05291770573566085,0.03255429477884039,
0.05296758104738154,-0.007118875937873685,
0.053017456359102245,0.03575920378028197,
0.05306733167082294,0.0022857754219108434,
0.053117206982543644,-0.015989299611037653,
0.05316708229426434,0.01873576392856237,
0.053216957605985035,0.02448796600100525,
0.05326683291770574,0.02647410417177856,
0.053316708229426434,0.0272907262462749,
0.05336658354114713,0.04240732525976526,
0.05341645885286783,0.030712034478711674,
0.05346633416458853,0.028016353949702893,
0.05351620947630923,0.0472281335072595,
0.053566084788029926,0.034998541219578294,
0.05361596009975062,0.03161296259492241,
0.053665835411471324,0.04163626454692637,
0.05371571072319202,0.04073560926311057,
0.053765586034912716,0.030934890066037207,
0.05381546134663342,0.0588477823992903,
0.053865336658354114,0.00391736252255551,
0.05391521197007481,0.010214053504920143,
0.05396508728179551,0.03080710373444944,
0.05401496259351621,0.015481150272399645,
0.05406483790523691,0.022084071380231034,
0.054114713216957606,0.001925801172628399,
0.0541645885286783,0.02338208420392326,
0.054214463840399005,0.015669764109235415,
0.0542643391521197,0.028596328959344462,
0.054314214463840396,0.042152800016921566,
0.0543640897755611,0.033471809308270636,
0.054413965087281795,0.040477687127147416,
0.0544638403990025,0.021867739810140556,
0.05451371571072319,0.02873898033670125,
0.05456359102244389,0.001699541978744678,
0.05461346633416459,0.015928213177623343,
0.05466334164588529,0.0356297974297624,
0.05471321695760598,0.03262936843110274,
0.054763092269326685,0.04074272222878052,
0.05481296758104738,0.01222730531317297,
0.05486284289276808,0.014539327060386723,
0.05491271820448878,0.014999810850871155,
0.054962593516209475,0.0368717355517809,
0.05501246882793018,0.006273358563961891,
0.05506234413965087,0.037057266766600525,
0.05511221945137157,0.004495885027789935,
0.05516209476309227,0.009070850096717379,
0.05521197007481297,0.04047667973237216,
0.05526184538653366,0.020486359375561508,
0.055311720698254366,0.011148924810443465,
0.05536159600997506,0.0019345820560607054,
0.05541147132169576,0.04923184171751044,
0.05546134663341646,0.023292804669331695,
0.055511221945137156,0.020983104065738598,
0.05556109725685786,0.021936666925770558,
0.055610972568578554,-0.006829747426681847,
0.05566084788029925,0.037263458117102105,
0.05571072319201995,0.031025355852421225,
0.05576059850374065,0.006078284055425256,
0.055810473815461344,0.0021772081776624055,
0.055860349127182046,0.028608605081880192,
0.05591022443890274,0.02421864733397725,
0.055960099750623445,0.04389710382302659,
0.05600997506234414,0.007591940173853539,
0.056059850374064836,0.03498384281968435,
0.05610972568578554,0.02451009356719728,
0.056159600997506234,0.01830005958102738,
0.05620947630922693,0.026887521474961016,
0.05625935162094763,0.025402054894525346,
0.05630922693266833,0.03495232530489029,
0.056359102244389024,0.025772924017822985,
0.05640897755610973,0.008998104068457786,
0.05645885286783042,0.014305043156766596,
0.056508728179551125,0.02693066410636381,
0.05655860349127182,0.010493443839801907,
0.056608478802992516,0.012144444918434805,
0.05665835411471322,0.02007126098010174,
0.056708229426433915,0.0037091899583716094,
0.05675810473815461,-0.0057383124432398395,
0.05680798004987531,-0.00079844759195433,
0.05685785536159601,0.00893099818750054,
0.05690773067331671,-0.002250357641123635,
0.05695760598503741,0.0282454869463328,
0.0570074812967581,0.006809124904829846,
0.057057356608478806,0.003074463222808013,
0.0571072319201995,0.026292633791084555,
0.0571571072319202,0.014826000278552789,
0.0572069825436409,0.007627137793319932,
0.057256857855361595,0.025012647229116947,
0.05730673316708229,0.019250839286036176,
0.057356608478802994,0.0055706973061694955,
0.05740648379052369,0.018633511313802368,
0.05745635910224439,0.008874608751741623,
0.05750623441396509,0.010153602840705784,
0.05755610972568578,0.03846189229173345,
0.057605985037406486,0.005792793850934467,
0.05765586034912718,0.036608373790158834,
0.05770573566084788,0.010390156067349762,
0.05775561097256858,0.0011233633465061559,
0.057805486284289276,0.020911539247632047,
0.05785536159600998,-0.006930092352869633,
0.057905236907730674,0.0023703413057005202,
0.05795511221945137,-0.0003323787256689619,
0.05800498753117207,-0.0053752949335238685,
0.05805486284289277,0.011789366381991604,
0.058104738154613464,0.025428795735360096,
0.05815461346633417,0.015527216520829678,
0.05820448877805486,0.009055037542123156,
0.05825436408977556,0.0333874847000402,
0.05830423940149626,0.02028171977591033,
0.058354114713216956,0.004591544221231077,
0.05840399002493766,-0.00255800246574298,
0.058453865336658355,0.05105943010289321,
0.05850374064837905,0.018178124201083584,
0.05855361596009975,0.002606986025049175,
0.05860349127182045,-0.010432999749757747,
0.058653366583541144,0.019461527250309058,
0.05870324189526185,0.008506354006742234,
0.05875311720698254,0.0013497719834618294,
0.05880299251870324,-0.01069636653821305,
0.05885286783042394,0.00015896285711895948,
0.05890274314214464,-0.012013041684544982,
0.05895261845386534,0.03085466265987323,
0.059002493765586035,0.005626039495450501,
0.05905236907730673,0.007839725527077762,
0.059102244389027433,0.012805763031819673,
0.05915211970074813,-0.021686440091863192,
0.059201995012468825,-0.0029902513068307945,
0.05925187032418953,0.01671637522860879,
0.05930174563591022,0.012865610781439996,
0.059351620947630926,0.002197951835312371,
0.05940149625935162,-0.010723020415141065,
0.05945137157107232,-0.003906863772392875,
0.05950124688279302,0.022242200162934746,
0.059551122194513716,0.02581318608271723,
0.05960099750623441,0.006125807588395877,
0.059650872817955114,-0.026772937407568725,
0.05970074812967581,0.017418753876599052,
0.059750623441396505,0.004552393386053668,
0.05980049875311721,0.005905322261678222,
0.059850374064837904,-0.0018300174415928061,
0.059900249376558606,-0.005179360578267683,
0.0599501246882793,0.008730866471185143,
0.06,0.009913488214399902,
0.0600498753117207,0.006977664181761545,
0.060099750623441396,0.006301713075823944,
0.06014962593516209,0.010957633477069694,
0.060199501246882794,0.0009024503853685148,
0.06024937655860349,-0.029173720737049602,
0.06029925187032419,-0.019618582150361153,
0.06034912718204489,-0.0026132218472570304,
0.060399002493765584,-0.01402542502763844,
0.06044887780548629,0.005687791457849968,
0.06049875311720698,0.008610367267184369,
0.06054862842892768,-0.023616173147255788,
0.06059850374064838,-0.016911757120582023,
0.06064837905236908,0.0018365791029750717,
0.06069825436408977,0.004792082400932998,
0.060748129675810475,-0.013729074320319215,
0.06079800498753117,-0.019681248483532435,
0.06084788029925187,-0.020974970742069186,
0.06089775561097257,-0.04301990518611311,
0.060947630922693265,0.0018448668751070933,
0.06099750623441397,0.004476983997995917,
0.06104738154613466,-0.006506204674258288,
0.06109725685785536,-0.016464002616766053,
0.06114713216957606,0.01785290034374099,
0.06119700748129676,-0.03471200423155078,
0.06124688279301746,-0.020477436045786016,
0.061296758104738155,-0.0035614777575974548,
0.06134663341645885,-0.01207440761231513,
0.061396508728179554,-0.004470918838381679,
0.06144638403990025,-0.0011023243889493137,
0.061496259351620945,-0.016955169188930867,
0.06154613466334165,-0.006015811450061409,
0.061596009975062344,-0.020346008234539345,
0.06164588528678304,-0.02402297747559195,
0.06169576059850374,-0.019266465062259274,
0.06174563591022444,-0.0206251876819293,
0.06179551122194514,-0.023010618914504302,
0.061845386533665836,-0.034072373780541815,
0.06189526184538653,-0.02570478616698934,
0.061945137157107234,-0.020034065913647314,
0.06199501246882793,-0.03020580257852067,
0.062044887780548626,-0.018654145423014763,
0.06209476309226933,-0.021748376953009182,
0.062144638403990024,-0.02186847386393382,
0.06219451371571072,-0.02634055856251019,
0.06224438902743142,0.01322860361772894,
0.06229426433915212,-0.030311234351002754,
0.06234413965087282,-0.012695014376793505,
0.062394014962593516,-0.01953023106769434,
0.06244389027431421,-0.02879329232379288,
0.062493765586034915,0.005075084993769938,
0.06254364089775562,-0.019052659496572786,
0.06259351620947631,-0.019664882358355965,
0.06264339152119701,0.033733128279716126,
0.0626932668329177,-0.01872626127149081,
0.0627431421446384,0.011230736721515878,
0.0627930174563591,-0.0057843983666039205,
0.0628428927680798,-0.007900975497081901,
0.0628927680798005,-0.010879590312211293,
0.0629426433915212,-0.02086754898285866,
0.06299251870324189,-0.016957927563204637,
0.06304239401496259,-0.033337377424144304,
0.0630922693266833,-0.022133332376449655,
0.063142144638404,-0.02004388600852983,
0.06319201995012469,-0.0028228252587125958,
0.06324189526184539,-0.0028636476324573595,
0.06329177057356608,-0.002370352337716401,
0.06334164588528678,-0.00989776902207386,
0.06339152119700749,-0.02377171675407455,
0.06344139650872818,-0.013461814723333073,
0.06349127182044888,0.007913354429416302,
0.06354114713216957,-0.016760228684685383,
0.06359102244389027,-0.01389157591427917,
0.06364089775561098,-0.019394468409659332,
0.06369077306733167,-0.01392075440426527,
0.06374064837905237,-0.022816708655090494,
0.06379052369077307,-0.02062024922263412,
0.06384039900249376,-0.00480020635861088,
0.06389027431421446,0.010462026797221684,
0.06394014962593517,-0.005032252779113183,
0.06399002493765586,-0.019852819109417268,
0.06403990024937656,-0.012038923258514817,
0.06408977556109725,-0.003659016065131698,
0.06413965087281795,-0.019680404482011367,
0.06418952618453866,-0.027516988855539597,
0.06423940149625935,-0.014204894980088995,
0.06428927680798005,-0.01176692300381387,
0.06433915211970075,-0.029287163750335122,
0.06438902743142144,-0.025041643893936268,
0.06443890274314215,-0.02818435789239566,
0.06448877805486285,-0.0209735514547156,
0.06453865336658354,-0.0067503711917581664,
0.06458852867830424,-0.004816210129966482,
0.06463840399002493,-0.002920160746685786,
0.06468827930174563,-0.014579249910805146,
0.06473815461346634,-0.02590674769926408,
0.06478802992518704,-0.004440015363291427,
0.06483790523690773,-0.0008150606830617767,
0.06488778054862843,-0.01879924833311608,
0.06493765586034912,-0.011229986028535555,
0.06498753117206983,-0.016823550754397083,
0.06503740648379053,0.02399497437539018,
0.06508728179551122,-0.014005876139981582,
0.06513715710723192,-0.025920295338649493,
0.06518703241895261,-0.04144780686225161,
0.06523690773067331,-0.03739433174404222,
0.06528678304239402,0.005666670136263957,
0.06533665835411472,-0.008591181770751317,
0.06538653366583541,-0.005160551000727583,
0.06543640897755611,-0.01603954418478687,
0.0654862842892768,-0.04378824688092068,
0.06553615960099751,0.0059731844638349855,
0.06558603491271821,-0.019283007506807753,
0.0656359102244389,-0.024625856462070887,
0.0656857855361596,-0.03129274279342839,
0.0657356608478803,0.0009334069785843207,
0.06578553615960099,-0.01772460583436883,
0.0658354114713217,0.020150786853369768,
0.0658852867830424,-0.02285036184160034,
0.06593516209476309,0.003346973443452174,
0.06598503740648379,-0.006881979484306826,
0.06603491271820448,-0.011489076548091642,
0.06608478802992519,-0.011493666558164972,
0.06613466334164589,-0.005022949284992726,
0.06618453865336658,-0.0013135973227337353,
0.06623441396508728,-0.008012963716168735,
0.06628428927680798,-0.016314078996307282,
0.06633416458852869,-0.035461786682253846,
0.06638403990024938,-0.00544826725087995,
0.06643391521197008,-0.0180651647670467,
0.06648379052369077,-0.01565678710422326,
0.06653366583541147,0.008521634169944427,
0.06658354114713216,0.0010344868324056351,
0.06663341645885287,0.0004758419864858178,
0.06668329177057357,-0.008535425508865851,
0.06673316708229426,0.0027459000279008317,
0.06678304239401496,-0.007899092750077026,
0.06683291770573566,-0.0077939846934148614,
0.06688279301745637,0.00625437467725837,
0.06693266832917706,0.022302207206445275,
0.06698254364089776,-0.004172224885890948,
0.06703241895261845,-0.02808266074597415,
0.06708229426433915,0.021461051681439546,
0.06713216957605984,-0.017163058007263615,
0.06718204488778055,-0.009287010774153594,
0.06723192019950125,-0.006872365425936531,
0.06728179551122195,-0.013035321028598815,
0.06733167082294264,0.008486020378342963,
0.06738154613466334,-0.016759867373493005,
0.06743142144638405,-0.0004602595553659197,
0.06748129675810474,0.013690661078821866,
0.06753117206982544,-0.015518062729581244,
0.06758104738154613,-0.007867957150729125,
0.06763092269326683,-9.621827288311489e-05,
0.06768079800498752,0.005694363838872657,
0.06773067331670823,-0.0188709728561528,
0.06778054862842893,-0.006787531010870461,
0.06783042394014963,0.011357174939779315,
0.06788029925187032,-0.014194102524225895,
0.06793017456359102,-0.018077427382325782,
0.06798004987531173,0.008018148152057564,
0.06802992518703242,-0.006241464037815021,
0.06807980049875312,-0.008644452442969288,
0.06812967581047381,-0.023520444330164876,
0.06817955112219451,-0.02076670249587217,
0.0682294264339152,0.0031497985648411787,
0.06827930174563591,0.0038254835191672016,
0.06832917705735661,0.01630402031247807,
0.0683790523690773,0.020281289995959434,
0.068428927680798,-0.01162394624759397,
0.0684788029925187,0.03772084232599692,
0.06852867830423941,0.020243459820500655,
0.0685785536159601,-0.00048069074780048926,
0.0686284289276808,0.012263272515866942,
0.0686783042394015,0.01502293448262976,
0.06872817955112219,0.021111119502524388,
0.0687780548628429,0.0023422985215816802,
0.0688279301745636,0.027969161989950597,
0.06887780548628429,-0.009783322842512383,
0.06892768079800499,-0.017614039785092548,
0.06897755610972568,0.005854510234177324,
0.06902743142144638,0.023210116301578963,
0.06907730673316709,-0.003616190997780427,
0.06912718204488778,0.01823934950642284,
0.06917705735660848,0.002107528684812167,
0.06922693266832917,0.016947257308038564,
0.06927680798004987,0.024678323429173858,
0.06932668329177058,-0.01397140480767369,
0.06937655860349128,0.004687487547126491,
0.06942643391521197,0.021585493729255965,
0.06947630922693267,-0.010189498751972538,
0.06952618453865336,-0.006207066188093274,
0.06957605985037406,0.00919049648540779,
0.06962593516209477,0.026092690827142963,
0.06967581047381546,0.018844272093829904,
0.06972568578553616,0.015824803428479937,
0.06977556109725686,-0.0034823874398951567,
0.06982543640897755,0.012596992708596941,
0.06987531172069826,0.0017223363768221027,
0.06992518703241896,-0.01313657425320569,
0.06997506234413965,0.015280884509888645,
0.07002493765586035,0.005460654959556225,
0.07007481296758104,-0.01156972724653195,
0.07012468827930174,0.0039050641457907924,
0.07017456359102245,0.012021198103748463,
0.07022443890274314,0.03138831884685961,
0.07027431421446384,0.01104615965090127,
0.07032418952618454,0.014103938083562218,
0.07037406483790523,0.019319270568868514,
0.07042394014962594,0.0189323374455631,
0.07047381546134664,0.013993880347123308,
0.07052369077306733,0.039576930098623134,
0.07057356608478803,0.004371294395877436,
0.07062344139650872,0.007110807950676571,
0.07067331670822943,0.006967986759782267,
0.07072319201995013,0.036050273384652914,
0.07077306733167082,0.018019579338741914,
0.07082294264339152,0.003675530713295596,
0.07087281795511222,0.006241070409025296,
0.07092269326683291,0.013408449802237756,
0.07097256857855362,0.005216132559607584,
0.07102244389027432,0.028426847951742953,
0.07107231920199501,0.046220088579745515,
0.07112219451371571,0.016632499883184527,
0.0711720698254364,0.046701050357786725,
0.07122194513715711,0.014348889983892613,
0.07127182044887781,0.014150373704345468,
0.0713216957605985,0.01449592949915755,
0.0713715710723192,0.01572277063126523,
0.0714214463840399,0.028710005675063627,
0.07147132169576059,0.029944120894192554,
0.0715211970074813,0.038012658456365256,
0.071571072319202,0.031116023444509082,
0.0716209476309227,0.010557061247162249,
0.07167082294264339,0.03354691871351802,
0.07172069825436408,0.022096737425270283,
0.0717705735660848,0.03319155006051935,
0.07182044887780549,0.011159022334064645,
0.07187032418952619,0.008756876080162302,
0.07192019950124688,0.004072543256052465,
0.07197007481296758,0.03253367892402156,
0.07201995012468827,0.036289939677278726,
0.07206982543640898,0.0026533658705677407,
0.07211970074812968,0.047094230777268584,
0.07216957605985037,0.01606356603212957,
0.07221945137157107,0.013006873886365738,
0.07226932668329177,0.014144492196085256,
0.07231920199501247,0.031170311932883214,
0.07236907730673317,0.03506460266752837,
0.07241895261845387,0.035866822491107515,
0.07246882793017456,0.0004308571714645888,
0.07251870324189526,0.0413398896399874,
0.07256857855361595,0.024297753253274573,
0.07261845386533666,-0.011086823448358322,
0.07266832917705736,0.02109629789983182,
0.07271820448877805,0.03538678753528147,
0.07276807980049875,0.0050092623901439905,
0.07281795511221945,-0.004228999908276267,
0.07286783042394016,0.056350691869216214,
0.07291770573566085,0.01914447312543563,
0.07296758104738155,0.03622742202712714,
0.07301745635910224,0.003094209809900165,
0.07306733167082294,0.024490812897569263,
0.07311720698254365,0.012275452744790501,
0.07316708229426434,0.03423612865306509,
0.07321695760598504,0.034255825485324944,
0.07326683291770573,1.9864577386931315e-06,
0.07331670822942643,0.025572067276685116,
0.07336658354114713,0.044220971884140425,
0.07341645885286784,0.006180355758636392,
0.07346633416458853,0.021099603289508998,
0.07351620947630923,0.04665872644337945,
0.07356608478802992,0.04608457706026771,
0.07361596009975062,0.020501158140862258,
0.07366583541147133,-0.0017962566182486324,
0.07371571072319202,0.04148324809682314,
0.07376558603491272,0.062144324071251644,
0.07381546134663342,-0.000522049617611986,
0.07386533665835411,0.06086428821190059,
0.0739152119700748,0.03992092731348022,
0.07396508728179552,-0.0015552479866434744,
0.07401496259351621,0.02987111508305069,
0.07406483790523691,-0.014666578828694217,
0.0741147132169576,0.021287242984851136,
0.0741645885286783,0.032638215072318295,
0.07421446384039901,0.024077174907253817,
0.0742643391521197,0.03201183352828046,
0.0743142144638404,0.03831084906796023,
0.0743640897755611,0.024343397855321795,
0.07441396508728179,0.047533424799540785,
0.07446384039900249,0.030090747446434016,
0.0745137157107232,-0.010216521113942115,
0.07456359102244389,0.026534267896470835,
0.07461346633416459,0.03410412055100993,
0.07466334164588528,0.051409181278608496,
0.07471321695760598,0.023188373647334035,
0.07476309226932669,0.051558145267122504,
0.07481296758104738,0.002614910769452611,
0.07486284289276808,0.02004321433108012,
0.07491271820448878,0.005725089727773122,
0.07496259351620947,0.01590382871005761,
0.07501246882793017,0.021184679845014688,
0.07506234413965088,0.015487563310423186,
0.07511221945137157,0.01773040550006471,
0.07516209476309227,0.03477210103709851,
0.07521197007481296,0.024616384475207954,
0.07526184538653366,0.028818380495140895,
0.07531172069825437,0.04007625961357329,
0.07536159600997507,-0.017394591115669926,
0.07541147132169576,0.031125333487194817,
0.07546134663341646,0.029767776851562747,
0.07551122194513715,-0.010160216408141909,
0.07556109725685786,0.028207152557788672,
0.07561097256857856,0.04211601056901407,
0.07566084788029925,0.007315037511479857,
0.07571072319201995,-0.01307012733110428,
0.07576059850374064,0.03039315260692961,
0.07581047381546134,0.018995793414735243,
0.07586034912718205,0.023165764833091816,
0.07591022443890275,0.026652532152872443,
0.07596009975062344,0.019118254911885384,
0.07600997506234414,0.012539588578537472,
0.07605985037406483,0.006009296982793497,
0.07610972568578554,0.02016368070983319,
0.07615960099750624,0.006490914859292835,
0.07620947630922693,0.023686863767087816,
0.07625935162094763,0.008825686181413793,
0.07630922693266833,0.0323795365827491,
0.07635910224438902,0.029481306292758462,
0.07640897755610973,0.005739924909886191,
0.07645885286783043,-0.003383364739322662,
0.07650872817955112,-0.0010141175284528424,
0.07655860349127182,0.015117346263091063,
0.07660847880299251,0.010033686339728377,
0.07665835411471322,-0.006559254262951796,
0.07670822942643392,0.03842961372961359,
0.07675810473815461,0.012602888767246356,
0.07680798004987531,-0.016439672423817418,
0.076857855361596,0.04450435439709233,
0.0769077306733167,0.017262956100015374,
0.07695760598503741,0.058058828333344234,
0.0770074812967581,0.03794117779472654,
0.0770573566084788,-0.0015317249421053607,
0.0771072319201995,0.015108648629331528,
0.0771571072319202,0.006899831376880576,
0.0772069825436409,0.03337387623007196,
0.0772568578553616,-0.010459986339838759,
0.0773067331670823,0.0019847341886798566,
0.07735660847880299,0.04435434473523946,
0.07740648379052369,0.030495892909658786,
0.0774563591022444,-0.0033837285260266727,
0.07750623441396509,0.0268024596754097,
0.07755610972568579,0.010957127153606128,
0.07760598503740648,0.003565026092062329,
0.07765586034912718,0.015051602188759783,
0.07770573566084787,0.030712603722732094,
0.07775561097256858,0.00877108304222021,
0.07780548628428928,0.008673236141234887,
0.07785536159600998,0.018888911948080896,
0.07790523690773067,0.033529591015816936,
0.07795511221945137,0.017927901814411954,
0.07800498753117208,0.00835904958975715,
0.07805486284289277,0.013206411896362777,
0.07810473815461347,0.01313170056393271,
0.07815461346633416,0.006026287309295368,
0.07820448877805486,-0.008787564653162518,
0.07825436408977555,0.0037963247118825974,
0.07830423940149626,-0.00841406305975556,
0.07835411471321696,0.017417684749469066,
0.07840399002493766,0.000979656210311649,
0.07845386533665835,0.0044686245471284676,
0.07850374064837905,0.03867201252329204,
0.07855361596009976,-0.010163309410076187,
0.07860349127182045,-0.010758503151784261,
0.07865336658354115,0.010629361399692746,
0.07870324189526184,-0.01508419040072139,
0.07875311720698254,0.029267857569024183,
0.07880299251870324,0.0313485902497744,
0.07885286783042394,0.025945556183355645,
0.07890274314214464,0.005280162098252451,
0.07895261845386534,0.009833113028291655,
0.07900249376558603,-0.0012388671270126368,
0.07905236907730673,0.01358381293021458,
0.07910224438902744,-0.008324086804187225,
0.07915211970074813,0.03692843923916629,
0.07920199501246883,-0.008986238460531242,
0.07925187032418952,0.033428517581067616,
0.07930174563591022,0.032879186296032405,
0.07935162094763092,0.022589997506074877,
0.07940149625935163,0.047160432767174326,
0.07945137157107232,0.00010140891679230992,
0.07950124688279302,-0.0321838301323063,
0.07955112219451371,0.016950342554324677,
0.07960099750623441,0.007135917789086041,
0.07965087281795512,0.011149265453693217,
0.07970074812967581,0.02645246288777228,
0.07975062344139651,-0.008460663405179671,
0.0798004987531172,0.01974099074521931,
0.0798503740648379,-0.00046049477653315157,
0.07990024937655861,-0.003965567918392659,
0.0799501246882793,-0.02636325807492292,
0.08,0.006011036060386867,
0.0800498753117207,-0.012328920129426157,
0.0800997506234414,-0.03466201981591607,
0.08014962593516209,-0.0005942884476788136,
0.0801995012468828,-0.02801542012473231,
0.0802493765586035,0.015059341594701443,
0.08029925187032419,0.01613704817303525,
0.08034912718204489,-0.008167240736817152,
0.08039900249376558,0.004294776223287833,
0.08044887780548629,-0.006425003265198842,
0.08049875311720699,0.015261197798260408,
0.08054862842892768,-0.010337604537438492,
0.08059850374064838,-0.02047127958224084,
0.08064837905236907,0.0022644578437119164,
0.08069825436408977,-0.03009793743100241,
0.08074812967581048,-0.004148438089949724,
0.08079800498753117,-0.022556611272184328,
0.08084788029925187,-0.024789274656453655,
0.08089775561097257,0.020540238369726252,
0.08094763092269326,0.01043077029838314,
0.08099750623441397,-0.004754129789164816,
0.08104738154613467,-0.022393097636590725,
0.08109725685785536,-0.01554120487879251,
0.08114713216957606,-0.055150927151121396,
0.08119700748129675,-0.007015395353863928,
0.08124688279301745,-0.009037580216812726,
0.08129675810473816,0.010264757525737215,
0.08134663341645886,0.007086857801275867,
0.08139650872817955,0.00243514015576537,
0.08144638403990025,-0.009592176708048135,
0.08149625935162094,0.010313492034881046,
0.08154613466334165,-0.007451479924414516,
0.08159600997506235,-0.001579003596683619,
0.08164588528678304,-0.010690323836806407,
0.08169576059850374,0.01654310885583281,
0.08174563591022443,0.005445298763539478,
0.08179551122194513,-0.021954760152776677,
0.08184538653366584,-0.00457357534938178,
0.08189526184538654,-0.04067696797448365,
0.08194513715710723,-0.012771474745238627,
0.08199501246882793,-0.015378927559245983,
0.08204488778054862,-0.01716505082039201,
0.08209476309226933,-0.004496812146487512,
0.08214463840399003,-0.0221417197752427,
0.08219451371571072,-0.034399572485258774,
0.08224438902743142,-0.010741842698262193,
0.08229426433915212,-0.005218924344060936,
0.08234413965087282,-0.0046559774117929924,
0.08239401496259352,-0.033493037584990504,
0.08244389027431422,-0.012347311509851496,
0.08249376558603491,-0.05568676471995987,
0.08254364089775561,0.004451628169792558,
0.0825935162094763,-0.02091181916063198,
0.08264339152119701,-0.015728836677473542,
0.08269326683291771,-0.03388207027106264,
0.0827431421446384,-0.024859683684480237,
0.0827930174563591,0.01040156111536348,
0.0828428927680798,-0.004207974086780336,
0.0828927680798005,-0.022888970178944895,
0.0829426433915212,-0.029775392139237855,
0.0829925187032419,0.008124425284703649,
0.08304239401496259,-0.012207335678129613,
0.08309226932668329,-0.007387615067802349,
0.08314214463840398,-0.015542113918309775,
0.0831920199501247,-0.02521929641019025,
0.08324189526184539,-0.03422918403360585,
0.08329177057356608,0.009707526633345571,
0.08334164588528678,0.009545513199868204,
0.08339152119700748,0.011898773721918809,
0.08344139650872819,-0.02516112816361671,
0.08349127182044888,-0.04096007698513883,
0.08354114713216958,-0.025735949754542655,
0.08359102244389027,-0.0009445612071101971,
0.08364089775561097,-0.025519088308435738,
0.08369077306733166,-0.033398713763550705,
0.08374064837905237,0.004699232794220454,
0.08379052369077307,0.004647644791925587,
0.08384039900249377,-0.005741569254142731,
0.08389027431421446,-0.009215008697956656,
0.08394014962593516,-0.03485529516255476,
0.08399002493765587,-0.024701385265634822,
0.08403990024937656,-0.00197739344122771,
0.08408977556109726,-0.018642370332202417,
0.08413965087281795,-0.016784565731826694,
0.08418952618453865,-0.0016232644677831448,
0.08423940149625936,-0.040012384615203574,
0.08428927680798005,0.0035742700533415613,
0.08433915211970075,-0.008374385742438328,
0.08438902743142145,-0.030296113715143874,
0.08443890274314214,-0.005409306055251396,
0.08448877805486284,-0.026849319879795865,
0.08453865336658355,-0.015489547853954743,
0.08458852867830424,-0.026251279065837407,
0.08463840399002494,-0.010847398804766293,
0.08468827930174563,-0.016540850517242,
0.08473815461346633,-0.016258704915467326,
0.08478802992518704,-0.005171130829681025,
0.08483790523690773,0.0038041279352250146,
0.08488778054862843,-0.029331051572182777,
0.08493765586034913,-0.048271958346667164,
0.08498753117206982,0.008049579665237144,
0.08503740648379052,-0.0498645778264875,
0.08508728179551123,-0.0060887967360929345,
0.08513715710723192,0.0009185787831171317,
0.08518703241895262,-0.034726529480190976,
0.08523690773067331,0.014882705515606363,
0.08528678304239401,-0.007820902959196512,
0.08533665835411472,-0.007745115987068839,
0.08538653366583542,0.003923551924268293,
0.08543640897755611,-0.00502578285236614,
0.0854862842892768,-0.024249197876446978,
0.0855361596009975,0.004565784082716637,
0.0855860349127182,-0.012185356062147544,
0.08563591022443891,-0.017274892456225262,
0.0856857855361596,-0.0007771007359077681,
0.0857356608478803,0.01865978608303972,
0.085785536159601,-0.036667442463114854,
0.08583541147132169,-0.011383846105003892,
0.0858852867830424,-0.004399072775501363,
0.0859351620947631,0.009579925018051806,
0.08598503740648379,-0.019042091070779248,
0.08603491271820449,0.008432836879887814,
0.08608478802992518,-0.01307794592494051,
0.08613466334164588,0.0025294910558125647,
0.08618453865336659,0.03355935501809555,
0.08623441396508728,-0.018469166795716675,
0.08628428927680798,-0.023276456313514216,
0.08633416458852868,0.005259909283919402,
0.08638403990024937,0.012990821904385478,
0.08643391521197008,-0.01086352538822716,
0.08648379052369078,-0.011254823771627585,
0.08653366583541147,-0.006919625126268531,
0.08658354114713217,-0.027255915284675164,
0.08663341645885286,-0.01694635940846245,
0.08668329177057357,-0.006106331552099719,
0.08673316708229427,0.007225880760279752,
0.08678304239401496,-0.004690930364446306,
0.08683291770573566,-0.00188280521592455,
0.08688279301745636,-0.019466793374620147,
0.08693266832917705,-0.016370812171170934,
0.08698254364089776,0.01152817250059771,
0.08703241895261846,0.02600073822184761,
0.08708229426433915,-0.01241148328251272,
0.08713216957605985,-0.02217806831249271,
0.08718204488778054,-0.02793000142179539,
0.08723192019950125,0.015929394789771314,
0.08728179551122195,0.0013029135697692398,
0.08733167082294264,0.0024874544760835017,
0.08738154613466334,0.010034010615012117,
0.08743142144638404,-0.004284906092527317,
0.08748129675810473,0.009114804216939287,
0.08753117206982544,-0.0026861756203777625,
0.08758104738154614,0.030020720158884174,
0.08763092269326683,0.007121234886256838,
0.08768079800498753,-0.021492161951666384,
0.08773067331670822,-0.03184855180858445,
0.08778054862842893,-0.024615309836676952,
0.08783042394014963,-0.027226134029195083,
0.08788029925187033,-0.0043182904719850515,
0.08793017456359102,-0.00611239487541305,
0.08798004987531172,-0.02722220271720445,
0.08802992518703241,-0.0063384297766672275,
0.08807980049875312,-0.00995516281337948,
0.08812967581047382,-0.009600992144899425,
0.08817955112219451,-0.012969336730007013,
0.08822942643391521,-0.01209282395006786,
0.0882793017456359,0.007631642604316475,
0.08832917705735661,-0.016304254434631116,
0.08837905236907731,-0.004597446566107751,
0.088428927680798,0.023795047379913496,
0.0884788029925187,-0.003908612044576137,
0.0885286783042394,0.011632525103973626,
0.0885785536159601,-0.01568980466342222,
0.0886284289276808,0.0020868497456047515,
0.0886783042394015,-0.0013840187604111593,
0.0887281795511222,0.022416236452722706,
0.08877805486284289,0.006472488829299675,
0.08882793017456359,-0.025155132771610775,
0.0888778054862843,0.0010485298131574419,
0.08892768079800499,0.0026735785988388217,
0.08897755610972569,0.004837318163018582,
0.08902743142144638,-0.006310807023294897,
0.08907730673316708,0.014711684750209283,
0.08912718204488779,-0.005084163134735515,
0.08917705735660848,0.02020670824760983,
0.08922693266832918,0.015016869230283838,
0.08927680798004987,0.030989255670376546,
0.08932668329177057,0.015512875624891335,
0.08937655860349127,0.0020962843306236165,
0.08942643391521198,0.017970185064390944,
0.08947630922693267,-0.005457124100778869,
0.08952618453865337,0.0037403353916027468,
0.08957605985037406,0.024951884115431065,
0.08962593516209476,-0.01534896810409159,
0.08967581047381547,0.020082119322133704,
0.08972568578553616,0.022851442948484124,
0.08977556109725686,0.021584935166584024,
0.08982543640897755,0.005240363003698356,
0.08987531172069825,0.022468270974844055,
0.08992518703241895,0.014863254347493558,
0.08997506234413966,0.011400606454919946,
0.09002493765586035,0.03594852812034086,
0.09007481296758105,0.02279584175843844,
0.09012468827930174,0.008418238399652871,
0.09017456359102244,4.910922741060107e-05,
0.09022443890274315,0.01719151862306283,
0.09027431421446384,0.010873717374412964,
0.09032418952618454,0.042951296324535204,
0.09037406483790524,0.018157712606036866,
0.09042394014962593,0.03217538219001823,
0.09047381546134663,-0.013976126487649131,
0.09052369077306734,0.006964291555808279,
0.09057356608478803,0.010916613369645615,
0.09062344139650873,0.017451531080722258,
0.09067331670822942,0.02743665603174979,
0.09072319201995012,0.03159236225800419,
0.09077306733167083,0.009504312250755282,
0.09082294264339152,0.012866047496791898,
0.09087281795511222,0.04282503640235424,
0.09092269326683292,0.03520508617903369,
0.09097256857855361,0.022108085539034237,
0.09102244389027432,0.02685486455512304,
0.09107231920199502,0.019455001367582714,
0.09112219451371571,0.03322817244595469,
0.09117206982543641,0.0345619063021024,
0.0912219451371571,0.01900125269449395,
0.0912718204488778,-0.006404986434417597,
0.09132169576059851,0.020963181743417814,
0.0913715710723192,0.021453323412272792,
0.0914214463840399,0.04897059130103047,
0.0914713216957606,0.028192845152538816,
0.09152119700748129,0.045740997112273474,
0.091571072319202,0.01341066095665841,
0.0916209476309227,0.006353939981228133,
0.09167082294264339,0.0018311433574210514,
0.09172069825436409,0.0188362422342207,
0.09177057356608478,0.0228791051898254,
0.09182044887780548,0.042020606295136806,
0.09187032418952619,0.02315526178171485,
0.09192019950124689,0.009378439975596412,
0.09197007481296758,0.04049685250679285,
0.09201995012468828,-0.010764645474029583,
0.09206982543640897,0.03387237716386582,
0.09211970074812968,0.006342441679548994,
0.09216957605985038,0.040318457719115505,
0.09221945137157107,0.008485647812035632,
0.09226932668329177,0.042648482472886495,
0.09231920199501246,0.017409926408307522,
0.09236907730673316,-5.693673253488046e-05,
0.09241895261845387,0.0356827451799173,
0.09246882793017457,0.022402277237134664,
0.09251870324189526,0.03987018361584295,
0.09256857855361596,0.03333122569726675,
0.09261845386533665,0.005271103943680008,
0.09266832917705736,0.03170577502385866,
0.09271820448877806,0.030490350461023927,
0.09276807980049875,0.03216854868720356,
0.09281795511221945,0.03410433613537264,
0.09286783042394015,0.046063248168219495,
0.09291770573566084,0.04177360904982633,
0.09296758104738155,0.003775351275695095,
0.09301745635910225,0.040736739481195106,
0.09306733167082294,0.009739692705605214,
0.09311720698254364,0.023742544021603137,
0.09316708229426433,0.009861421843986296,
0.09321695760598504,0.027551427948020884,
0.09326683291770574,0.038942070060997966,
0.09331670822942643,0.03700403061716097,
0.09336658354114713,-0.0012888896192125021,
0.09341645885286783,0.008875378922992727,
0.09346633416458854,0.04654678228947534,
0.09351620947630923,0.027455659228525078,
0.09356608478802993,0.03797855362128523,
0.09361596009975062,0.03885529543959888,
0.09366583541147132,0.05360308776689053,
0.09371571072319201,0.017667978850453216,
0.09376558603491272,0.04386765110565011,
0.09381546134663342,0.029961728593519525,
0.09386533665835411,0.02519937264502817,
0.09391521197007481,0.04484446684365538,
0.0939650872817955,0.012143599795892848,
0.09401496259351622,0.028494163210126943,
0.09406483790523691,0.05063445308421172,
0.09411471321695761,0.03447836515731744,
0.0941645885286783,0.015381787333958747,
0.094214463840399,0.018771816336066997,
0.0942643391521197,0.034057951418799796,
0.0943142144638404,0.04021756684254897,
0.0943640897755611,0.01388845594604078,
0.0944139650872818,0.026546695760216985,
0.09446384039900249,0.03981898645842755,
0.09451371571072319,0.03429475912248995,
0.0945635910224439,0.04116378464557679,
0.09461346633416459,0.03450903967980787,
0.09466334164588529,-9.690472308966983e-05,
0.09471321695760598,0.049949739042857225,
0.09476309226932668,0.025059981727971123,
0.09481296758104737,0.004622476137064235,
0.09486284289276808,-0.013011839131698143,
0.09491271820448878,0.016546789247065135,
0.09496259351620948,0.029890839344612445,
0.09501246882793017,0.028253817636973235,
0.09506234413965087,0.040900946362574825,
0.09511221945137158,0.02781323222455311,
0.09516209476309227,0.01631811804444188,
0.09521197007481297,0.04810142634423974,
0.09526184538653366,-0.011452246456551022,
0.09531172069825436,0.008904119603223147,
0.09536159600997507,0.016671158467715826,
0.09541147132169576,0.009572340399366384,
0.09546134663341646,0.007558027551701874,
0.09551122194513716,0.011400001962496836,
0.09556109725685785,0.018598963049472,
0.09561097256857855,0.04716019563383181,
0.09566084788029926,0.03766009244570471,
0.09571072319201995,0.011155718496399496,
0.09576059850374065,0.038397967109730514,
0.09581047381546134,0.033332556224229606,
0.09586034912718204,0.012259976002147278,
0.09591022443890275,0.03498793327269352,
0.09596009975062345,0.03239939580382203,
0.09600997506234414,0.022390811533750134,
0.09605985037406484,0.04355638368330697,
0.09610972568578553,0.017697970070752796,
0.09615960099750623,0.03103697299855693,
0.09620947630922694,0.04732326225255398,
0.09625935162094763,0.02972339862493223,
0.09630922693266833,0.04895571493526988,
0.09635910224438902,0.034376808658013513,
0.09640897755610972,0.013758021351354656,
0.09645885286783043,0.015529820504456487,
0.09650872817955113,-0.006801578058634902,
0.09655860349127182,-4.486686199196843e-05,
0.09660847880299252,0.015787853227241078,
0.09665835411471321,0.0329813054644163,
0.09670822942643391,0.005980484349483313,
0.09675810473815462,0.01643887815884633,
0.09680798004987531,0.018045119912772408,
0.09685785536159601,-0.002080138284546666,
0.0969077306733167,0.032717016235801546,
0.0969576059850374,0.018761189786819902,
0.09700748129675811,0.023832926318312606,
0.0970573566084788,0.002534737152640569,
0.0971072319201995,0.031168214938894667,
0.0971571072319202,0.026364806182404894,
0.0972069825436409,0.03580808074650131,
0.09725685785536159,0.018768623947185068,
0.0973067331670823,0.02102763164653544,
0.097356608478803,0.03283830553338184,
0.09740648379052369,0.005315421666416098,
0.09745635910224439,0.00808845335096648,
0.09750623441396508,0.017860684350478787,
0.09755610972568579,0.014760192970272895,
0.09760598503740649,0.00869096284412434,
0.09765586034912718,0.0030415857375774777,
0.09770573566084788,0.013238098621181681,
0.09775561097256857,0.008725384917668584,
0.09780548628428928,-0.00351146352423623,
0.09785536159600998,-0.014842795068709176,
0.09790523690773068,0.03741584545820241,
0.09795511221945137,0.004906320886218176,
0.09800498753117207,-0.0009563459540264212,
0.09805486284289276,0.042425754958807245,
0.09810473815461347,-0.007188796076804383,
0.09815461346633417,0.009486261973068857,
0.09820448877805486,0.012496520242290962,
0.09825436408977556,-0.02169822428832387,
0.09830423940149625,0.028887884583905725,
0.09835411471321696,-0.012828503650169755,
0.09840399002493766,-0.02782640643569846,
0.09845386533665836,0.03773081890919505,
0.09850374064837905,0.004118019953467413,
0.09855361596009975,0.003912363782165336,
0.09860349127182044,0.02285736323154895,
0.09865336658354115,-0.005814437641481575,
0.09870324189526185,0.0071918705405965575,
0.09875311720698254,-0.008098352345948865,
0.09880299251870324,0.010489470455225849,
0.09885286783042393,-0.012858692868421107,
0.09890274314214464,0.033345338247566685,
0.09895261845386534,-0.00013199126058202441,
0.09900249376558604,-0.010285276879696981,
0.09905236907730673,0.04023089420687359,
0.09910224438902743,0.007014933023084113,
0.09915211970074812,0.019215412360425344,
0.09920199501246883,-0.006290558882910185,
0.09925187032418953,-0.008597533795207397,
0.09930174563591022,0.009168012072884977,
0.09935162094763092,0.00426591388917619,
0.09940149625935162,-0.009106723497835346,
0.09945137157107233,0.018391535950243895,
0.09950124688279302,0.03004170353379748,
0.09955112219451372,0.028126275201871824,
0.09960099750623441,-0.0017335901558106787,
0.09965087281795511,0.029444296621276837,
0.0997007481296758,0.01914551622265056,
0.09975062344139651,-0.015981162762481675,
0.09980049875311721,-0.0102196897813333,
0.0998503740648379,0.001318723922846511,
0.0999002493765586,0.01236639236972592,
0.0999501246882793,-0.004250048446800452,
0.1,-0.0026554628692076394,
0.1000498753117207,-0.009534588414970072,
0.1000997506234414,0.025979438070867736,
0.10014962593516209,-0.01258557185390451,
0.10019950124688279,0.0006830661986949353,
0.1002493765586035,-0.016407314875207694,
0.1002992518703242,0.013024590489477031,
0.10034912718204489,0.0038448351083245217,
0.10039900249376559,0.01194076543630149,
0.10044887780548628,-0.004509854307408239,
0.10049875311720698,0.013777861309851279,
0.10054862842892769,0.008597759102669744,
0.10059850374064838,-0.042343835856262724,
0.10064837905236908,0.008611290946236694,
0.10069825436408977,-0.01888086993447481,
0.10074812967581047,-0.009064079960404346,
0.10079800498753118,0.025591517096127107,
0.10084788029925187,0.00033528035660019065,
0.10089775561097257,0.008364439386606241,
0.10094763092269327,-0.014221905299633995,
0.10099750623441396,0.0036525168599284537,
0.10104738154613466,-0.011989863654608662,
0.10109725685785537,-0.006309303824665144,
0.10114713216957606,-0.017315209349513475,
0.10119700748129676,-0.01266846511830657,
0.10124688279301745,-0.0259898184533743,
0.10129675810473815,-0.03030057374185098,
0.10134663341645886,0.005694855760808626,
0.10139650872817955,0.01856905878547353,
0.10144638403990025,0.006148577672348205,
0.10149625935162095,-0.0018419704369337236,
0.10154613466334164,-0.02254023519935608,
0.10159600997506234,-0.004278945505375098,
0.10164588528678305,0.016184061186862192,
0.10169576059850374,-0.01868934584387797,
0.10174563591022444,-0.010735468544064545,
0.10179551122194513,0.00044788415385822906,
0.10184538653366583,0.004418592004199364,
0.10189526184538654,-0.013069675017883864,
0.10194513715710724,-0.02051503526855196,
0.10199501246882793,0.00016187255233852602,
0.10204488778054863,-0.02085787973335955,
0.10209476309226932,-0.01927479662941181,
0.10214463840399003,0.013259808808864577,
0.10219451371571073,-0.01876752412781139,
0.10224438902743142,0.03504036306069881,
0.10229426433915212,-0.0054427602744570504,
0.10234413965087281,-0.027790471667838223,
0.10239401496259351,-0.0429538472121337,
0.10244389027431422,0.0008674593899462082,
0.10249376558603492,-0.009431569683964542,
0.10254364089775561,-0.017295413974632308,
0.10259351620947631,-0.032002056225888344,
0.102643391521197,-0.011285524607887858,
0.10269326683291771,-0.005777532597029213,
0.10274314214463841,0.00633874975686201,
0.1027930174563591,-0.013090828426638496,
0.1028428927680798,-0.009370064613602059,
0.1028927680798005,0.0012813696187127296,
0.10294264339152119,0.016401529513464946,
0.1029925187032419,-0.028679499236636073,
0.1030423940149626,-0.0048335949258869245,
0.10309226932668329,-0.0178784956936325,
0.10314214463840399,-0.01901587861839526,
0.10319201995012468,0.008366321571440124,
0.10324189526184539,0.0056158638882570465,
0.10329177057356609,-0.012054612769552319,
0.10334164588528678,-0.007764274283151523,
0.10339152119700748,-0.01638841349722294,
0.10344139650872818,-0.004998809686645662,
0.10349127182044887,-0.032520306028511546,
0.10354114713216958,-0.01958561165299075,
0.10359102244389028,0.0011582858804507577,
0.10364089775561097,-0.01816802902972493,
0.10369077306733167,-0.01395444699645159,
0.10374064837905236,-0.0018672566001937847,
0.10379052369077307,-0.04377354815820987,
0.10384039900249377,0.02567598727865744,
0.10389027431421446,-0.029186289522194805,
0.10394014962593516,-0.014966142393794523,
0.10399002493765586,-0.02134398830008675,
0.10403990024937655,-0.004986856628065222,
0.10408977556109726,-0.011977897229345688,
0.10413965087281796,-0.02988742698315707,
0.10418952618453865,-0.018437560725084023,
0.10423940149625935,-0.026226785705762555,
0.10428927680798004,-0.009331859243311752,
0.10433915211970075,0.009691111546335517,
0.10438902743142145,-0.02201225739302929,
0.10443890274314215,0.01223430855457838,
0.10448877805486284,0.0008128927253978277,
0.10453865336658354,-0.013243292154528836,
0.10458852867830425,-0.0026429383299579508,
0.10463840399002494,0.002165596926917904,
0.10468827930174564,0.013107212359153464,
0.10473815461346633,0.022203488023715155,
0.10478802992518703,-0.009266539988035078,
0.10483790523690772,0.0010374433308988056,
0.10488778054862843,-0.008876592258761199,
0.10493765586034913,-0.0351686643086013,
0.10498753117206983,-0.028211671068641114,
0.10503740648379052,-0.0073587570558177485,
0.10508728179551122,-0.007373244168837981,
0.10513715710723193,-0.012056796105260819,
0.10518703241895262,-0.009227000097807678,
0.10523690773067332,-0.01694200727999477,
0.10528678304239401,-0.03344054921134488,
0.10533665835411471,-0.020065848071308047,
0.1053865336658354,-0.012330970628567656,
0.10543640897755611,-0.013820191683906722,
0.10548628428927681,0.006659876727442482,
0.1055361596009975,-0.015463139323086114,
0.1055860349127182,0.007177434148999675,
0.1056359102244389,-0.00710115979782415,
0.10568578553615961,-0.00848998689015631,
0.1057356608478803,0.008325223768734902,
0.105785536159601,-0.00044923070940970124,
0.1058354114713217,-0.015801525011086406,
0.10588528678304239,-0.007797430503721224,
0.10593516209476309,-0.019973932445296216,
0.1059850374064838,-0.023376828173515003,
0.10603491271820449,-0.030492176276721353,
0.10608478802992519,-0.010353661787764007,
0.10613466334164588,-0.01393807199015356,
0.10618453865336658,-0.002123318706706688,
0.10623441396508729,0.00906346282065032,
0.10628428927680798,0.011939934385269491,
0.10633416458852868,0.018949263910416046,
0.10638403990024937,0.02265709906327585,
0.10643391521197007,-0.029788485707797248,
0.10648379052369077,-0.0008120987188339635,
0.10653366583541148,-0.015108509403943367,
0.10658354114713217,0.0006195013034303821,
0.10663341645885287,-0.0030751865440178192,
0.10668329177057356,-0.0030608808372488,
0.10673316708229426,-0.02490962543927781,
0.10678304239401497,-0.021364954393708384,
0.10683291770573566,-0.013829399398661292,
0.10688279301745636,-0.006733023420464711,
0.10693266832917706,-0.014386145936251522,
0.10698254364089775,0.002717272935952003,
0.10703241895261846,-0.03012393494751109,
0.10708229426433916,-0.008717610328468416,
0.10713216957605985,0.0012597687394509172,
0.10718204488778055,0.0007440004120562033,
0.10723192019950124,0.0032200513246590026,
0.10728179551122194,0.018841790111889276,
0.10733167082294265,-0.0015107292150682073,
0.10738154613466334,0.01118217293478931,
0.10743142144638404,-0.01812617814845957,
0.10748129675810474,0.009481515716878523,
0.10753117206982543,0.005213190322057066,
0.10758104738154614,-0.01435322022307756,
0.10763092269326684,0.026106092012883445,
0.10768079800498753,0.019434200827782404,
0.10773067331670823,-0.002774284843211524,
0.10778054862842892,-0.023539595520760237,
0.10783042394014962,-0.01506019549560238,
0.10788029925187033,-0.0049365688832531405,
0.10793017456359102,0.012629372974391422,
0.10798004987531172,0.010661978827842627,
0.10802992518703242,0.014876977220929188,
0.10807980049875311,0.030647908406033132,
0.10812967581047382,-0.0120346114440474,
0.10817955112219452,0.012979551045803086,
0.10822942643391521,0.021201124657342484,
0.10827930174563591,0.007926128493432412,
0.1083291770573566,-0.017998265483951878,
0.1083790523690773,0.0011759966951505668,
0.10842892768079801,-0.011583474396352194,
0.1084788029925187,0.0004164330236128789,
0.1085286783042394,0.017262876364436804,
0.1085785536159601,-0.023857811310313434,
0.10862842892768079,0.008791788876692064,
0.1086783042394015,0.009885132094233797,
0.1087281795511222,0.03131257108421406,
0.1087780548628429,0.0023276511683578346,
0.10882793017456359,0.014776706486484659,
0.10887780548628428,0.00364726150859054,
0.108927680798005,0.013812074217484024,
0.10897755610972569,-0.014667889792052377,
0.10902743142144639,0.0048076468054840775,
0.10907730673316708,0.013517566807417546,
0.10912718204488778,0.0034204334367103004,
0.10917705735660847,0.0009784711288297315,
0.10922693266832918,0.029350211147689168,
0.10927680798004988,-0.01453343139600956,
0.10932668329177057,0.025290609507595783,
0.10937655860349127,0.019172669396140818,
0.10942643391521197,0.011036182596764114,
0.10947630922693267,0.03420076252097271,
0.10952618453865337,0.016890568673808677,
0.10957605985037407,0.024793820357405006,
0.10962593516209476,0.013899113326231333,
0.10967581047381546,0.019087452536942363,
0.10972568578553615,0.03243991886558531,
0.10977556109725686,0.011608977245422257,
0.10982543640897756,0.021627038333649876,
0.10987531172069825,0.023416756013337352,
0.10992518703241895,0.03492136390653201,
0.10997506234413965,0.0017331211863604624,
0.11002493765586036,0.006315413175082534,
0.11007481296758105,0.03366128849988244,
0.11012468827930175,0.009388150238420587,
0.11017456359102244,0.006435180115817641,
0.11022443890274314,0.021181512596764197,
0.11027431421446383,0.015906272493565778,
0.11032418952618454,0.024139317752640367,
0.11037406483790524,0.008758940608466045,
0.11042394014962593,0.002944231387661967,
0.11047381546134663,0.0038336004114577233,
0.11052369077306733,0.0371692347203879,
0.11057356608478804,0.015111632770137693,
0.11062344139650873,-0.0016149911905962884,
0.11067331670822943,0.02847238933238109,
0.11072319201995012,-0.004927266703824207,
0.11077306733167082,0.02013270123141041,
0.11082294264339151,0.03304535945301847,
0.11087281795511222,0.042390224069976834,
0.11092269326683292,0.010849631963816497,
0.11097256857855362,0.03499974302171648,
0.11102244389027431,0.021804638273422623,
0.111072319201995,0.015331529477253672,
0.11112219451371572,0.004306953620262153,
0.11117206982543641,0.02588821403171141,
0.11122194513715711,0.02085648442161117,
0.1112718204488778,0.015908466437537443,
0.1113216957605985,0.07014612239769327,
0.11137157107231921,0.04155988017402853,
0.1114214463840399,0.02534502211544074,
0.1114713216957606,0.033913786711006186,
0.1115211970074813,0.0108181058621001,
0.11157107231920199,0.027551674290721508,
0.11162094763092269,0.018576583516664517,
0.1116708229426434,0.027966550160051836,
0.11172069825436409,0.03603028231286967,
0.11177057356608479,0.04855246380557688,
0.11182044887780548,0.049819494217651236,
0.11187032418952618,0.046863619675582904,
0.11192019950124689,0.023634023035859306,
0.11197007481296758,0.01909452120249522,
0.11201995012468828,0.0395469631469734,
0.11206982543640898,0.01062227170382729,
0.11211970074812967,0.019940572807267323,
0.11216957605985037,0.034240148415704816,
0.11221945137157108,0.004657411258259882,
0.11226932668329177,0.04279556733482503,
0.11231920199501247,0.016516013072817,
0.11236907730673316,0.018667256998354823,
0.11241895261845386,0.0040967517737667755,
0.11246882793017457,0.033034200649443984,
0.11251870324189527,0.03436334083358045,
0.11256857855361596,0.01788163433365289,
0.11261845386533666,0.03198280873664532,
0.11266832917705735,0.01771933655935353,
0.11271820448877805,0.01736437156002324,
0.11276807980049876,0.04010050802151299,
0.11281795511221945,0.020321670062352543,
0.11286783042394015,0.05682591224826145,
0.11291770573566084,0.04259701124842832,
0.11296758104738154,0.031198017888181984,
0.11301745635910225,0.026102807004305624,
0.11306733167082295,0.05845502129691936,
0.11311720698254364,0.02856253350469502,
0.11316708229426434,0.01921679888065546,
0.11321695760598503,0.0024166265747098646,
0.11326683291770574,0.047312473336754216,
0.11331670822942644,0.018533760920633056,
0.11336658354114713,0.029852810397745146,
0.11341645885286783,-0.0013833539311144845,
0.11346633416458853,0.047883715515404546,
0.11351620947630922,0.057310356457943856,
0.11356608478802993,0.008184951688768139,
0.11361596009975063,0.023408681155821474,
0.11366583541147132,0.030095611037498173,
0.11371571072319202,0.023855294950538116,
0.11376558603491271,0.03467183008082416,
0.11381546134663342,0.033950109295698645,
0.11386533665835412,0.03469528897364664,
0.11391521197007481,0.031080153416582178,
0.11396508728179551,0.0469913329978434,
0.1140149625935162,0.03856636711054582,
0.1140648379052369,0.03867942739656595,
0.11411471321695761,0.032524284967581495,
0.1141645885286783,0.021032840915847038,
0.114214463840399,0.053910058423048954,
0.1142643391521197,0.008774692707004247,
0.1143142144638404,0.025317459649311168,
0.1143640897755611,0.03158667385624488,
0.1144139650872818,0.016660448606690907,
0.1144638403990025,0.031192100192033546,
0.11451371571072319,0.05007322210471922,
0.11456359102244389,0.027125325973754843,
0.11461346633416458,0.021611499052848423,
0.11466334164588529,0.0341761237533718,
0.11471321695760599,0.0366679510024917,
0.11476309226932668,0.025977680528161108,
0.11481296758104738,0.037642196828944256,
0.11486284289276807,0.03872896527943376,
0.11491271820448878,0.01901790631621627,
0.11496259351620948,0.03057772629586027,
0.11501246882793018,0.045568364141727005,
0.11506234413965087,0.037081897167774554,
0.11511221945137157,0.04938990736397254,
0.11516209476309226,0.04254710286650292,
0.11521197007481297,0.017859081764431704,
0.11526184538653367,-0.00014325116576909339,
0.11531172069825436,0.024133956544207975,
0.11536159600997506,0.02600337912142139,
0.11541147132169575,0.017801301486429826,
0.11546134663341646,0.031333755575656326,
0.11551122194513716,-0.0022282269044030627,
0.11556109725685786,0.015163896019275336,
0.11561097256857855,0.027966563742986537,
0.11566084788029925,-0.0021278743775596694,
0.11571072319201996,0.030856241027282072,
0.11576059850374065,0.0004604888623309343,
0.11581047381546135,0.0367922874087762,
0.11586034912718204,0.019455945164577014,
0.11591022443890274,0.04170289157382824,
0.11596009975062344,0.028936551769026396,
0.11600997506234415,0.0471826482727854,
0.11605985037406484,0.011676574649353653,
0.11610972568578554,0.03666769598120232,
0.11615960099750623,-0.0044211101151420025,
0.11620947630922693,0.022605126473094695,
0.11625935162094764,-0.012066969454394498,
0.11630922693266833,0.044063367306543165,
0.11635910224438903,0.028190743842018633,
0.11640897755610972,0.009923205060464202,
0.11645885286783042,0.026098680392328648,
0.11650872817955112,0.0072584968898207255,
0.11655860349127183,0.017713274661454382,
0.11660847880299252,0.02870977925830711,
0.11665835411471322,0.036936035191590874,
0.11670822942643391,0.01583355305026721,
0.11675810473815461,0.019168139246461192,
0.11680798004987532,0.017601513015217563,
0.11685785536159601,0.027070901224008518,
0.11690773067331671,-0.01322806281576202,
0.1169576059850374,-0.005813443394115155,
0.1170074812967581,0.014705525586532636,
0.1170573566084788,0.02363265360912858,
0.1171072319201995,0.009658297079768062,
0.1171571072319202,0.03800429281616624,
0.1172069825436409,0.0007220332660093538,
0.1172568578553616,0.007826253176581217,
0.11730673316708229,0.018427171414879043,
0.117356608478803,0.008694394982085936,
0.1174064837905237,0.046507921677283175,
0.11745635910224439,0.04384454250200206,
0.11750623441396509,0.007061564949141593,
0.11755610972568578,0.01344348673386172,
0.11760598503740648,0.029399260495769595,
0.11765586034912719,0.014110381559271062,
0.11770573566084788,-0.00010079158895785409,
0.11775561097256858,-0.03175909775492146,
0.11780548628428927,0.035897839821837016,
0.11785536159600997,0.009339399164775343,
0.11790523690773068,0.006133651510401308,
0.11795511221945137,0.009068636660563217,
0.11800498753117207,-0.012923101448699743,
0.11805486284289277,0.024230491843330253,
0.11810473815461346,0.02214582608978065,
0.11815461346633417,0.024371037270693556,
0.11820448877805487,-0.007301323687541689,
0.11825436408977556,-0.0006016295278311167,
0.11830423940149626,0.014081755302845786,
0.11835411471321695,0.03277439232162434,
0.11840399002493765,0.026014532470483333,
0.11845386533665836,0.02903734074289631,
0.11850374064837906,0.007062806687759227,
0.11855361596009975,0.020059184748614324,
0.11860349127182045,0.004383492112421853,
0.11865336658354114,0.027073242515666753,
0.11870324189526185,0.012720640883013615,
0.11875311720698255,0.0037467189056268396,
0.11880299251870324,0.003870515193112091,
0.11885286783042394,0.027220738006105246,
0.11890274314214463,0.010265010619411107,
0.11895261845386533,-0.01337232714886437,
0.11900249376558604,0.003500407862987616,
0.11905236907730674,0.00798970525973278,
0.11910224438902743,-9.746659412014549e-05,
0.11915211970074813,0.02887497150901308,
0.11920199501246882,-0.02948585497636163,
0.11925187032418953,0.014807360108732081,
0.11930174563591023,0.012256932833688502,
0.11935162094763092,-0.01692849948581602,
0.11940149625935162,-0.0021765499605445413,
0.11945137157107232,-0.029340814370928933,
0.11950124688279301,-0.008174044132111487,
0.11955112219451372,0.020015524775813205,
0.11960099750623442,-0.024357842507770826,
0.11965087281795511,0.024725335998842815,
0.11970074812967581,0.013955966592343019,
0.1197506234413965,0.0004415543773229301,
0.11980049875311721,-0.017669566525359896,
0.11985037406483791,0.018333664989222346,
0.1199002493765586,-0.018944979565463572,
0.1199501246882793,0.0016738160651279426,
0.12,0.011130147432633086,
0.1200498753117207,-0.010423420641351162,
0.1200997506234414,0.010531264024440014,
0.1201496259351621,-0.002728232471941318,
0.12019950124688279,0.007133166537757393,
0.12024937655860349,-0.03226606516048332,
0.12029925187032418,-0.031031511642344536,
0.1203491271820449,0.026374088945382703,
0.12039900249376559,0.0044391630029373946,
0.12044887780548628,-0.026151828226041906,
0.12049875311720698,-0.0077286048173895545,
0.12054862842892768,0.00782776395896715,
0.12059850374064839,-0.012502218368454415,
0.12064837905236908,-0.006393470859068426,
0.12069825436408978,-0.013245121444072522,
0.12074812967581047,-0.013994556105989707,
0.12079800498753117,-0.015042142894845983,
0.12084788029925186,-0.00634924944350849,
0.12089775561097257,-0.001969991461066246,
0.12094763092269327,0.007886873883333211,
0.12099750623441397,0.010165116444333206,
0.12104738154613466,-0.014638200337173541,
0.12109725685785536,-0.013644556240771934,
0.12114713216957607,-0.01466813588347884,
0.12119700748129676,0.0009221892613980927,
0.12124688279301746,-0.01566493914669808,
0.12129675810473815,0.008559044783277996,
0.12134663341645885,-0.0042364163271046505,
0.12139650872817954,-0.028617710990145418,
0.12144638403990025,-0.016445428032178706,
0.12149625935162095,0.007319070759335548,
0.12154613466334165,-0.02606422964072826,
0.12159600997506234,0.009648882908723054,
0.12164588528678304,-0.009495834267624091,
0.12169576059850375,0.019104390821176338,
0.12174563591022444,-0.02797971329712199,
0.12179551122194514,-0.01367898337880883,
0.12184538653366583,0.010999566990243504,
0.12189526184538653,0.008383570249302977,
0.12194513715710723,0.020735166730613108,
0.12199501246882793,-0.01068970366839819,
0.12204488778054863,-0.00606733155816813,
0.12209476309226933,-0.013646547085192367,
0.12214463840399002,0.0022945234665445024,
0.12219451371571072,-0.0005146589955176244,
0.12224438902743143,-0.014628257848083626,
0.12229426433915212,-0.009941906250917083,
0.12234413965087282,-0.040686961856281505,
0.12239401496259351,0.004125739288429216,
0.12244389027431421,-0.019182543408999362,
0.12249376558603492,0.006951867021670615,
0.12254364089775562,0.007653955241390151,
0.12259351620947631,-0.03241905048978343,
0.122643391521197,-0.007862096128819333,
0.1226932668329177,-0.017339839139575312,
0.1227431421446384,0.018474388231249132,
0.12279301745635911,-0.017120559804735386,
0.1228428927680798,-0.021704587017020605,
0.1228927680798005,-0.003281594382347622,
0.1229426433915212,-0.011233758475523737,
0.12299251870324189,0.016159743755163013,
0.1230423940149626,-0.022071442563422444,
0.1230922693266833,-0.008726250330856555,
0.12314214463840399,0.010529484402522276,
0.12319201995012469,-0.020003701066146025,
0.12324189526184538,-0.04022165280758944,
0.12329177057356608,-0.002516922524565906,
0.12334164588528679,-0.03248374998356538,
0.12339152119700748,-0.02906202138263276,
0.12344139650872818,-0.021837809224776555,
0.12349127182044888,-0.0068365260658103085,
0.12354114713216957,-0.0160604603893785,
0.12359102244389028,-0.013463620864459298,
0.12364089775561098,-0.016325888881721946,
0.12369077306733167,-0.026457220627635662,
0.12374064837905237,-0.003963936485733815,
0.12379052369077306,-0.023452713973756194,
0.12384039900249376,-0.025322498483741483,
0.12389027431421447,-0.02600493126080812,
0.12394014962593516,0.008947249680411036,
0.12399002493765586,0.00043789647617958546,
0.12403990024937656,-0.0036266568237265876,
0.12408977556109725,0.01815474600449917,
0.12413965087281796,-0.007661102620601391,
0.12418952618453866,0.010947693239224206,
0.12423940149625935,-0.0044836629540839544,
0.12428927680798005,-0.005604284284406493,
0.12433915211970074,-0.03010469286520121,
0.12438902743142144,-0.005431379612794792,
0.12443890274314215,-0.014106382467974472,
0.12448877805486284,-0.0306340622369744,
0.12453865336658354,-0.021463201825810727,
0.12458852867830424,-0.023891120766316554,
0.12463840399002493,-0.007673950413587197,
0.12468827930174564,0.002194959799668014,
0.12473815461346634,-0.028225351007188187,
0.12478802992518703,-0.0029556711342303716,
0.12483790523690773,-0.03316926553179563,
0.12488778054862842,0.012568300617312825,
0.12493765586034913,-0.021861088018002343,
0.12498753117206983,-0.013313681633456533,
0.12503740648379053,-0.017124825598571168,
0.12508728179551123,0.012022527559318838,
0.12513715710723192,-0.02218395915499595,
0.12518703241895263,-0.007861381896670596,
0.1252369077306733,0.004246789116901826,
0.12528678304239402,-0.002393886782573707,
0.1253366583541147,-0.030977735442835462,
0.1253865336658354,-0.02372136176937792,
0.12543640897755612,-0.01802739204185099,
0.1254862842892768,-0.0061278232769317546,
0.1255361596009975,0.0004917404160691072,
0.1255860349127182,-0.03789202646108086,
0.1256359102244389,-0.0065445072855544306,
0.1256857855361596,-0.026305484555706093,
0.1257356608478803,-0.010665330091818363,
0.125785536159601,-0.00025424547974758644,
0.12583541147132168,0.002320414783547003,
0.1258852867830424,0.010365024516175821,
0.1259351620947631,-0.0007236081703491676,
0.12598503740648379,-0.004968875394626189,
0.1260349127182045,-0.009948701759709258,
0.12608478802992518,-0.015196031327283784,
0.1261346633416459,-0.0312892900172086,
0.1261845386533666,-0.01053280842156433,
0.12623441396508728,0.013858242414430613,
0.126284289276808,0.0035568498550373646,
0.12633416458852867,-0.028041055059015843,
0.12638403990024938,-0.004169816670411374,
0.1264339152119701,-0.007060990605727558,
0.12648379052369077,-0.0004723744709208971,
0.12653366583541148,-0.019510756604534184,
0.12658354114713216,0.00243506392329917,
0.12663341645885287,0.01143631928277963,
0.12668329177057355,0.020084493610928997,
0.12673316708229426,-0.03522034783685731,
0.12678304239401497,-0.04404828172299852,
0.12683291770573565,-0.017562038070461188,
0.12688279301745636,0.024730700188858326,
0.12693266832917705,0.007971592481917058,
0.12698254364089775,-0.002175599848412613,
0.12703241895261846,0.016346138900602557,
0.12708229426433915,0.012960305380705963,
0.12713216957605986,-0.008392263182471476,
0.12718204488778054,-0.007163065122063833,
0.12723192019950125,-0.01648622480571725,
0.12728179551122196,-0.007172373736411109,
0.12733167082294264,-0.007385134167332453,
0.12738154613466335,0.013583922028233312,
0.12743142144638403,-0.0212651268920069,
0.12748129675810474,0.007586011959464702,
0.12753117206982545,0.009868640124477196,
0.12758104738154613,0.0007003770398310448,
0.12763092269326684,-0.01955961928185758,
0.12768079800498752,-0.005528180870354892,
0.12773067331670823,-0.007105168979422228,
0.1277805486284289,0.014997060399241917,
0.12783042394014962,0.001596379765071132,
0.12788029925187033,0.006291304245092694,
0.12793017456359101,0.028059246769985603,
0.12798004987531172,0.003756367951679464,
0.1280299251870324,-0.0020200693984484376,
0.12807980049875312,-0.0005054763280549013,
0.12812967581047383,-0.02647237889276525,
0.1281795511221945,-0.014061813414385227,
0.12822942643391522,-0.013967172766825593,
0.1282793017456359,-0.014081291438218981,
0.1283291770573566,0.016057155005963473,
0.12837905236907732,0.013823453477572098,
0.128428927680798,0.015609045501047025,
0.1284788029925187,0.017923025264651955,
0.1285286783042394,0.012768425310761314,
0.1285785536159601,-0.013838025977043889,
0.1286284289276808,-0.0025159529779519765,
0.1286783042394015,0.03324630759797018,
0.1287281795511222,0.006111040114019176,
0.12877805486284288,0.014323266983873352,
0.1288279301745636,0.014240852430476188,
0.1288778054862843,0.01906339581957414,
0.12892768079800498,-0.004459676338358294,
0.1289775561097257,0.021021339758133008,
0.12902743142144638,0.004051300798563128,
0.12907730673316709,0.0002990486493309897,
0.12912718204488777,0.015474771604774056,
0.12917705735660848,0.015070867625770855,
0.1292269326683292,0.04258416213720563,
0.12927680798004987,0.02903702818691303,
0.12932668329177058,0.013940700947639582,
0.12937655860349126,0.020888249965896114,
0.12942643391521197,0.031441110983218154,
0.12947630922693268,-0.010105171217975967,
0.12952618453865336,-0.0033716476727176717,
0.12957605985037407,0.024224055182912454,
0.12962593516209475,0.01662386575516826,
0.12967581047381546,-0.01728969466768247,
0.12972568578553617,-0.006538525930957911,
0.12977556109725685,0.008648953534736015,
0.12982543640897756,-0.0021890635765986002,
0.12987531172069824,0.024241100970267944,
0.12992518703241895,0.02339231288959501,
0.12997506234413966,0.025657872282224742,
0.13002493765586035,0.043294400998862316,
0.13007481296758105,0.016653559350931414,
0.13012468827930174,0.021002934286756085,
0.13017456359102245,0.03373779541584035,
0.13022443890274316,0.04519014693084393,
0.13027431421446384,0.014861852214920033,
0.13032418952618455,-0.003842930220129704,
0.13037406483790523,0.01165199546981914,
0.13042394014962594,0.041729414219572034,
0.13047381546134662,0.011041322437466708,
0.13052369077306733,0.05362547131025045,
0.13057356608478804,0.01949990742612052,
0.13062344139650872,0.033417340822742087,
0.13067331670822943,0.03440926837420619,
0.1307231920199501,0.01683507412773622,
0.13077306733167082,0.05239658923762222,
0.13082294264339153,0.055301814138058215,
0.13087281795511221,0.014164394921491814,
0.13092269326683292,0.014328001371696873,
0.1309725685785536,0.03278784789830913,
0.13102244389027431,0.019483647165334406,
0.13107231920199502,0.020415455432643687,
0.1311221945137157,0.004786068275450094,
0.13117206982543642,0.01712120615203695,
0.1312219451371571,-0.013601608350631376,
0.1312718204488778,0.032290995569526526,
0.13132169576059852,0.02637289665902701,
0.1313715710723192,0.013697171265226732,
0.1314214463840399,0.021398562553001117,
0.1314713216957606,0.002912571230770881,
0.1315211970074813,0.029981650295140543,
0.13157107231920198,0.01626426453045227,
0.1316209476309227,0.008679259209955291,
0.1316708229426434,0.008388167401857882,
0.13172069825436408,0.023762170392064793,
0.1317705735660848,0.01906769027112664,
0.13182044887780547,0.019276743953255942,
0.13187032418952618,-0.005271232670975772,
0.1319201995012469,0.04009655743624457,
0.13197007481296757,0.03331252988147287,
0.13201995012468828,0.022627815791531402,
0.13206982543640897,0.022848002797085785,
0.13211970074812968,0.02994011426449868,
0.13216957605985039,0.03802958073675738,
0.13221945137157107,0.03983632013845902,
0.13226932668329178,0.019822350689699144,
0.13231920199501246,0.034697738494747485,
0.13236907730673317,0.028513156404293517,
0.13241895261845388,0.02954460069715173,
0.13246882793017456,0.06105712114573708,
0.13251870324189527,0.03147858271439728,
0.13256857855361595,0.02816160046950114,
0.13261845386533666,0.04335646843997838,
0.13266832917705737,0.01330406335101877,
0.13271820448877805,0.017341001366847048,
0.13276807980049876,0.03883955777737663,
0.13281795511221944,0.04215956697905785,
0.13286783042394015,0.03243482891912621,
0.13291770573566083,0.022654354937409887,
0.13296758104738154,0.025355893796108205,
0.13301745635910225,0.025358028196473478,
0.13306733167082294,0.036522503328133574,
0.13311720698254365,0.03871100881160275,
0.13316708229426433,0.0645371073075989,
0.13321695760598504,0.00906247161852302,
0.13326683291770575,0.02557038045602388,
0.13331670822942643,0.024964105666822275,
0.13336658354114714,0.03971798942967339,
0.13341645885286782,0.03667871614775853,
0.13346633416458853,0.03662338544567559,
0.13351620947630924,0.02773790637663557,
0.13356608478802992,0.018548344671494955,
0.13361596009975063,0.025741188067942147,
0.1336658354114713,0.05263802891111529,
0.13371571072319202,0.04216665340160488,
0.13376558603491273,0.020926403815946477,
0.1338154613466334,0.027178735738795187,
0.13386533665835412,0.028621535606978842,
0.1339152119700748,0.05468129281632489,
0.13396508728179551,0.04459126275320272,
0.1340149625935162,0.03859253394540991,
0.1340648379052369,0.0301361439641607,
0.13411471321695762,0.02305377288579155,
0.1341645885286783,0.026778295997327537,
0.134214463840399,-0.004708349236941873,
0.1342643391521197,0.021289642321427046,
0.1343142144638404,0.021658928502149385,
0.1343640897755611,0.01407464784130091,
0.1344139650872818,0.007179451633117284,
0.1344638403990025,0.038255780341573536,
0.13451371571072318,0.0161307743137441,
0.1345635910224439,0.024512084679439404,
0.1346134663341646,0.025676011900789192,
0.13466334164588528,0.02853767287195137,
0.134713216957606,0.032254953872280834,
0.13476309226932667,0.027109476810071836,
0.13481296758104738,0.034614708546027995,
0.1348628428927681,0.006706635391111774,
0.13491271820448877,0.025438223685705644,
0.13496259351620948,0.023526604521972923,
0.13501246882793017,0.03755823762260754,
0.13506234413965088,0.02981995934448884,
0.13511221945137158,0.04353100915929047,
0.13516209476309227,-0.00576935879294134,
0.13521197007481298,0.03965305491078576,
0.13526184538653366,0.0022920979117416335,
0.13531172069825437,0.03661473678492511,
0.13536159600997505,0.04017373597478207,
0.13541147132169576,0.03791830997569656,
0.13546134663341647,0.02704921373716695,
0.13551122194513715,0.03910078583271855,
0.13556109725685786,0.0030751532408430683,
0.13561097256857854,0.018958562217801768,
0.13566084788029925,0.007977603958959762,
0.13571072319201996,0.05095857797474574,
0.13576059850374064,0.03390458112093118,
0.13581047381546135,0.021540773013613825,
0.13586034912718203,0.02996623210982189,
0.13591022443890274,0.02183861195881572,
0.13596009975062345,0.030521631105978057,
0.13600997506234414,0.04845139984497422,
0.13605985037406484,0.036705289982840644,
0.13610972568578553,0.007416018300893317,
0.13615960099750624,0.060061511708593765,
0.13620947630922695,0.03527543092983298,
0.13625935162094763,0.026864247404348514,
0.13630922693266834,0.02299624990091272,
0.13635910224438902,0.023929451828957598,
0.13640897755610973,0.010885774214460985,
0.1364588528678304,0.04472465934539139,
0.13650872817955112,0.030286491910160446,
0.13655860349127183,0.03132061193615013,
0.1366084788029925,0.018791424182489462,
0.13665835411471322,0.04443055335766291,
0.1367082294264339,0.02819724604356058,
0.1367581047381546,0.03259347750671662,
0.13680798004987532,0.015581842693395551,
0.136857855361596,0.006870644130633678,
0.1369077306733167,0.04044313072668829,
0.1369576059850374,0.023190636638290792,
0.1370074812967581,0.053730491117694096,
0.13705735660847881,0.06254410691712378,
0.1371072319201995,0.0020388924947393507,
0.1371571072319202,-0.0014027974503512362,
0.1372069825436409,0.0053085269407362815,
0.1372568578553616,0.007988821692398878,
0.1373067331670823,0.0006925027976836771,
0.137356608478803,0.009732985231237121,
0.1374064837905237,0.011403612218391021,
0.13745635910224438,0.06130411907473107,
0.1375062344139651,0.029933164993870203,
0.1375561097256858,0.03969137246234429,
0.13760598503740648,0.032511350772921485,
0.1376558603491272,0.052915519204116204,
0.13770573566084787,0.016495711489425375,
0.13775561097256858,-0.004773099418086901,
0.13780548628428926,0.004184497253173783,
0.13785536159600997,0.019380358518803646,
0.13790523690773068,0.004233308645407861,
0.13795511221945136,0.014152504447644302,
0.13800498753117207,0.04025981234901589,
0.13805486284289276,0.008771021860416832,
0.13810473815461347,0.03548970869230255,
0.13815461346633418,0.041077300698076705,
0.13820448877805486,0.047691081222983614,
0.13825436408977557,0.031379145133306266,
0.13830423940149625,0.023570398291724606,
0.13835411471321696,0.000195115213278578,
0.13840399002493767,0.034272929310465695,
0.13845386533665835,0.02424113180738885,
0.13850374064837906,0.03495974943817967,
0.13855361596009974,0.001922381421286248,
0.13860349127182045,-0.0006312477612951724,
0.13865336658354116,-0.00870087602511612,
0.13870324189526184,0.016038300589716243,
0.13875311720698255,0.003215384683913556,
0.13880299251870323,0.016394843239499735,
0.13885286783042394,0.03947473443454341,
0.13890274314214462,0.007512291617321379,
0.13895261845386533,0.003174492508091523,
0.13900249376558604,0.04141531527913591,
0.13905236907730673,-0.002975487299997635,
0.13910224438902744,0.01435909629810245,
0.13915211970074812,0.027652408216047367,
0.13920199501246883,-0.012113379487472261,
0.13925187032418954,0.015534706158459966,
0.13930174563591022,0.0214155074645651,
0.13935162094763093,0.02057499646701557,
0.1394014962593516,0.01776856464498692,
0.13945137157107232,-0.01834725663599963,
0.13950124688279303,-0.01458813249085131,
0.1395511221945137,0.024663600509852283,
0.13960099750623442,0.02114146319551382,
0.1396508728179551,0.005022861469095871,
0.1397007481296758,0.001565510119185362,
0.13975062344139652,0.003914729078571864,
0.1398004987531172,0.010746481751720795,
0.1398503740648379,-0.0036295581858507998,
0.1399002493765586,0.0009840248451505641,
0.1399501246882793,-0.00040852761823475213,
0.14,-0.018182357550026812,
0.1400498753117207,-0.005256764142582729,
0.1400997506234414,-0.011927222220651741,
0.1401496259351621,-0.012838738818556688,
0.1401995012468828,0.006045094940994172,
0.14024937655860348,-0.002097863945723889,
0.1402992518703242,0.003281996586912952,
0.1403491271820449,-0.011802934997479751,
0.14039900249376558,-0.01224051678720482,
0.1404488778054863,-0.0007237951817015481,
0.14049875311720697,0.0039850669426461285,
0.14054862842892768,0.006125399064942158,
0.1405985037406484,0.006895718158305811,
0.14064837905236907,0.018496161509484257,
0.14069825436408978,-0.004875151626953996,
0.14074812967581046,-0.042551387193295945,
0.14079800498753117,0.017010298954694726,
0.14084788029925188,-0.01729818649604392,
0.14089775561097256,-0.009713287709527743,
0.14094763092269327,0.0028269748711231453,
0.14099750623441396,-9.473377481455372e-05,
0.14104738154613466,-0.003242631188517381,
0.14109725685785537,0.02586377438430152,
0.14114713216957606,-0.025793859997033625,
0.14119700748129677,0.02328138773023765,
0.14124688279301745,-0.003637188438831544,
0.14129675810473816,-0.011072327840931444,
0.14134663341645887,-0.005478029033602562,
