time,amplitude,label
0.0,0.022475026640461127,
4.987531172069826e-05,0.009142656714819284,
9.975062344139652e-05,-0.022012289194706797,
0.00014962593516209475,-0.031134328928730047,
0.00019950124688279303,0.012474986897800171,
0.00024937655860349125,-0.0017863718730741687,
0.0002992518703241895,0.029275007901746412,
0.00034912718204488776,0.03331163441266893,
0.00039900249376558606,0.006493366221503552,
0.0004488778054862843,0.012637242883787836,
0.0004987531172069825,-0.005297587748094178,
0.0005486284289276808,0.013024236466535565,
0.000598503740648379,-0.006685621982842215,
0.0006483790523690773,-0.0015260808880812153,
0.0006982543640897755,-0.026782392812168043,
0.0007481296758104738,-0.014171666197177815,
0.0007980049875311721,-0.001648552488534013,
0.0008478802992518703,0.007769321669411256,
0.0008977556109725686,0.02936766520203282,
0.0009476309226932668,-0.002423159331390517,
0.000997506234413965,-0.006448419571285906,
0.0010473815461346633,0.032476397826369005,
0.0010972568578553616,0.030206566270859,
0.00114713216957606,0.02004262168011686,
0.001197007481296758,0.022310553492117403,
0.0012468827930174563,-0.011877779426079406,
0.0012967581047381546,0.02244706867142238,
0.001346633416458853,0.02293298792361093,
0.001396508728179551,0.002326038209977163,
0.0014463840399002493,0.0023083341024881764,
0.0014962593516209476,-0.003079880137459731,
0.001546134663341646,0.013163002265885949,
0.0015960099750623442,0.0015404567067460757,
0.0016458852867830423,0.0072815158764377025,
0.0016957605985037406,0.013717471575759775,
0.001745635910224439,0.005256819301641361,
0.0017955112219451373,0.04371424014290512,
0.0018453865336658353,0.021913786737313312,
0.0018952618453865336,0.03778845347867495,
0.001945137157107232,0.027430927905820083,
0.00199501246882793,0.011428908826840105,
0.0020448877805486283,0.04371613162891662,
0.0020947630922693266,0.021609797093708884,
0.002144638403990025,-0.005233765977105339,
0.0021945137157107233,-0.0016872236155471149,
0.0022443890274314216,0.02777844434064868,
0.00229426433915212,0.007581954411814303,
0.0023441396508728177,0.031046454863214716,
0.002394014962593516,0.011465800889355095,
0.0024438902743142144,0.040233603500948546,
0.0024937655860349127,0.013807058662721264,
0.002543640897755611,-0.0011602997258190403,
0.0025935162094763093,0.019616668699385872,
0.0026433915211970076,0.03371008213303877,
0.002693266832917706,0.024506877741934344,
0.002743142144638404,0.021664648083357732,
0.002793017456359102,0.041664100903568604,
0.0028428927680798004,0.016937954676159387,
0.0028927680798004987,0.0074055466914171135,
0.002942643391521197,0.028174617494761123,
0.0029925187032418953,0.005605372283366843,
0.0030423940149625936,0.0067761376801156945,
0.003092269326683292,0.028444701620680725,
0.00314214463840399,0.026321270519839957,
0.0031920199501246885,0.034733173802994156,
0.0032418952618453864,0.042101412685032966,
0.0032917705735660847,0.03586539648521974,
0.003341645885286783,0.0363607754880107,
0.0033915211970074813,0.03319318550549024,
0.0034413965087281796,0.02284603255425051,
0.003491271820448878,0.010435134420398236,
0.003541147132169576,-0.007841159470736582,
0.0035910224438902745,0.037833635545373306,
0.0036408977556109724,-0.003483305660301323,
0.0036907730673316707,0.03888886017024756,
0.003740648379052369,0.02655607923479167,
0.0037905236907730673,0.03622337178273277,
0.0038403990024937656,0.04106268851360901,
0.003890274314214464,0.02771693603051823,
0.003940149625935162,0.013109145397427267,
0.00399002493765586,0.014295562480895582,
0.004039900249376558,0.011987276358819701,
0.004089775561097257,0.022850182067708714,
0.004139650872817955,0.04264386305916186,
0.004189526184538653,0.026089986940848943,
0.004239401496259352,0.03583697803654681,
0.00428927680798005,0.027940951778174267,
0.004339152119700748,0.025203626281997498,
0.0043890274314214465,0.032361943118407344,
0.004438902743142145,0.0483024220031385,
0.004488778054862843,0.028233397148714957,
0.004538653366583541,0.013328590368284671,
0.00458852867830424,0.013067763431426833,
0.004638403990024938,0.01623139026317698,
0.0046882793017456355,0.02431921795993851,
0.004738154613466334,0.049642812279254676,
0.004788029925187032,0.008542623821414602,
0.00483790523690773,0.04019066074372972,
0.004887780548628429,-0.017658400780351143,
0.004937655860349127,-0.0024928193481393718,
0.004987531172069825,0.02371012573526872,
0.005037406483790524,0.033766680615482166,
0.005087281795511222,0.013652459016675078,
0.00513715710723192,0.023339242148260185,
0.0051870324189526185,0.024533556890085982,
0.005236907730673317,0.024571648959520062,
0.005286783042394015,0.039268954243182747,
0.0053366583541147134,0.021891794136158438,
0.005386533665835412,0.026953304108664936,
0.00543640897755611,-0.011483970175380314,
0.005486284289276808,-0.010707403505137537,
0.005536159600997507,-0.00021674375980661534,
0.005586034912718204,0.018529430391731883,
0.005635910224438902,0.027529645840053636,
0.005685785536159601,-0.011342523189971285,
0.005735660847880299,0.024015759981150377,
0.005785536159600997,0.04070843704528745,
0.005835411471321696,0.027215870344794217,
0.005885286783042394,0.023430885117262167,
0.005935162094763092,0.0037928156700995,
0.0059850374064837905,0.001194554486148882,
0.006034912718204489,-0.008497721718509838,
0.006084788029925187,0.030594997637739624,
0.0061346633416458855,0.018015102835286137,
0.006184538653366584,0.003284196694022582,
0.006234413965087282,0.02427010708064515,
0.00628428927680798,0.021415330023652868,
0.006334164588528679,0.017075202475780853,
0.006384039900249377,0.015956846607267258,
0.006433915211970074,0.027646990376282904,
0.006483790523690773,0.017331022848568974,
0.006533665835411471,0.023050220306153463,
0.006583541147132169,0.01590946306171849,
0.006633416458852868,0.028669232903790177,
0.006683291770573566,0.015762656971823698,
0.006733167082294264,0.0046162630237499575,
0.0067830423940149626,0.009144280173046969,
0.006832917705735661,-0.012676850521632203,
0.006882793017456359,-0.0011772224080454727,
0.0069326683291770575,0.020118859638136893,
0.006982543640897756,-0.015683491414460772,
0.007032418952618454,0.020341708483331715,
0.007082294264339152,-0.0015011155357754612,
0.007132169576059851,0.014088297807496146,
0.007182044887780549,0.028838023281922205,
0.007231920199501247,0.011399810990322697,
0.007281795511221945,0.010599783640023291,
0.007331670822942643,0.03311940850979004,
0.007381546134663341,0.02605722131452167,
0.00743142144638404,-0.011122157048518556,
0.007481296758104738,0.04285519773540285,
0.007531172069825436,0.005191976548474138,
0.007581047381546135,-0.01372129801732119,
0.007630922693266833,-0.0027533641430969643,
0.007680798004987531,0.007760443065026455,
0.0077306733167082295,0.011471035628518056,
0.007780548628428928,0.007313103823087335,
0.007830423940149626,0.009729189448940623,
0.007880299251870324,0.005253610851047758,
0.007930174563591023,0.047434366784831455,
0.00798004987531172,-0.018651007988251575,
0.00802992518703242,-0.021234947599098424,
0.008079800498753117,0.03204139665106464,
0.008129675810473816,-0.009435405664372218,
0.008179551122194513,-0.004358061960844422,
0.008229426433915213,-0.021914580858170843,
0.00827930174563591,0.023232216094106486,
0.00832917705735661,0.009561266545139387,
0.008379052369077307,-0.026809241448580063,
0.008428927680798006,0.004542028845901201,
0.008478802992518703,0.020046452128867173,
0.0085286783042394,0.003544569296860956,
0.0085785536159601,-0.0213619661817446,
0.008628428927680797,0.02729743802294125,
0.008678304239401496,-0.0025499885186247733,
0.008728179551122194,0.029284140105090794,
0.008778054862842893,0.0012738217065455548,
0.00882793017456359,0.00885988415573866,
0.00887780548628429,-0.001446140002780403,
0.008927680798004987,0.040389833304470844,
0.008977556109725686,-0.01248308489586236,
0.009027431421446384,0.009507340907109196,
0.009077306733167083,0.0034510908576485416,
0.00912718204488778,-0.034752029951702186,
0.00917705735660848,-0.01292582439871276,
0.009226932668329177,-0.011057250117173083,
0.009276807980049876,0.010463793414936607,
0.009326683291770574,0.008664237357024767,
0.009376558603491271,-0.0019948014669226794,
0.00942643391521197,0.00852902256693651,
0.009476309226932668,-0.007063409222181291,
0.009526184538653367,0.005829107514341396,
0.009576059850374064,0.003866233744056828,
0.009625935162094763,-0.003714984360825748,
0.00967581047381546,0.028402411278074725,
0.00972568578553616,-0.028575200124373687,
0.009775561097256857,-0.02482744716525689,
0.009825436408977557,0.008777884987091571,
0.009875311720698254,-7.324186275009959e-05,
0.009925187032418953,-0.026092322444147414,
0.00997506234413965,-0.0053150515602590764,
0.01002493765586035,0.02378467679516036,
0.010074812967581047,-0.0029994852840392688,
0.010124688279301746,0.01018312121942188,
0.010174563591022444,-0.014188104445527266,
0.010224438902743141,-0.011308386686297914,
0.01027431421446384,-0.01239416549864385,
0.010324189526184538,-0.005027729194457419,
0.010374064837905237,0.0015021188092294562,
0.010423940149625935,-0.02377229042417664,
0.010473815461346634,-0.00408652782513539,
0.010523690773067331,-0.017356401406728707,
0.01057356608478803,-0.01278069351053534,
0.010623441396508728,-0.033935700770364556,
0.010673316708229427,-0.015084738231107314,
0.010723192019950124,0.009241711817219622,
0.010773067331670824,-0.01739222597726537,
0.010822942643391521,-0.006727026598706004,
0.01087281795511222,-0.0062459233969156475,
0.010922693266832918,-0.019417669744612884,
0.010972568578553617,-0.0006798693283662609,
0.011022443890274314,-0.001422565908633584,
0.011072319201995013,-0.028607940149364727,
0.01112219451371571,0.009146061019300773,
0.011172069825436408,0.023462827097432068,
0.011221945137157107,-0.019540964844772343,
0.011271820448877805,0.005527932059893671,
0.011321695760598504,-0.008257277295670388,
0.011371571072319201,-0.040755679022049816,
0.0114214463840399,-0.006481918401600575,
0.011471321695760598,-0.03239720793580027,
0.011521197007481297,-0.008025425126919582,
0.011571072319201995,-0.017127641394623267,
0.011620947630922694,-0.011878503201483242,
0.011670822942643391,-0.007815157216618115,
0.01172069825436409,-0.001381787065616381,
0.011770573566084788,-0.030006154449251983,
0.011820448877805487,-0.005726335363111946,
0.011870324189526184,-0.0173683341754276,
0.011920199501246884,-0.0012824189949902712,
0.011970074812967581,-0.04796914260941407,
0.012019950124688279,-0.014237039412777057,
0.012069825436408978,-0.010243271267890788,
0.012119700748129675,-0.01786705840458736,
0.012169576059850374,-0.002623444617650182,
0.012219451371571072,-0.022708422607596892,
0.012269326683291771,-0.025820530306301596,
0.012319201995012468,-0.020587466721160394,
0.012369077306733168,-0.018098248022626214,
0.012418952618453865,-0.008547244604880815,
0.012468827930174564,-0.01322034030786713,
0.012518703241895262,0.01818085853289048,
0.01256857855361596,-0.003888983247339233,
0.012618453865336658,-0.014053954295842736,
0.012668329177057357,-0.016133242340345067,
0.012718204488778055,-0.02419286057475993,
0.012768079800498754,-0.0087368655526393,
0.012817955112219451,-0.02520068437706409,
0.012867830423940149,-0.011381490829099703,
0.012917705735660848,-0.019798395474320735,
0.012967581047381545,-0.007024397589843214,
0.013017456359102245,-0.003768288553420568,
0.013067331670822942,-0.023434021919696728,
0.013117206982543641,0.0001524659867724286,
0.013167082294264339,-0.02085580851494283,
0.013216957605985038,-0.023000427461906173,
0.013266832917705735,-0.028573458072830748,
0.013316708229426434,-0.04405713164866619,
0.013366583541147132,-0.006463663078190043,
0.013416458852867831,-0.03270988172347838,
0.013466334164588529,-0.010010025524482928,
0.013516209476309228,-0.010015076247730723,
0.013566084788029925,0.011947480116933726,
0.013615960099750624,0.0030922824957502412,
0.013665835411471322,-0.015734249868686455,
0.01371571072319202,-0.010631910656310618,
0.013765586034912718,-0.012670665578153557,
0.013815461346633416,0.012021245099790492,
0.013865336658354115,-0.02149101068016842,
0.013915211970074812,-0.031992063569077245,
0.013965087281795512,-0.02505245820594209,
0.014014962593516209,-0.02249066451880281,
0.014064837905236908,-0.068955088457436,
0.014114713216957606,-0.04632241478956428,
0.014164588528678305,-0.026029486400661245,
0.014214463840399002,-0.0014777345320837916,
0.014264339152119701,-0.03362818325742139,
0.014314214463840399,-0.0015740914338277304,
0.014364089775561098,-0.007320373874874652,
0.014413965087281795,-0.033473734300191384,
0.014463840399002495,-0.03568839122759142,
0.014513715710723192,-0.02313583732393179,
0.01456359102244389,-0.030316388582901855,
0.014613466334164589,0.006950620484859223,
0.014663341645885286,-0.010335864392187293,
0.014713216957605985,-0.005963613289244416,
0.014763092269326683,-0.02003368360829337,
0.014812967581047382,-0.019956438870885333,
0.01486284289276808,-0.012265508488086734,
0.014912718204488778,-0.028280895068081336,
0.014962593516209476,-0.014309780092513706,
0.015012468827930175,-0.0408176832911913,
0.015062344139650873,0.0011529862527930174,
0.015112219451371572,-0.011810113236984592,
0.01516209476309227,-0.0059556563100677164,
0.015211970074812968,-0.011957345374974476,
0.015261845386533666,-0.01948301473355251,
0.015311720698254365,-0.03156947168984112,
0.015361596009975062,-0.0017915271474906527,
0.01541147132169576,-0.004340604848877586,
0.015461346633416459,-0.02578913056285305,
0.015511221945137156,-0.02897641119071087,
0.015561097256857856,-0.004951489867160382,
0.015610972568578553,-0.02930684603384056,
0.015660847880299252,-0.00038732767483680777,
0.01571072319201995,-0.005090186804863067,
0.015760598503740647,0.011893218711532202,
0.015810473815461346,-0.012282982744434009,
0.015860349127182045,-0.017805200423122204,
0.015910224438902745,-0.03505067596354696,
0.01596009975062344,-0.01893713546903538,
0.01600997506234414,-0.014716766857863942,
0.01605985037406484,-0.017433341735988206,
0.016109725685785538,-0.015599035296918737,
0.016159600997506234,-0.010195425157310973,
0.016209476309226933,0.014705595443482638,
0.016259351620947632,-0.004819107679709413,
0.016309226932668328,0.010196155580547239,
0.016359102244389027,-0.042306095792750444,
0.016408977556109726,-0.024371948254757393,
0.016458852867830425,-0.03211277891126947,
0.01650872817955112,-0.012374602528214389,
0.01655860349127182,-0.002533506855034043,
0.01660847880299252,-0.028469036161662,
0.01665835411471322,-0.008528145900855148,
0.016708229426433914,-0.011583807134003867,
0.016758104738154613,0.011897919914048762,
0.016807980049875312,-0.019249556688677442,
0.01685785536159601,-0.00440778720844675,
0.016907730673316707,-0.01745286588512906,
0.016957605985037406,0.010252216877467506,
0.017007481296758106,-0.024668509395612,
0.0170573566084788,0.005672349899053412,
0.0171072319201995,-0.02165390967795989,
0.0171571072319202,-0.01372064748480665,
0.0172069825436409,-0.039218647068536054,
0.017256857855361595,-0.004342969314721344,
0.017306733167082294,0.029815627213560507,
0.017356608478802993,-0.004991996389021407,
0.017406483790523692,0.009289180112454196,
0.017456359102244388,-0.026369178591351048,
0.017506234413965087,-0.022217981828086687,
0.017556109725685786,-0.03176777626547483,
0.017605985037406485,-0.029606424127169524,
0.01765586034912718,-0.046356406400114465,
0.01770573566084788,-0.016725687800786804,
0.01775561097256858,-0.008980261979054282,
0.01780548628428928,-0.008154048814889785,
0.017855361596009974,-0.01999891809229878,
0.017905236907730673,-0.014670625564554549,
0.017955112219451373,0.004177219862812009,
0.018004987531172068,-0.018633730594315785,
0.018054862842892767,0.0002949062989148375,
0.018104738154613467,-0.008534406674794302,
0.018154613466334166,0.0051511658765165886,
0.01820448877805486,-0.017910696819773374,
0.01825436408977556,-0.011889002906263648,
0.01830423940149626,0.026645366454557312,
0.01835411471321696,0.004329608100283848,
0.018403990024937655,0.01335353535536091,
0.018453865336658354,0.0006069211551799434,
0.018503740648379053,0.006991147128126155,
0.018553615960099752,0.015390326394600855,
0.018603491271820448,-0.005852816267371411,
0.018653366583541147,0.0028656879887611775,
0.018703241895261846,0.01579929192984172,
0.018753117206982542,0.006699662731679145,
0.01880299251870324,0.012978459436291738,
0.01885286783042394,0.012121268733988545,
0.01890274314214464,-0.015589280905914445,
0.018952618453865335,-0.009426010198040022,
0.019002493765586034,0.017387477853891112,
0.019052369077306733,-0.012358778934469024,
0.019102244389027433,-0.010823901555162472,
0.01915211970074813,-0.0017678077170244716,
0.019201995012468828,0.015441871648850431,
0.019251870324189527,0.021450654908772182,
0.019301745635910226,0.011555488540016954,
0.01935162094763092,0.008585617522449122,
0.01940149625935162,0.015222595974724756,
0.01945137157107232,-0.021113199674333463,
0.01950124688279302,0.009971652245161822,
0.019551122194513715,0.01913028095999795,
0.019600997506234414,0.0043545799810850395,
0.019650872817955113,-0.005678522207678438,
0.01970074812967581,0.004413947786229006,
0.019750623441396508,-0.022372530555225978,
0.019800498753117207,0.01745439523247066,
0.019850374064837906,-0.003130628686440315,
0.019900249376558602,0.013743346094377645,
0.0199501246882793,0.0003556255522721083,
0.02,0.007611699438912467,
0.0200498753117207,0.008347288847323619,
0.020099750623441395,0.018292664747187777,
0.020149625935162094,0.0005507463712880467,
0.020199501246882794,0.013297838369730666,
0.020249376558603493,0.018468955218253286,
0.02029925187032419,0.01479428562456133,
0.020349127182044888,0.008097295314943699,
0.020399002493765587,0.02390046513916011,
0.020448877805486283,0.008784817939900757,
0.02049875311720698,-0.0031140746290884407,
0.02054862842892768,-0.00422485978719876,
0.02059850374064838,0.0045766410542217775,
0.020648379052369076,0.008988916740566077,
0.020698254364089775,0.006466735392154874,
0.020748129675810474,0.04621718348676532,
0.020798004987531173,0.00881670698140272,
0.02084788029925187,0.004739537868076519,
0.020897755610972568,-0.02137788222088499,
0.020947630922693267,0.0015453331572573038,
0.020997506234413967,0.03896143055716875,
0.021047381546134662,0.00972296644724983,
0.02109725685785536,0.006996106788757045,
0.02114713216957606,0.007169908879614879,
0.02119700748129676,0.027218075622847872,
0.021246882793017455,-0.0038757004915468893,
0.021296758104738155,-0.007938540711880366,
0.021346633416458854,0.008952007308649392,
0.02139650872817955,0.05017445539037127,
0.02144638403990025,0.006429257506115617,
0.021496259351620948,0.02414555879306743,
0.021546134663341647,0.024367160412240296,
0.021596009975062343,0.02231263841914327,
0.021645885286783042,0.017632303722859153,
0.02169576059850374,0.00922808847990238,
0.02174563591022444,0.020121542508562955,
0.021795511221945136,0.034378283300608214,
0.021845386533665835,-0.014781301633311032,
0.021895261845386534,0.01588378793707171,
0.021945137157107233,0.017937476709590304,
0.02199501246882793,0.011896695228377403,
0.02204488778054863,0.01035676739485015,
0.022094763092269327,0.02524059706228622,
0.022144638403990027,0.002552253278350597,
0.022194513715710722,0.022416563915476008,
0.02224438902743142,0.003372821173963836,
0.02229426433915212,0.01150161567128545,
0.022344139650872816,-0.013881228828288843,
0.022394014962593516,0.018656467703128808,
0.022443890274314215,0.018896440554538145,
0.022493765586034914,-0.011481015582506134,
0.02254364089775561,0.010366086129438644,
0.02259351620947631,0.014859699418646715,
0.022643391521197008,-0.0003767288948895685,
0.022693266832917707,0.018722844661523783,
0.022743142144638403,0.04959943913003165,
0.022793017456359102,-0.001042716131283556,
0.0228428927680798,0.026347940477338797,
0.0228927680798005,0.03812489798793385,
0.022942643391521196,0.05342427715064098,
0.022992518703241895,0.015430112418004,
0.023042394014962594,0.03089623880715522,
0.02309226932668329,0.01133369250360321,
0.02314214463840399,0.02052137919324704,
0.02319201995012469,0.0076513051400581514,
0.023241895261845388,0.05229412654777591,
0.023291770573566083,0.03381374497058918,
0.023341645885286783,0.029643207546293543,
0.02339152119700748,0.014648251029823959,
0.02344139650872818,0.0012168541310443176,
0.023491271820448877,0.012237237594479622,
0.023541147132169576,0.030032315209475774,
0.023591022443890275,0.018944620068828653,
0.023640897755610974,0.004785102435244416,
0.02369077306733167,0.016859262434883712,
0.02374064837905237,0.030912208457040492,
0.023790523690773068,0.010655549657187319,
0.023840399002493767,0.016267898214834806,
0.023890274314214463,0.026564678400257426,
0.023940149625935162,0.026219704876333655,
0.02399002493765586,-0.0036326022393955854,
0.024039900249376557,0.039259251206923515,
0.024089775561097256,-0.0016699418756234534,
0.024139650872817955,0.014460541011821891,
0.024189526184538655,-0.004642933181497996,
0.02423940149625935,0.04290792214284794,
0.02428927680798005,0.03097259776206766,
0.02433915211970075,0.01674459551749293,
0.024389027431421448,0.03225003737879385,
0.024438902743142144,0.0215933599824577,
0.024488778054862843,0.029562430915120032,
0.024538653366583542,0.018722518258296204,
0.02458852867830424,0.025519202472830904,
0.024638403990024937,0.002845260970305505,
0.024688279301745636,0.05398798937884243,
0.024738154613466335,0.03829547086094354,
0.02478802992518703,0.04282250418293762,
0.02483790523690773,-0.019649002337832865,
0.02488778054862843,0.026214148585560443,
0.02493765586034913,0.014624606571121943,
0.024987531172069824,0.04946653431519119,
0.025037406483790523,0.003226951089965076,
0.025087281795511222,-0.002311358948034456,
0.02513715710723192,0.009741515142431332,
0.025187032418952617,0.010605631399195965,
0.025236907730673316,0.04596975288932034,
0.025286783042394016,0.03768107826778858,
0.025336658354114715,0.011947903475748825,
0.02538653366583541,0.06079113638349429,
0.02543640897755611,0.022624755407639165,
0.02548628428927681,0.009750201820309837,
0.025536159600997508,0.03016287492624157,
0.025586034912718204,0.016130959458360638,
0.025635910224438903,0.01494495957812161,
0.025685785536159602,0.050108111480535095,
0.025735660847880298,0.03367710480802998,
0.025785536159600997,0.012897125071388748,
0.025835411471321696,0.0034108987265094298,
0.025885286783042395,-0.0051884740838400376,
0.02593516209476309,0.020667404360849465,
0.02598503740648379,0.050405010756941246,
0.02603491271820449,0.032896618783584464,
0.02608478802992519,0.024495683220197143,
0.026134663341645884,0.04145156979877297,
0.026184538653366583,0.0034796961092981218,
0.026234413965087282,0.009317147639604992,
0.02628428927680798,0.020349800471482923,
0.026334164588528677,0.00034684518772969825,
0.026384039900249377,0.012894333127743811,
0.026433915211970076,0.010210650751253077,
0.02648379052369077,0.011355997968835747,
0.02653366583541147,0.0035962237990625028,
0.02658354114713217,0.011572636317877664,
0.02663341645885287,0.004780003696137892,
0.026683291770573565,0.025316215901758695,
0.026733167082294264,0.017812640881230832,
0.026783042394014963,0.027531391745907564,
0.026832917705735662,0.00025589255159756165,
0.026882793017456358,0.002743988929976005,
0.026932668329177057,0.03740727053541249,
0.026982543640897756,0.028848257757608332,
0.027032418952618455,0.00939705210873183,
0.02708229426433915,-0.007778694857672332,
0.02713216957605985,0.009160838792351331,
0.02718204488778055,0.007579308782438417,
0.02723192019950125,-0.005804967501459066,
0.027281795511221944,0.022341720197757313,
0.027331670822942643,-0.004730311053349687,
0.027381546134663343,0.02663498850022726,
0.02743142144638404,0.01639827443267061,
0.027481296758104738,0.004850599412009674,
0.027531172069825437,0.021022706331704333,
0.027581047381546136,0.004818901421264579,
0.02763092269326683,-0.0027252975276884656,
0.02768079800498753,0.01146719889250066,
0.02773067331670823,-2.3593686686022852e-05,
0.02778054862842893,0.002754815212584044,
0.027830423940149625,0.029573929699235103,
0.027880299251870324,0.010030737095637197,
0.027930174563591023,0.00379874888317208,
0.027980049875311722,0.018768587674969778,
0.028029925187032418,0.024800597808700947,
0.028079800498753117,-0.0028191828690364486,
0.028129675810473816,0.01793785584301502,
0.028179551122194512,0.0264928065301953,
0.02822942643391521,0.01638045099075426,
0.02827930174563591,0.016951270400265325,
0.02832917705735661,0.001971217381574455,
0.028379052369077305,0.01466918061000903,
0.028428927680798004,0.030847081746347316,
0.028478802992518704,0.0009039386496549643,
0.028528678304239403,0.03041350704500991,
0.0285785536159601,-0.014184004794268672,
0.028628428927680798,0.002964886618207216,
0.028678304239401497,-0.0060661646964867855,
0.028728179551122196,-0.013844979283719958,
0.02877805486284289,-0.009248321811732334,
0.02882793017456359,-0.020484715368875788,
0.02887780548628429,0.002663798299510774,
0.02892768079800499,0.002243694262596514,
0.028977556109725685,0.009745756797628303,
0.029027431421446384,0.0025043987627195764,
0.029077306733167083,0.006764428900484728,
0.02912718204488778,-0.00527709350151452,
0.029177057356608478,0.03806994660203716,
0.029226932668329177,0.02174118409011116,
0.029276807980049877,-0.028475453028630332,
0.029326683291770572,0.012861147138270152,
0.02937655860349127,0.026883810260762735,
0.02942643391521197,0.039302938587052756,
0.02947630922693267,-0.010338398511645402,
0.029526184538653365,-0.01852555315836845,
0.029576059850374065,-0.005874977852241377,
0.029625935162094764,0.005072352655977349,
0.029675810473815463,-0.014528884117333456,
0.02972568578553616,-0.006126587799023341,
0.029775561097256858,0.015907223304510703,
0.029825436408977557,-0.009823715894777528,
0.029875311720698253,-0.014796497467396561,
0.029925187032418952,0.0039518041719552865,
0.02997506234413965,-0.0007453016199104475,
0.03002493765586035,0.004821550860636504,
0.030074812967581046,-0.005578351833403132,
0.030124688279301745,0.01304278394526248,
0.030174563591022444,-0.015221117102866388,
0.030224438902743143,0.01330394726691594,
0.03027431421446384,0.0013562810494090272,
0.03032418952618454,0.002085077077641802,
0.030374064837905237,0.007573654813620774,
0.030423940149625937,-0.005205871072463135,
0.030473815461346632,-0.00212358507997544,
0.03052369077306733,0.0038883497714209767,
0.03057356608478803,-0.008672426066574425,
0.03062344139650873,-0.02835584721698703,
0.030673316708229426,0.004298597099163443,
0.030723192019950125,0.022975573621120036,
0.030773067331670824,-0.036186867242569136,
0.03082294264339152,-0.04246995394596271,
0.03087281795511222,-0.029842479886367797,
0.030922693266832918,-0.006576553377121079,
0.030972568578553617,-0.007066203852362091,
0.031022443890274313,-0.029005178883651096,
0.031072319201995012,0.0026853279432371095,
0.03112219451371571,0.014175589058030565,
0.03117206982543641,-0.02509936371870709,
0.031221945137157106,-0.042155487166904905,
0.03127182044887781,-0.03701986970961572,
0.031321695760598504,-0.005205543546524942,
0.0313715710723192,0.008391524323712929,
0.0314214463840399,-0.029340790423098416,
0.0314713216957606,-0.02063628363707904,
0.031521197007481294,-0.022904120366230574,
0.031571072319202,-0.01687328239595842,
0.03162094763092269,0.00020386310640955682,
0.03167082294264339,-0.028268054207201503,
0.03172069825436409,-0.003381859285150623,
0.03177057356608479,-0.012989888812930495,
0.03182044887780549,-0.02116293467498973,
0.031870324189526185,-0.023091237289518896,
0.03192019950124688,-0.030021759218456946,
0.03197007481296758,0.0005279581865332231,
0.03201995012468828,-0.02727618115693403,
0.032069825436408975,0.01587969987349991,
0.03211970074812968,0.014684862353908222,
0.03216957605985037,-0.02012026196786123,
0.032219451371571076,0.028682960455072407,
0.03226932668329177,0.010521167561475872,
0.03231920199501247,-0.021394254636321112,
0.03236907730673317,-0.014382717600897713,
0.032418952618453865,-0.03217512940403938,
0.03246882793017456,-0.02572569584368216,
0.032518703241895264,-0.014553921993800154,
0.03256857855361596,-0.006655036769789952,
0.032618453865336655,-0.009715811116534585,
0.03266832917705736,-0.014238023594998993,
0.032718204488778053,0.002042904575219929,
0.032768079800498756,-0.02731183415770303,
0.03281795511221945,-0.016346351651595606,
0.03286783042394015,-0.027042601666583524,
0.03291770573566085,-0.003822303204245165,
0.032967581047381546,-0.014602284660147718,
0.03301745635910224,-0.0061723244152462695,
0.033067331670822944,-0.003948765221643849,
0.03311720698254364,0.007797039440304736,
0.03316708229426434,-0.006615791347997448,
0.03321695760598504,-0.0062259384678247445,
0.033266832917705734,-0.001561282368405038,
0.03331670822942644,-0.0191306358374776,
0.03336658354114713,-0.013345602797834998,
0.03341645885286783,-0.029712212442833816,
0.03346633416458853,-0.025959050558251755,
0.033516209476309226,-0.018547453973051194,
0.03356608478802992,-0.00773288771825691,
0.033615960099750625,-0.031097018448722917,
0.03366583541147132,-0.05251166442001269,
0.03371571072319202,0.008275760411236083,
0.03376558603491272,-0.022607902598302244,
0.033815461346633414,-0.024638579903706256,
0.03386533665835412,0.0064920059783104035,
0.03391521197007481,-0.006346203787139435,
0.03396508728179551,-0.02766360145644351,
0.03401496259351621,-0.016060471171474598,
0.03406483790523691,-0.016367164121429956,
0.0341147132169576,-0.008335769647054464,
0.034164588528678305,-0.014190695671910478,
0.034214463840399,-0.01443030837119892,
0.034264339152119704,-0.02189500933994323,
0.0343142144638404,-0.04626516793953498,
0.034364089775561095,-0.01834927646426911,
0.0344139650872818,-0.028148930494154154,
0.03446384039900249,-0.01894191361389032,
0.03451371571072319,-0.011808245276060059,
0.03456359102244389,-0.03973112498809886,
0.03461346633416459,-0.011154963160734343,
0.03466334164588529,-0.026598892370996805,
0.034713216957605986,-0.020300918737744367,
0.03476309226932668,-0.016905940266053254,
0.034812967581047384,-0.04226894345623651,
0.03486284289276808,0.012677604684706915,
0.034912718204488775,-0.024875334537975462,
0.03496259351620948,-0.017501173594627134,
0.035012468827930174,-0.025524061580649564,
0.03506234413965087,-0.020641376639794998,
0.03511221945137157,-0.0168855816673504,
0.03516209476309227,-0.02431666559807616,
0.03521197007481297,-0.026813878873853846,
0.035261845386533666,0.010416929733434556,
0.03531172069825436,0.005529404451749912,
0.035361596009975065,-0.018899087834143093,
0.03541147132169576,-0.00015121184370018442,
0.035461346633416456,-0.010116995154247792,
0.03551122194513716,0.005505797878657419,
0.035561097256857854,-0.03115474788357314,
0.03561097256857856,-0.010903356393810178,
0.03566084788029925,-0.027131858646756105,
0.03571072319201995,0.002199718384980811,
0.03576059850374065,-0.017065167670802996,
0.03581047381546135,-0.013649630045540977,
0.03586034912718204,-0.015910691343191338,
0.035910224438902745,-0.019910273547795336,
0.03596009975062344,-0.011006420666805848,
0.036009975062344136,-0.008477756057944933,
0.03605985037406484,0.002368016747892351,
0.036109725685785535,-0.013422760949562046,
0.03615960099750624,-0.003738102460573949,
0.03620947630922693,-0.028347862761213247,
0.03625935162094763,-0.010410542395604148,
0.03630922693266833,-0.024319097503675995,
0.03635910224438903,-0.026315513479057005,
0.03640897755610972,-0.015055646686921834,
0.036458852867830426,-0.008628392123556254,
0.03650872817955112,-0.003237561401014763,
0.036558603491271824,0.01622964573199874,
0.03660847880299252,0.005217443383590946,
0.036658354114713215,0.0025988610392272144,
0.03670822942643392,-0.0012801877484474953,
0.036758104738154614,-0.014827697694830742,
0.03680798004987531,0.0012469743766252914,
0.03685785536159601,-0.02117634156905987,
0.03690773067331671,-0.002968089652204956,
0.0369576059850374,0.002281822252029459,
0.037007481296758106,-0.0245312260755057,
0.0370573566084788,0.008755564852540844,
0.037107231920199504,0.0009466407544721049,
0.0371571072319202,-0.002281622660986995,
0.037206982543640896,0.00604021357670468,
0.0372568578553616,-0.027358117386114905,
0.037306733167082294,-0.03333803094139181,
0.03735660847880299,0.0033523263423324776,
0.03740648379052369,-0.012805075727010446,
0.03745635910224439,0.01736688434436105,
0.037506234413965084,-0.005711336090837151,
0.037556109725685786,-0.02114123226318304,
0.03760598503740648,-0.013367529871744822,
0.037655860349127185,-0.027694038587344746,
0.03770573566084788,-0.004865588507235896,
0.037755610972568576,-0.0034928711835628267,
0.03780548628428928,0.0033276483621998837,
0.037855361596009975,0.003000869890007985,
0.03790523690773067,-0.01569173032963211,
0.03795511221945137,-0.01742881291212131,
0.03800498753117207,-0.012525249579814246,
0.03805486284289277,-0.029606392192719017,
0.03810473815461347,0.0008717041930461512,
0.03815461346633416,-0.022862957326686934,
0.038204488778054865,-0.016844277806292125,
0.03825436408977556,0.002013254275799873,
0.03830423940149626,0.0012761749179877437,
0.03835411471321696,0.007153343727709514,
0.038403990024937655,0.004215500446405795,
0.03845386533665835,0.018907353122452737,
0.03850374064837905,0.010799105546807672,
0.03855361596009975,-0.017457378641763444,
0.03860349127182045,0.014700896607830248,
0.03865336658354115,-0.0030017148791668686,
0.03870324189526184,0.048473347593374204,
0.038753117206982546,-0.018571195965027994,
0.03880299251870324,0.030791662668131492,
0.03885286783042394,-0.0004375917172236201,
0.03890274314214464,-0.0016037547450406201,
0.038952618453865336,-0.0009500864573649265,
0.03900249376558604,0.0045898655298551435,
0.039052369077306734,0.011295541145591847,
0.03910224438902743,0.012071956094971727,
0.03915211970074813,0.003254317578581156,
0.03920199501246883,0.0006348119513433477,
0.039251870324189524,0.011591498290412724,
0.039301745635910226,0.008105289101236278,
0.03935162094763092,0.03702597871388559,
0.03940149625935162,0.014937693214776575,
0.03945137157107232,-0.00033462466295577486,
0.039501246882793016,0.016391902492283943,
0.03955112219451372,-0.008341913186028336,
0.039600997506234414,0.017507295811822386,
0.03965087281795511,0.018643140463712588,
0.03970074812967581,0.018094088150837965,
0.03975062344139651,0.003227719345061654,
0.039800498753117204,-0.00754270886501573,
0.03985037406483791,0.013163759310999567,
0.0399002493765586,-0.0032348990868171865,
0.039950124688279305,0.0051655999186956455,
0.04,0.003759932496455557,
0.0400498753117207,0.008396175418269728,
0.0400997506234414,0.0026919124166417856,
0.040149625935162095,0.022426032694057234,
0.04019950124688279,0.02202446726068496,
0.04024937655860349,0.016400988856087217,
0.04029925187032419,0.01935125718410979,
0.040349127182044885,0.023978887768965354,
0.04039900249376559,0.004532711879803223,
0.04044887780548628,0.022548158143680132,
0.040498753117206986,0.011570865050807046,
0.04054862842892768,0.03685134321009803,
0.04059850374064838,0.025183094599982397,
0.04064837905236908,0.019254408197598313,
0.040698254364089775,0.012412887188300196,
0.04074812967581047,0.0072806698216119755,
0.040798004987531174,0.008235263688299483,
0.04084788029925187,-0.013674431039707747,
0.040897755610972565,0.04297848455449718,
0.04094763092269327,0.024021113278387622,
0.04099750623441396,0.017528091859806253,
0.041047381546134666,-0.001540485677392258,
0.04109725685785536,0.016799356227069927,
0.04114713216957606,0.048327762471763444,
0.04119700748129676,0.02795791868189666,
0.041246882793017456,-0.014952587824976177,
0.04129675810473815,0.011485654134650735,
0.041346633416458854,0.0313042804623906,
0.04139650872817955,0.02403972454232485,
0.04144638403990025,0.015546784915997747,
0.04149625935162095,0.006670051094662613,
0.041546134663341644,0.018057364293916918,
0.04159600997506235,0.026587338785071517,
0.04164588528678304,0.007554357992942963,
0.04169576059850374,0.010538132572012394,
0.04174563591022444,0.025326324886411834,
0.041795511221945136,-0.012385829932875826,
0.04184538653366583,0.045749143598601646,
0.041895261845386535,0.05863678660657341,
0.04194513715710723,0.02397844842056785,
0.04199501246882793,0.03036787086304471,
0.04204488778054863,0.02241272576734954,
0.042094763092269324,0.023805627057061556,
0.04214463840399003,0.02581506562306877,
0.04219451371571072,0.027205290826485568,
0.04224438902743142,0.015473132938356978,
0.04229426433915212,-0.0034747409205984695,
0.04234413965087282,0.03574277942047865,
0.04239401496259352,0.024574983967333753,
0.042443890274314215,0.012691378801889877,
0.04249376558603491,0.05894322426124453,
0.042543640897755614,0.014480591934104739,
0.04259351620947631,0.034185519591781,
0.042643391521197005,0.018237287040418868,
0.04269326683291771,0.01922254640853963,
0.0427431421446384,0.011390141339149557,
0.0427930174563591,0.03320688087321293,
0.0428428927680798,-0.008634059878626175,
0.0428927680798005,0.025597741522019116,
0.0429426433915212,0.030862867075316266,
0.042992518703241896,0.01879235581377925,
0.04304239401496259,0.02888569413067433,
0.043092269326683294,0.04676952874367034,
0.04314214463840399,0.035713337746985034,
0.043192019950124685,-0.009844698250209259,
0.04324189526184539,0.03602146299057081,
0.043291770573566084,0.0020749094004026587,
0.043341645885286786,0.02897582148686926,
0.04339152119700748,0.035126111982662946,
0.04344139650872818,0.010475725723820831,
0.04349127182044888,0.0476500026670854,
0.043541147132169576,-0.004567387145805492,
0.04359102244389027,0.05294845896267819,
0.043640897755610975,0.013945031988750826,
0.04369077306733167,0.024965242572032295,
0.043740648379052366,0.01655226613691188,
0.04379052369077307,0.019300389676235957,
0.043840399002493764,0.03295845175537671,
0.04389027431421447,0.0166998776338604,
0.04394014962593516,0.006948240600724912,
0.04399002493765586,0.04128082362126894,
0.04403990024937656,0.04348847823032545,
0.04408977556109726,0.011612539138297897,
0.04413965087281795,0.004018745679940053,
0.044189526184538655,-0.012214639106776976,
0.04423940149625935,0.019239836632750956,
0.04428927680798005,0.013188160623932087,
0.04433915211970075,0.030282125762232177,
0.044389027431421445,0.029725949779257122,
0.04443890274314215,0.057989275535228944,
0.04448877805486284,0.04331952459104153,
0.04453865336658354,-0.0018688933494695227,
0.04458852867830424,-0.00037840526619060955,
0.04463840399002494,0.0432695752935999,
0.04468827930174563,0.030278154883505215,
0.044738154613466335,0.010579764497973576,
0.04478802992518703,0.03124865422442232,
0.044837905236907734,0.008749863789942027,
0.04488778054862843,0.018164981662554,
0.044937655860349125,0.002568903055467097,
0.04498753117206983,0.0061787270357321275,
0.045037406483790524,0.012698341110344097,
0.04508728179551122,0.022629367852937878,
0.04513715710723192,0.044444371916259696,
0.04518703241895262,0.012322763797455182,
0.04523690773067331,0.023761511454438864,
0.045286783042394016,0.012844661890639087,
0.04533665835411471,0.02048870876049591,
0.045386533665835414,0.011244675115465994,
0.04543640897755611,-0.007745361214808125,
0.045486284289276806,0.006724479148539065,
0.04553615960099751,0.04573056715678116,
0.045586034912718204,0.014688780239233257,
0.0456359102244389,-0.0015610462215324417,
0.0456857855361596,0.018994449523389006,
0.0457356608478803,0.021781163708274192,
0.045785536159601,0.01707585749231598,
0.045835411471321696,0.04049356176203443,
0.04588528678304239,-0.0025545637975995864,
0.045935162094763095,0.012552154542070832,
0.04598503740648379,0.013787744569566551,
0.046034912718204486,0.020634866903322106,
0.04608478802992519,0.030556965718560522,
0.046134663341645885,0.015128927890147723,
0.04618453865336658,0.01796597758501793,
0.04623441396508728,0.014849791360534187,
0.04628428927680798,0.01857789695751357,
0.04633416458852868,0.02820550292046975,
0.04638403990024938,0.03579164877380818,
0.04643391521197007,0.039913123560357894,
0.046483790523690775,0.002090171645848538,
0.04653366583541147,0.03411333507501045,
0.04658354114713217,0.012201496801695891,
0.04663341645885287,0.009846598442337848,
0.046683291770573565,-0.002256905047999372,
0.04673316708229427,0.0008001423253683904,
0.04678304239401496,0.018295369677986353,
0.04683291770573566,0.02765373054421747,
0.04688279301745636,0.021822823372185836,
0.04693266832917706,0.021607065264769236,
0.04698254364089775,0.01825387132454578,
0.047032418952618456,0.014150169439878974,
0.04708229426433915,0.016915344853457998,
0.04713216957605985,0.03336431553682102,
0.04718204488778055,0.022471238528027564,
0.047231920199501246,0.0317509106610997,
0.04728179551122195,0.0206870953953042,
0.047331670822942644,0.008746404058339978,
0.04738154613466334,-0.00735161327700759,
0.04743142144638404,0.01975303018664702,
0.04748129675810474,-0.0016937697513901197,
0.047531172069825434,0.02362088871833006,
0.047581047381546136,0.03555800584103265,
0.04763092269326683,-0.008784573238899269,
0.047680798004987535,0.009129542816579062,
0.04773067331670823,0.003895481527285323,
0.047780548628428926,-0.0031352581278956057,
0.04783042394014963,0.023352365699194966,
0.047880299251870324,0.023023447836191827,
0.04793017456359102,0.0209686184122514,
0.04798004987531172,0.006094921216966624,
0.04802992518703242,-0.0011066195583469846,
0.048079800498753114,0.010700797127777533,
0.04812967581047382,0.0020461808652508275,
0.04817955112219451,0.013889383607306304,
0.048229426433915215,-0.002796012616939531,
0.04827930174563591,0.005422846781325366,
0.048329177057356607,0.015307549461341781,
0.04837905236907731,3.5722800930264136e-05,
0.048428927680798005,0.017046626404699627,
0.0484788029925187,-0.008317193519228227,
0.0485286783042394,-0.01524911186290978,
0.0485785536159601,0.005345359019824292,
0.048628428927680795,0.023214702969118227,
0.0486783042394015,0.0018285135732674352,
0.04872817955112219,0.024537880084287093,
0.048778054862842896,0.014894225070414605,
0.04882793017456359,0.019724742447300242,
0.04887780548628429,0.00652884907532285,
0.04892768079800499,0.0139736552749791,
0.048977556109725685,0.0004626347100978043,
0.04902743142144638,-0.00961304098436697,
0.049077306733167084,0.007765213761689017,
0.04912718204488778,-0.008055180116418518,
0.04917705735660848,0.014430852197782826,
0.04922693266832918,0.018204241389953937,
0.04927680798004987,0.02477089362193315,
0.049326683291770576,0.010686915751270407,
0.04937655860349127,-0.002423130818105449,
0.04942643391521197,-0.010940977616640106,
0.04947630922693267,0.022751382407463785,
0.049526184538653366,0.011155980059050306,
0.04957605985037406,0.005126068193220271,
0.049625935162094764,-0.019026640729672195,
0.04967581047381546,-0.004956741598101826,
0.04972568578553616,-0.00711718527365145,
0.04977556109725686,0.012705657580092703,
0.049825436408977554,0.02304648640609629,
0.04987531172069826,-0.01181055970689243,
0.04992518703241895,-0.0046430206116141095,
0.04997506234413965,-0.02615759851324216,
0.05002493765586035,-0.005813212370511643,
0.050074812967581046,-0.02267088811437756,
0.05012468827930175,-0.017885265798497252,
0.050174563591022445,0.01195182813841209,
0.05022443890274314,0.013021977599377593,
0.05027431421446384,-0.00493312034404753,
0.05032418952618454,0.006885347081047669,
0.050374064837905234,-0.0006112471201223232,
0.05042394014962594,-0.024550031410063858,
0.05047381546134663,-0.00983973468788733,
0.05052369077306733,0.005304759689947853,
0.05057356608478803,-0.0035193263019714974,
0.05062344139650873,-0.019865231926694107,
0.05067331670822943,0.005543867732290127,
0.050723192019950125,0.004417383903359619,
0.05077306733167082,-0.014383667626209178,
0.050822942643391524,-0.006961323467695608,
0.05087281795511222,0.011906070907743177,
0.050922693266832915,-0.03390556336586324,
0.05097256857855362,-0.009831250142949402,
0.05102244389027431,-0.01034125345060878,
0.051072319201995016,-0.026514649494911113,
0.05112219451371571,-0.005753644771838795,
0.05117206982543641,0.008408416389510157,
0.05122194513715711,0.0037184497967578996,
0.051271820448877806,-0.010049249952747816,
0.0513216957605985,-0.017490070092244063,
0.051371571072319204,0.008639658656616788,
0.0514214463840399,-0.023492239313131002,
0.051471321695760595,-0.005280930208773818,
0.0515211970074813,0.005232593597209399,
0.051571072319201994,-0.009887522981314721,
0.051620947630922696,-0.02974383987857073,
0.05167082294264339,-0.005700030948480906,
0.05172069825436409,-0.01035485542860131,
0.05177057356608479,0.0196033525604309,
0.051820448877805486,-0.03083816468873106,
0.05187032418952618,-0.009314852328738368,
0.051920199501246884,-0.023068679684082924,
0.05197007481296758,-0.0377896281824151,
0.052019950124688276,-0.008546149520332866,
0.05206982543640898,0.0005601846047711811,
0.052119700748129674,-0.009723395091683592,
0.05216957605985038,-0.002481012090361263,
0.05221945137157107,0.0021884540930191577,
0.05226932668329177,-0.0012360587043301393,
0.05231920199501247,0.0005578108289929617,
0.05236907730673317,-0.006751278552531861,
0.05241895261845386,0.01316844395986562,
0.052468827930174565,-0.029448878338304976,
0.05251870324189526,-0.017193129211690097,
0.05256857855361596,-0.025405253157049758,
0.05261845386533666,-0.021851851065036617,
0.052668329177057355,-0.018784183098319363,
0.05271820448877806,0.0052477669665066395,
0.05276807980049875,-0.014278716149301188,
0.05281795511221945,-0.005999246558237269,
0.05286783042394015,-0.031592943692226795,
0.05291770573566085,-0.009287346523567273,
0.05296758104738154,-0.034311395824753746,
0.053017456359102245,-0.00852781486155409,
0.05306733167082294,0.02589596669235162,
0.053117206982543644,-0.027109884979132054,
0.05316708229426434,-0.03592525910463958,
0.053216957605985035,-0.018866345936803506,
0.05326683291770574,-0.02516718816026778,
0.053316708229426434,-0.032367646374058257,
0.05336658354114713,-0.026861249819231575,
0.05341645885286783,-0.0263629404646057,
0.05346633416458853,-0.046630549208353314,
0.05351620947630923,-0.04114220510233114,
0.053566084788029926,-0.029342000072206796,
0.05361596009975062,-0.006947762061702292,
0.053665835411471324,0.005561362363027289,
0.05371571072319202,-0.009557021697191755,
0.053765586034912716,-0.019530803402160336,
0.05381546134663342,-0.018190890360135513,
0.053865336658354114,-0.01794641038114768,
0.05391521197007481,-0.025028047137237608,
0.05396508728179551,-0.01407751712125524,
0.05401496259351621,0.006082468941763838,
0.05406483790523691,-0.015659408302873986,
0.054114713216957606,-0.025113659346832795,
0.0541645885286783,-0.013582204232859534,
0.054214463840399005,0.00834291390916252,
0.0542643391521197,-0.023781679775831285,
0.054314214463840396,-0.0011694900108022745,
0.0543640897755611,-0.04295637679486619,
0.054413965087281795,-0.011368777274049311,
0.0544638403990025,0.00222541964812952,
0.05451371571072319,0.001508413221644661,
0.05456359102244389,-0.03832282035209056,
0.05461346633416459,-0.006725840856068695,
0.05466334164588529,0.009506815762867375,
0.05471321695760598,-0.020560092392356243,
0.054763092269326685,-0.032848129495102185,
0.05481296758104738,0.020368286618109084,
0.05486284289276808,0.010536709887951924,
0.05491271820448878,-0.0017225049608215956,
0.054962593516209475,-0.022744726961614593,
0.05501246882793018,-0.016110042322461895,
0.05506234413965087,-0.004560004817114901,
0.05511221945137157,-0.011099539659725837,
0.05516209476309227,0.013164668322363899,
0.05521197007481297,-0.030921730075417948,
0.05526184538653366,-0.010331441141087194,
0.055311720698254366,-0.009494243307158198,
0.05536159600997506,-0.01757551927374004,
0.05541147132169576,0.008828924736760443,
0.05546134663341646,-0.040207825992250534,
0.055511221945137156,-0.01798689689374524,
0.05556109725685786,-0.023976090083056165,
0.055610972568578554,-0.03978064285023253,
0.05566084788029925,-0.03642118405878668,
0.05571072319201995,-0.0439612965229811,
0.05576059850374065,0.007125547147858463,
0.055810473815461344,-0.02964179133241319,
0.055860349127182046,0.0019558980315844254,
0.05591022443890274,-0.0022177612369397807,
0.055960099750623445,-0.014584379294796241,
0.05600997506234414,-0.021662761491975942,
0.056059850374064836,0.011497625833730362,
0.05610972568578554,-0.018447281346158424,
0.056159600997506234,-0.0035763041739326545,
0.05620947630922693,-0.018862956611334303,
0.05625935162094763,-0.0072507139745722465,
0.05630922693266833,0.007384587637846576,
0.056359102244389024,-0.01955698637934087,
0.05640897755610973,-0.020992172924454256,
0.05645885286783042,-0.01616333565533849,
0.056508728179551125,-0.009158625427150199,
0.05655860349127182,-0.010058290875211085,
0.056608478802992516,-0.003990545444621787,
0.05665835411471322,0.010458391307742683,
0.056708229426433915,-0.007903992443168674,
0.05675810473815461,-0.018480779426130627,
0.05680798004987531,-0.03141905929766679,
0.05685785536159601,0.010318649263694451,
0.05690773067331671,-0.03448741494059099,
0.05695760598503741,-0.01804432059213221,
0.0570074812967581,-0.002658854886302353,
0.057057356608478806,-0.011806203454620178,
0.0571072319201995,-0.003803456340438661,
0.0571571072319202,-0.007987279606468563,
0.0572069825436409,0.024500480140594208,
0.057256857855361595,-0.021810817747642135,
0.05730673316708229,0.001952535092590019,
0.057356608478802994,-0.03175615846873218,
0.05740648379052369,-0.0030491874891075007,
0.05745635910224439,-0.01826663768651203,
0.05750623441396509,-0.039284650586826536,
0.05755610972568578,0.027188089218592986,
0.057605985037406486,0.008490801884511467,
0.05765586034912718,0.02066590503356744,
0.05770573566084788,-0.013455577582087208,
0.05775561097256858,-0.012716033532171104,
0.057805486284289276,-0.029142892558183694,
0.05785536159600998,0.0019897627800580823,
0.057905236907730674,0.0018259732532047521,
0.05795511221945137,-0.014260122514415045,
0.05800498753117207,-0.0005414086669695603,
0.05805486284289277,-0.005074232862303887,
0.058104738154613464,0.003852996860576356,
0.05815461346633417,-0.021012167365784807,
0.05820448877805486,0.008180876609267782,
0.05825436408977556,0.006801777934249537,
0.05830423940149626,0.006970923496681377,
0.058354114713216956,-0.020564918654474646,
0.05840399002493766,0.005208653132944311,
0.058453865336658355,0.01840592701876308,
0.05850374064837905,-0.031199935697485102,
0.05855361596009975,-0.022052361398692637,
0.05860349127182045,0.01209670781600585,
0.058653366583541144,0.0025234438485552805,
0.05870324189526185,-0.008771392130902212,
0.05875311720698254,0.04069816790151024,
0.05880299251870324,0.0048217069492987145,
0.05885286783042394,0.02270740842105873,
0.05890274314214464,0.001402941607327061,
0.05895261845386534,0.0014878668698800218,
0.059002493765586035,0.004458823979286449,
0.05905236907730673,-0.0070867407021003945,
0.059102244389027433,0.020053209590651596,
0.05915211970074813,-0.005617037815984374,
0.059201995012468825,-0.0021962601953433407,
0.05925187032418953,0.020358456225476263,
0.05930174563591022,0.010094661833161362,
0.059351620947630926,0.020558871741068914,
0.05940149625935162,-0.0005591085987210953,
0.05945137157107232,0.015471041186965562,
0.05950124688279302,0.009614740025824747,
0.059551122194513716,0.0009231738648484717,
0.05960099750623441,0.015520749031389884,
0.059650872817955114,0.01140216568093709,
0.05970074812967581,-0.004578333423243999,
0.059750623441396505,0.011311546443821248,
0.05980049875311721,0.016204238753953656,
0.059850374064837904,0.026398972299478747,
0.059900249376558606,0.02476823859321664,
0.0599501246882793,-0.004763138285976833,
0.06,0.011792572760721348,
0.0600498753117207,0.017721354731650114,
0.060099750623441396,0.021143256829650094,
0.06014962593516209,0.02572965050437892,
0.060199501246882794,0.02295801719212838,
0.06024937655860349,0.004722173186332978,
0.06029925187032419,0.03523608777577043,
0.06034912718204489,0.016523619300126767,
0.060399002493765584,-0.005813733526562236,
0.06044887780548629,0.0016688672681986778,
0.06049875311720698,0.037133697392767714,
0.06054862842892768,-0.007411713280311042,
0.06059850374064838,0.0019802069723692216,
0.06064837905236908,-0.004339618289275614,
0.06069825436408977,0.029520654495651222,
0.060748129675810475,0.009482917311331912,
0.06079800498753117,0.006015892863024281,
0.06084788029925187,-0.0094503763868518,
0.06089775561097257,0.023451914748688373,
0.060947630922693265,0.0169137221048592,
0.06099750623441397,0.023869385871707883,
0.06104738154613466,0.0012904980071878278,
0.06109725685785536,-0.0016022987740757014,
0.06114713216957606,0.017922328742815536,
0.06119700748129676,0.003655748520464323,
0.06124688279301746,0.030383834056192355,
0.061296758104738155,0.032592691135288857,
0.06134663341645885,0.04494675590739189,
0.061396508728179554,0.0068441923190759885,
0.06144638403990025,0.05539440488720469,
0.061496259351620945,0.03544894820383718,
0.06154613466334165,0.01186532319847157,
0.061596009975062344,0.02975318946728422,
0.06164588528678304,0.047361997817149615,
0.06169576059850374,0.012023640703278384,
0.06174563591022444,0.022111813994444098,
0.06179551122194514,0.018769078882852258,
0.061845386533665836,0.045567080146826186,
0.06189526184538653,0.029900927103882945,
0.061945137157107234,0.0349867433292686,
0.06199501246882793,0.01865903077448307,
0.062044887780548626,0.06026690089824413,
0.06209476309226933,0.007040658575089584,
0.062144638403990024,0.019239000348384834,
0.06219451371571072,0.029454900241823085,
0.06224438902743142,0.012619633348141361,
0.06229426433915212,0.016967384078269098,
0.06234413965087282,0.042847418910914856,
0.062394014962593516,0.030307791649553235,
0.06244389027431421,0.022165025396236927,
0.062493765586034915,0.00960713015613617,
0.06254364089775562,0.012966264937912034,
0.06259351620947631,0.06551048611277988,
0.06264339152119701,0.05301959706612049,
0.0626932668329177,0.020842516600525968,
0.0627431421446384,0.0239646857331453,
0.0627930174563591,0.03770045609229099,
0.0628428927680798,0.030892675355255576,
0.0628927680798005,0.0005239165727974199,
0.0629426433915212,0.024657301150514906,
0.06299251870324189,0.0025944405002915095,
0.06304239401496259,0.05814683198577698,
0.0630922693266833,0.010472194460162324,
0.063142144638404,0.03641173511507071,
0.06319201995012469,0.026483525838036717,
0.06324189526184539,0.014537031738980346,
0.06329177057356608,0.052949278921828186,
0.06334164588528678,0.029363285642994952,
0.06339152119700749,0.041602818910753,
0.06344139650872818,0.02691786343352303,
0.06349127182044888,0.04901541364411215,
0.06354114713216957,0.03634523190176593,
0.06359102244389027,0.04849565128057219,
0.06364089775561098,0.028791176611840164,
0.06369077306733167,0.013346418587543329,
0.06374064837905237,0.0063682806819290935,
0.06379052369077307,0.022335691919401702,
0.06384039900249376,0.006903888771557957,
0.06389027431421446,0.06123615609894045,
0.06394014962593517,0.02254022526738947,
0.06399002493765586,0.023156591952762356,
0.06403990024937656,0.031296574814186066,
0.06408977556109725,0.0233755363077901,
0.06413965087281795,0.034083269420277236,
0.06418952618453866,0.012129902393009113,
0.06423940149625935,0.031893402413826134,
0.06428927680798005,0.04219706453849666,
0.06433915211970075,0.03740913454805889,
0.06438902743142144,0.06262861904980269,
0.06443890274314215,0.03646995832460636,
0.06448877805486285,0.00883760575954784,
0.06453865336658354,0.041842433131299296,
0.06458852867830424,0.020437038517554077,
0.06463840399002493,0.007337254403703721,
0.06468827930174563,0.04133650277986846,
0.06473815461346634,0.04222644093057359,
0.06478802992518704,0.028666577110104792,
0.06483790523690773,0.01462533492361727,
0.06488778054862843,0.03618078585150186,
0.06493765586034912,0.005603958301742318,
0.06498753117206983,0.03148812570550032,
0.06503740648379053,0.025060378847601015,
0.06508728179551122,0.045638902760065825,
0.06513715710723192,-0.005583150376435416,
0.06518703241895261,0.029022931644792804,
0.06523690773067331,0.03122103901819435,
0.06528678304239402,0.0033837226501978075,
0.06533665835411472,0.02252560927669954,
0.06538653366583541,0.04135626422133268,
0.06543640897755611,0.04213460021092787,
0.0654862842892768,0.0489412561171749,
0.06553615960099751,0.013984609716686946,
0.06558603491271821,0.04128858709552004,
0.0656359102244389,0.005590418571388877,
0.0656857855361596,0.021431708841574092,
0.0657356608478803,0.027739270446276422,
0.06578553615960099,0.02982796155361072,
0.0658354114713217,0.018485335034220673,
0.0658852867830424,0.025393983769354356,
0.06593516209476309,0.02600143768657158,
0.06598503740648379,0.027504419396287245,
0.06603491271820448,0.03220148401539914,
0.06608478802992519,0.022346424337465816,
0.06613466334164589,0.006698449016854064,
0.06618453865336658,0.016678203229397816,
0.06623441396508728,0.00719073525983167,
0.06628428927680798,0.005429932911251689,
0.06633416458852869,0.05832545700183141,
0.06638403990024938,0.04411118402153652,
0.06643391521197008,0.040695880257401576,
0.06648379052369077,0.007152472581319668,
0.06653366583541147,0.023452785184361634,
0.06658354114713216,0.0031331172069309927,
0.06663341645885287,0.014883619852919031,
0.06668329177057357,0.0512396282228055,
0.06673316708229426,0.003320975659202299,
0.06678304239401496,0.017086573457604247,
0.06683291770573566,0.015487482827180758,
0.06688279301745637,0.023957857987230675,
0.06693266832917706,0.02596814900301172,
0.06698254364089776,0.023909050812698722,
0.06703241895261845,0.0035766573174679135,
0.06708229426433915,0.01197830384898255,
0.06713216957605984,0.021262642512895516,
0.06718204488778055,0.012880236489812683,
0.06723192019950125,-0.0031122289986204935,
0.06728179551122195,0.015869682582868663,
0.06733167082294264,0.018118343375027438,
0.06738154613466334,0.03146889172686507,
0.06743142144638405,0.004392137781314915,
0.06748129675810474,0.03458658881327871,
0.06753117206982544,-0.008954115498761664,
0.06758104738154613,0.022023031584606088,
0.06763092269326683,0.01862663345500687,
0.06768079800498752,0.03766463564061469,
0.06773067331670823,-0.010590493681741808,
0.06778054862842893,0.008401740876158574,
0.06783042394014963,0.034687900501580916,
0.06788029925187032,0.023286801024735328,
0.06793017456359102,0.00510641527517578,
0.06798004987531173,0.007411212269821291,
0.06802992518703242,0.028277958156436397,
0.06807980049875312,0.008651314130699837,
0.06812967581047381,0.022221373488350855,
0.06817955112219451,0.0017842297798355018,
0.0682294264339152,0.00967714966466587,
0.06827930174563591,-0.012174046924014905,
0.06832917705735661,0.011514428144399576,
0.0683790523690773,0.010886070762240078,
0.068428927680798,0.021298277562190236,
0.0684788029925187,0.004547206434831185,
0.06852867830423941,0.012824089729489296,
0.0685785536159601,-0.0032068466611585647,
0.0686284289276808,-0.006412397367819898,
0.0686783042394015,-0.007342019239515904,
0.06872817955112219,0.028014994835715432,
0.0687780548628429,0.041805962528995905,
0.0688279301745636,0.008876829254979983,
0.06887780548628429,-0.024312214302504596,
0.06892768079800499,0.02725730578911191,
0.06897755610972568,0.028564922100133047,
0.06902743142144638,-0.009962717804229136,
0.06907730673316709,0.019172802518296665,
0.06912718204488778,0.006855104369629702,
0.06917705735660848,0.0023652571556887687,
0.06922693266832917,-0.008705315074007116,
0.06927680798004987,0.019988204293457483,
0.06932668329177058,0.005646851920673327,
0.06937655860349128,0.018408798970711213,
0.06942643391521197,-0.02754246511521835,
0.06947630922693267,0.026684465664744673,
0.06952618453865336,0.002839629956893132,
0.06957605985037406,-0.0039116134232885505,
0.06962593516209477,0.008144863430361275,
0.06967581047381546,0.011122639277949084,
0.06972568578553616,-0.009610174037838442,
0.06977556109725686,0.02056992660239727,
0.06982543640897755,0.025146753590464196,
0.06987531172069826,-0.011143299900130296,
0.06992518703241896,0.009003169934032003,
0.06997506234413965,-0.0074243639010581775,
0.07002493765586035,-0.006036079115277543,
0.07007481296758104,-0.017021251189995035,
0.07012468827930174,-0.016917689703849215,
0.07017456359102245,0.015394241956478774,
0.07022443890274314,-0.004800864422645218,
0.07027431421446384,0.011338838986820286,
0.07032418952618454,0.007048479137517484,
0.07037406483790523,-0.019596267969822348,
0.07042394014962594,0.022245425861410605,
0.07047381546134664,-0.00046043476486737995,
0.07052369077306733,0.0051587339441955165,
0.07057356608478803,-0.011828176369438845,
0.07062344139650872,-0.013418145070369928,
0.07067331670822943,-0.011175738113526242,
0.07072319201995013,-0.0014493024746534697,
0.07077306733167082,-0.014052330572366371,
0.07082294264339152,0.0052492078619739806,
0.07087281795511222,0.004445101241593527,
0.07092269326683291,-0.012510545430404349,
0.07097256857855362,-0.006373272280747627,
0.07102244389027432,-0.04656859008791228,
0.07107231920199501,-0.009003512038727787,
0.07112219451371571,-0.008428157063659304,
0.0711720698254364,-0.011658484991805017,
0.07122194513715711,-0.016814809111211512,
0.07127182044887781,0.01698097147821136,
0.0713216957605985,0.021927892668368767,
0.0713715710723192,-0.0015754414060041941,
0.0714214463840399,-0.0020016855270948283,
0.07147132169576059,-0.01048488424910172,
0.0715211970074813,-0.005019595493968498,
0.071571072319202,-0.016292790966164265,
0.0716209476309227,-0.018373224165955358,
0.07167082294264339,0.0046400294448955826,
0.07172069825436408,-0.00481519272555819,
0.0717705735660848,-0.0002158386519071371,
0.07182044887780549,-0.0025725065807444426,
0.07187032418952619,-0.004948050176803855,
0.07192019950124688,-0.03534800669270047,
0.07197007481296758,-0.0024388408170313847,
0.07201995012468827,-0.00249038945708846,
0.07206982543640898,-0.01116875604321249,
0.07211970074812968,-0.02326137759281871,
0.07216957605985037,-0.016408049938504213,
0.07221945137157107,-0.005600478851388334,
0.07226932668329177,-0.020704489879826864,
0.07231920199501247,0.02335402197781689,
0.07236907730673317,-0.023734154327217143,
0.07241895261845387,-0.0040881625795063155,
0.07246882793017456,-0.04289835329877632,
0.07251870324189526,0.01692834499144648,
0.07256857855361595,0.0008114211882619942,
0.07261845386533666,-0.0006978004157993187,
0.07266832917705736,-0.0316911871116413,
0.07271820448877805,-0.01992198220827792,
0.07276807980049875,-0.010487622911899457,
0.07281795511221945,-0.01743297834775568,
0.07286783042394016,-0.017815022213315497,
0.07291770573566085,0.003347409666159158,
0.07296758104738155,-0.02035203858907072,
0.07301745635910224,-0.014972008646051627,
0.07306733167082294,0.008876032900859285,
0.07311720698254365,-0.029470843705573353,
0.07316708229426434,-0.010952669770284952,
0.07321695760598504,-0.00880896490252654,
0.07326683291770573,-0.01948896095895828,
0.07331670822942643,0.00017292848837963636,
0.07336658354114713,-0.027157266213108,
0.07341645885286784,-0.02532788258716072,
0.07346633416458853,-0.0326332941422821,
0.07351620947630923,-0.0018419937827114374,
0.07356608478802992,-0.007689519890450664,
0.07361596009975062,-0.008984034533727966,
0.07366583541147133,0.013432771410859932,
0.07371571072319202,-0.006560615188389742,
0.07376558603491272,-0.0003770390599946369,
0.07381546134663342,-0.01277659523239859,
0.07386533665835411,-0.01635976430079968,
0.0739152119700748,-0.009812130550019364,
0.07396508728179552,0.01490085247237698,
0.07401496259351621,-0.004885744845694028,
0.07406483790523691,-0.016030495311685843,
0.0741147132169576,0.007473993732717628,
0.0741645885286783,-0.016180055843942213,
0.07421446384039901,-0.0331171062406338,
0.0742643391521197,-0.02625387776080695,
0.0743142144638404,-0.010426871910698354,
0.0743640897755611,-0.006742962525800389,
0.07441396508728179,-0.018358380967627163,
0.07446384039900249,-0.005787416266363794,
0.0745137157107232,-0.006049957499351813,
0.07456359102244389,-0.006163005771378523,
0.07461346633416459,-0.01152270764263915,
0.07466334164588528,-0.023462851404383703,
0.07471321695760598,-0.0029046714187298452,
0.07476309226932669,-0.012206770657691594,
0.07481296758104738,-0.02669307126076067,
0.07486284289276808,-0.02309669465797498,
0.07491271820448878,-0.0016904079871346168,
0.07496259351620947,-0.0025441338276688714,
0.07501246882793017,-0.02690453845330002,
0.07506234413965088,-0.013529654734750839,
0.07511221945137157,-0.03929037830237029,
0.07516209476309227,0.006632290526135332,
0.07521197007481296,0.009785939272112985,
0.07526184538653366,-0.016377434233895056,
0.07531172069825437,-0.02272177085718759,
0.07536159600997507,-0.0086906876103789,
0.07541147132169576,-0.01866998555365511,
0.07546134663341646,0.008063687859794232,
0.07551122194513715,-0.022482598751643365,
0.07556109725685786,-0.005455986472425785,
0.07561097256857856,-0.0419201652563478,
0.07566084788029925,-0.011759000934472106,
0.07571072319201995,-0.00017789068941799838,
0.07576059850374064,-0.021105065497561915,
0.07581047381546134,-0.022479365711313412,
0.07586034912718205,-0.003099376983123443,
0.07591022443890275,-0.02760802280743249,
0.07596009975062344,-0.01940140238659804,
0.07600997506234414,0.004137936612553735,
0.07605985037406483,-0.0057490481155089675,
0.07610972568578554,-0.020514773453190853,
0.07615960099750624,-0.01327560977430854,
0.07620947630922693,-0.006783840564645937,
0.07625935162094763,0.0007597674310420039,
0.07630922693266833,0.0018373046635372318,
0.07635910224438902,-0.014383947602789233,
0.07640897755610973,0.0033360647467534123,
0.07645885286783043,-0.010123668853559073,
0.07650872817955112,-0.020116779796997775,
0.07655860349127182,-0.02715557818024102,
0.07660847880299251,-0.01261595217357024,
0.07665835411471322,0.007713438461536472,
0.07670822942643392,-0.004293527133150579,
0.07675810473815461,0.025218002093542805,
0.07680798004987531,-0.020431282362291584,
0.076857855361596,0.003847488450381736,
0.0769077306733167,-0.019990304029464355,
0.07695760598503741,-0.005810129531100969,
0.0770074812967581,0.007306370044684721,
0.0770573566084788,0.005197594638257694,
0.0771072319201995,0.008534316115943314,
0.0771571072319202,-0.0036287890176011587,
0.0772069825436409,0.040965917035363404,
0.0772568578553616,0.0031377817849068687,
0.0773067331670823,0.01145637242533467,
0.07735660847880299,-0.006636132983000106,
0.07740648379052369,-0.02524036186529152,
0.0774563591022444,-0.0019436115438382572,
0.07750623441396509,0.0073388848172450455,
0.07755610972568579,0.01326799964097228,
0.07760598503740648,0.0019178796006334084,
0.07765586034912718,0.001389748548756337,
0.07770573566084787,-0.009197307630799016,
0.07775561097256858,-0.0019399903645637919,
0.07780548628428928,-0.00659348979273674,
0.07785536159600998,-0.03770298211384602,
0.07790523690773067,0.006172539066244543,
0.07795511221945137,0.0057545384175115765,
0.07800498753117208,-0.04432933839455237,
0.07805486284289277,0.009271161422858595,
0.07810473815461347,0.002619419554182232,
0.07815461346633416,-0.007546610225125786,
0.07820448877805486,0.015144548246694957,
0.07825436408977555,-0.0035292580484667423,
0.07830423940149626,-0.01758447514616455,
0.07835411471321696,-0.017832938917503427,
0.07840399002493766,0.012283030094546735,
0.07845386533665835,0.005284890243866807,
0.07850374064837905,0.006003211902400216,
0.07855361596009976,0.018896543107085887,
0.07860349127182045,0.002170478611183803,
0.07865336658354115,-0.012103780188566182,
0.07870324189526184,-0.001962014862029274,
0.07875311720698254,-0.03412568085322883,
0.07880299251870324,-0.029079670839230548,
0.07885286783042394,0.006181891972567206,
0.07890274314214464,0.00859970368453485,
0.07895261845386534,0.005330272057995451,
0.07900249376558603,-0.02120585539395673,
0.07905236907730673,0.019525026414372898,
0.07910224438902744,-0.0016576239794105045,
0.07915211970074813,0.007118084431714476,
0.07920199501246883,0.015639646759135564,
0.07925187032418952,0.011617440385942791,
0.07930174563591022,0.015616273273027031,
0.07935162094763092,0.003172432304915122,
0.07940149625935163,0.001811501124690201,
0.07945137157107232,-0.015753252432907545,
0.07950124688279302,0.01682468305210847,
0.07955112219451371,0.014743451186505739,
0.07960099750623441,-0.0018428435725923436,
0.07965087281795512,-0.0012642642325081423,
0.07970074812967581,0.01414478193776668,
0.07975062344139651,0.012119658062688625,
0.0798004987531172,-0.002323932420882026,
0.0798503740648379,0.02588595429168835,
0.07990024937655861,-0.0004177253313332966,
0.0799501246882793,-0.009162849594638017,
0.08,0.02780131466913721,
0.0800498753117207,-0.002674690578754687,
0.0800997506234414,0.0028953554399422637,
0.08014962593516209,0.0011927511209989979,
0.0801995012468828,0.013710066477635464,
0.0802493765586035,0.004505474802343368,
0.08029925187032419,0.011527372650843812,
0.08034912718204489,0.0032331381959242542,
0.08039900249376558,-0.0034094671746653787,
0.08044887780548629,-0.0033458616016464916,
0.08049875311720699,0.018123430391874567,
0.08054862842892768,0.017367384249905526,
0.08059850374064838,0.02169621285137842,
0.08064837905236907,0.01353145794588274,
0.08069825436408977,0.011180632837264398,
0.08074812967581048,0.021630454160480365,
0.08079800498753117,0.01640781189362461,
0.08084788029925187,0.011438239483823588,
0.08089775561097257,0.031907700077640655,
0.08094763092269326,-0.01145371561099522,
0.08099750623441397,0.003546933375545182,
0.08104738154613467,0.0016968687436025552,
0.08109725685785536,-0.008189925727522609,
0.08114713216957606,0.0016131959721844072,
0.08119700748129675,0.005488215977317707,
0.08124688279301745,0.023721652168691224,
0.08129675810473816,0.03549217511160996,
0.08134663341645886,0.01731506857263148,
0.08139650872817955,0.005208660900842255,
0.08144638403990025,0.021881777315240727,
0.08149625935162094,0.03588399567175376,
0.08154613466334165,0.010935264818158605,
0.08159600997506235,-0.006324375394131613,
0.08164588528678304,0.03453751283695629,
0.08169576059850374,0.005116788712599699,
0.08174563591022443,0.015604834993070934,
0.08179551122194513,0.024039951386937097,
0.08184538653366584,0.020493925564650246,
0.08189526184538654,0.03280159375417077,
0.08194513715710723,0.04359197688893958,
0.08199501246882793,0.03122407699788624,
0.08204488778054862,0.005810047354163871,
0.08209476309226933,0.016339960946828762,
0.08214463840399003,0.027115963188010177,
0.08219451371571072,0.040406267143234365,
0.08224438902743142,0.010789584175792942,
0.08229426433915212,0.026951319580204462,
0.08234413965087282,0.03284351721110346,
0.08239401496259352,0.03558915184516759,
0.08244389027431422,-0.002128941266907363,
0.08249376558603491,0.031687835296060174,
0.08254364089775561,0.04173782312856414,
0.0825935162094763,0.016089337969273955,
0.08264339152119701,0.010331106418904895,
0.08269326683291771,0.015761393175858257,
0.0827431421446384,0.030467372302868084,
0.0827930174563591,0.0266543859526601,
0.0828428927680798,0.03483749503193062,
0.0828927680798005,0.01618078719735897,
0.0829426433915212,0.05022806244254291,
0.0829925187032419,0.0256872922014892,
0.08304239401496259,0.007590218206066372,
0.08309226932668329,0.03830388874899653,
0.08314214463840398,0.031236946159323733,
0.0831920199501247,0.0417823322187232,
0.08324189526184539,0.045943529972462135,
0.08329177057356608,0.01143973972266394,
0.08334164588528678,0.037916066308653656,
0.08339152119700748,0.02590676982478685,
0.08344139650872819,0.01711153819471896,
0.08349127182044888,0.004131629276893114,
0.08354114713216958,0.0028356600964630045,
0.08359102244389027,0.0351748164117111,
0.08364089775561097,0.04444369094866189,
0.08369077306733166,0.03415700403245753,
0.08374064837905237,-0.01790313072362365,
0.08379052369077307,0.019539297263868223,
0.08384039900249377,0.013850820233922034,
0.08389027431421446,0.03542491343791859,
0.08394014962593516,0.009082401699138917,
0.08399002493765587,0.032992334804976015,
0.08403990024937656,0.05031635704095751,
0.08408977556109726,0.02004229059819309,
0.08413965087281795,0.025391326270814755,
0.08418952618453865,0.04920975796732594,
0.08423940149625936,0.010282152945634008,
0.08428927680798005,0.046694232611464694,
0.08433915211970075,0.02594688060596173,
0.08438902743142145,0.0051634749037501385,
0.08443890274314214,0.06399393379961377,
0.08448877805486284,0.004481017907139499,
0.08453865336658355,0.04545714942658551,
0.08458852867830424,0.01415777470635958,
0.08463840399002494,0.05562651291928193,
0.08468827930174563,0.01882481292870241,
0.08473815461346633,0.022344223210625326,
0.08478802992518704,0.03922705777977073,
0.08483790523690773,0.03553034776524003,
0.08488778054862843,0.006758118154146543,
0.08493765586034913,0.022930261282877347,
0.08498753117206982,0.030638618419975002,
0.08503740648379052,-0.005323944797640454,
0.08508728179551123,-0.007067604779454804,
0.08513715710723192,0.0021838240105106106,
0.08518703241895262,0.017983002010695533,
0.08523690773067331,0.02728149293034674,
0.08528678304239401,0.02539360358139347,
0.08533665835411472,0.016510254569850884,
0.08538653366583542,0.031073424353171328,
0.08543640897755611,0.019519410000062496,
0.0854862842892768,0.010615026357519545,
0.0855361596009975,0.04688227339397355,
0.0855860349127182,0.024036855304582844,
0.08563591022443891,0.033475917474910175,
0.0856857855361596,0.042865420017307226,
0.0857356608478803,0.03205977526412204,
0.085785536159601,0.03817078950655964,
0.08583541147132169,-0.0074446945473558256,
0.0858852867830424,0.024505362352769025,
0.0859351620947631,0.03554509721777514,
0.08598503740648379,0.031684741988899756,
0.08603491271820449,0.0380074021718457,
0.08608478802992518,0.02135552663065957,
0.08613466334164588,0.025671326470434467,
0.08618453865336659,0.017371044268330676,
0.08623441396508728,0.011917991169918879,
0.08628428927680798,0.03695392015082281,
0.08633416458852868,0.045950082931999016,
0.08638403990024937,0.011058403996973588,
0.08643391521197008,0.022502303158136824,
0.08648379052369078,0.014237521647316488,
0.08653366583541147,0.024905066034837456,
0.08658354114713217,0.011368685511162971,
0.08663341645885286,0.030519781472130282,
0.08668329177057357,0.004630682889939272,
0.08673316708229427,0.018494062307074233,
0.08678304239401496,0.01853124759693047,
0.08683291770573566,-0.01754007944759786,
0.08688279301745636,0.04520525814127324,
0.08693266832917705,0.032981299532539164,
0.08698254364089776,0.01328881252137669,
0.08703241895261846,0.024158445987026107,
0.08708229426433915,0.04910017699982666,
0.08713216957605985,0.0016864050282191304,
0.08718204488778054,0.005706420950455126,
0.08723192019950125,0.00864252941088771,
0.08728179551122195,0.021745216537361316,
0.08733167082294264,0.02756880529838515,
0.08738154613466334,0.007974066790838091,
0.08743142144638404,0.026668850272171696,
0.08748129675810473,0.005800774863502986,
0.08753117206982544,0.05440262954878141,
0.08758104738154614,0.023874825075660213,
0.08763092269326683,0.0163422713220588,
0.08768079800498753,0.0304857260449616,
0.08773067331670822,0.008084617987933928,
0.08778054862842893,-0.008085908613993671,
0.08783042394014963,0.028084894427410113,
0.08788029925187033,0.007356629680143758,
0.08793017456359102,0.009364343551040722,
0.08798004987531172,0.04764912417127187,
0.08802992518703241,-0.0005215889039075685,
0.08807980049875312,0.04436273556996109,
0.08812967581047382,0.0028499093605564574,
0.08817955112219451,-0.002058139041881034,
0.08822942643391521,0.015428642871634594,
0.0882793017456359,0.01141250980533457,
0.08832917705735661,0.01187832559449008,
0.08837905236907731,-0.006754875116392445,
0.088428927680798,0.002506192820112176,
0.0884788029925187,0.016874722272784373,
0.0885286783042394,0.018225746813407353,
0.0885785536159601,0.004915370519789063,
0.0886284289276808,-0.012943286889327978,
0.0886783042394015,0.005658526291390346,
0.0887281795511222,0.021077636627537893,
0.08877805486284289,0.006585869048045237,
0.08882793017456359,0.015248139674266277,
0.0888778054862843,0.007699623602670222,
0.08892768079800499,-0.01661843731221085,
0.08897755610972569,-0.005363714237773311,
0.08902743142144638,-0.004416710126299438,
0.08907730673316708,0.025878434308842603,
0.08912718204488779,0.007892020864955832,
0.08917705735660848,0.007300406312832372,
0.08922693266832918,-0.004130250689791934,
0.08927680798004987,-0.007594687578634979,
0.08932668329177057,0.013022840397358825,
0.08937655860349127,-0.016985390519223615,
0.08942643391521198,0.003704282363292906,
0.08947630922693267,0.015414894159955235,
0.08952618453865337,-0.0044386584070006205,
0.08957605985037406,0.0021876894118450082,
0.08962593516209476,-0.008215667087970682,
0.08967581047381547,0.00779977071082637,
0.08972568578553616,-0.02142385311929479,
0.08977556109725686,-0.01421086605785897,
0.08982543640897755,-0.014937321134599849,
0.08987531172069825,-0.00803236940178749,
0.08992518703241895,0.01150711193751135,
0.08997506234413966,0.001539109035781896,
0.09002493765586035,0.007144546036575261,
0.09007481296758105,-0.012347054426573818,
0.09012468827930174,-0.010175213282642434,
0.09017456359102244,0.007708746026537352,
0.09022443890274315,0.0046865138525159925,
0.09027431421446384,-0.00958857799127542,
0.09032418952618454,-0.01838443565898037,
0.09037406483790524,-0.025720565327424193,
0.09042394014962593,0.0072675030405385185,
0.09047381546134663,0.003773411288954748,
0.09052369077306734,-0.014805054509517095,
0.09057356608478803,-0.0013037859673535447,
0.09062344139650873,-0.0012147371725008253,
0.09067331670822942,0.006850933910255752,
0.09072319201995012,-0.01105625794760421,
0.09077306733167083,-0.0017841690621187099,
0.09082294264339152,-0.004908711687943117,
0.09087281795511222,-0.00899068995664886,
0.09092269326683292,-0.02231443168695834,
0.09097256857855361,0.0027497202049564535,
0.09102244389027432,-0.012021718138637862,
0.09107231920199502,-0.005600933887829858,
0.09112219451371571,0.021323734749368467,
0.09117206982543641,0.005217246776608121,
0.0912219451371571,-0.026511909303212268,
0.0912718204488778,-0.028739204837004755,
0.09132169576059851,-0.015474915390503313,
0.0913715710723192,-0.01700754264128171,
0.0914214463840399,-0.04036252504960174,
0.0914713216957606,-0.007031571700141684,
0.09152119700748129,-0.04245393299575132,
0.091571072319202,-0.006399758203612164,
0.0916209476309227,0.0014660988174509011,
0.09167082294264339,-0.0158555784794994,
0.09172069825436409,-0.0355873273103369,
0.09177057356608478,-0.0066580907044293605,
0.09182044887780548,-0.017047832581129747,
0.09187032418952619,0.002250462173008812,
0.09192019950124689,-0.011624395048874235,
0.09197007481296758,-0.000827203143087438,
0.09201995012468828,-0.0310593639499045,
0.09206982543640897,-0.020719165919938873,
0.09211970074812968,-0.010076584632745939,
0.09216957605985038,-0.010017257478640072,
0.09221945137157107,-0.004028572668703663,
0.09226932668329177,0.0021820838466640718,
0.09231920199501246,0.012502191617691127,
0.09236907730673316,-0.01225872845256081,
0.09241895261845387,-0.0416865735846252,
0.09246882793017457,-0.003937025990183888,
0.09251870324189526,-0.012201825726046101,
0.09256857855361596,0.00605507427688429,
0.09261845386533665,-0.03781887616574322,
0.09266832917705736,0.0004805701418268797,
0.09271820448877806,-0.026477819655430716,
0.09276807980049875,0.01263246237589239,
0.09281795511221945,-0.00509412256175354,
0.09286783042394015,-0.004790116241885593,
0.09291770573566084,-0.01107069184210839,
0.09296758104738155,-0.02555650984681241,
0.09301745635910225,-0.011676942292620694,
0.09306733167082294,0.004044547797032942,
0.09311720698254364,-0.00023622629043295804,
0.09316708229426433,-0.010107583437153473,
0.09321695760598504,0.002577967583965569,
0.09326683291770574,-0.02272351635380106,
0.09331670822942643,-0.019578264885119497,
0.09336658354114713,0.003924488468384359,
0.09341645885286783,-0.001965621146953129,
0.09346633416458854,-0.03329030518142667,
0.09351620947630923,-0.01956869615194435,
0.09356608478802993,-0.011238758742435472,
0.09361596009975062,0.005486098764182507,
0.09366583541147132,-0.020084237243159872,
0.09371571072319201,-0.01575263666320237,
0.09376558603491272,0.009305294440039281,
0.09381546134663342,-0.00017564057013687642,
0.09386533665835411,-0.00455986564543559,
0.09391521197007481,-0.010185185503397452,
0.0939650872817955,-0.01698047037446544,
0.09401496259351622,-0.03680592340268156,
0.09406483790523691,0.0009560905250242391,
0.09411471321695761,-0.008010052087016564,
0.0941645885286783,0.01389612538776467,
0.094214463840399,-0.018516747338069635,
0.0942643391521197,-0.031512686726981286,
0.0943142144638404,-0.009855042024464735,
0.0943640897755611,-0.01221497903125683,
0.0944139650872818,0.004888563170152214,
0.09446384039900249,0.025590163969391087,
0.09451371571072319,-0.01429573062450833,
0.0945635910224439,-0.0026074252068966804,
0.09461346633416459,0.001802814122067755,
0.09466334164588529,0.0031557363163648103,
0.09471321695760598,-0.00466010421261923,
0.09476309226932668,-0.025445573611208906,
0.09481296758104737,-0.00443365844952289,
0.09486284289276808,0.0031018129652552375,
0.09491271820448878,0.029397144455599475,
0.09496259351620948,-0.008688834564904772,
0.09501246882793017,-0.021363754083528107,
0.09506234413965087,0.004364314973533262,
0.09511221945137158,-0.007100061761570615,
0.09516209476309227,0.008559004807752492,
0.09521197007481297,-0.019871644650259174,
0.09526184538653366,0.001171726680624225,
0.09531172069825436,-0.028088956693487543,
0.09536159600997507,0.001937897385601602,
0.09541147132169576,-0.0237338470914431,
0.09546134663341646,0.0035458162068747103,
0.09551122194513716,-0.026448266706652047,
0.09556109725685785,-0.005062120055520841,
0.09561097256857855,-0.019812980230752973,
0.09566084788029926,-0.012214677418835461,
0.09571072319201995,-0.001717261635168641,
0.09576059850374065,-0.006257894021350087,
0.09581047381546134,-0.03408148891366359,
0.09586034912718204,-0.0032403642454013736,
0.09591022443890275,-0.008989199629147107,
0.09596009975062345,-0.030271990819396032,
0.09600997506234414,-0.015943679135141067,
0.09605985037406484,-0.009585092167858082,
0.09610972568578553,0.007121743302153181,
0.09615960099750623,-0.016679843068361587,
0.09620947630922694,-0.025299210085345882,
0.09625935162094763,-0.03502978961428002,
0.09630922693266833,0.009883137672311325,
0.09635910224438902,0.015963056603655556,
0.09640897755610972,-0.05087779377415344,
0.09645885286783043,0.0032697201460456307,
0.09650872817955113,-0.03826776094727402,
0.09655860349127182,0.01958269954980644,
0.09660847880299252,-0.01421392973935617,
0.09665835411471321,0.01100123643083134,
0.09670822942643391,-0.005462442496672221,
0.09675810473815462,0.006711071446403357,
0.09680798004987531,0.007883531731967113,
0.09685785536159601,-0.008825813080780783,
0.0969077306733167,0.001711819124283068,
0.0969576059850374,-0.009655750791416964,
0.09700748129675811,0.029817614453485408,
0.0970573566084788,-0.0340153626694797,
0.0971072319201995,-0.006671168975529225,
0.0971571072319202,0.02438261315239023,
0.0972069825436409,-0.014152231324514713,
0.09725685785536159,-0.029693465310772087,
0.0973067331670823,0.01975057169644471,
0.097356608478803,-0.004390730131278293,
0.09740648379052369,0.005030355719912751,
0.09745635910224439,0.002195093944670377,
0.09750623441396508,0.010842942951704779,
0.09755610972568579,-0.009262658714443294,
0.09760598503740649,0.002706558944286196,
0.09765586034912718,-0.01342296857530094,
0.09770573566084788,0.009280795216296107,
0.09775561097256857,0.015487866536304472,
0.09780548628428928,0.013662855834015813,
0.09785536159600998,-0.011224607027485432,
0.09790523690773068,-0.013019660424087936,
0.09795511221945137,-0.006124306633755403,
0.09800498753117207,0.003537017932969612,
0.09805486284289276,0.02674216876640806,
0.09810473815461347,0.01564457290346289,
0.09815461346633417,0.02211307239250812,
0.09820448877805486,0.010442247345875387,
0.09825436408977556,0.004598261373039363,
0.09830423940149625,0.025067366065819885,
0.09835411471321696,0.02039375683712262,
0.09840399002493766,-0.019615938501425505,
0.09845386533665836,-0.013942911101362638,
0.09850374064837905,0.0008566725396840702,
0.09855361596009975,0.0228078326892154,
0.09860349127182044,0.012966042485566827,
0.09865336658354115,0.01625224944982817,
0.09870324189526185,0.019291845665500972,
0.09875311720698254,0.0006438664682832688,
0.09880299251870324,0.02394688286000849,
0.09885286783042393,0.010203578802377631,
0.09890274314214464,0.013561538077918649,
0.09895261845386534,0.008267218426542865,
0.09900249376558604,0.013876335051984037,
0.09905236907730673,0.020829311082259848,
0.09910224438902743,0.017832384955500102,
0.09915211970074812,-0.005575332360434863,
0.09920199501246883,-0.015024387635284478,
0.09925187032418953,0.0010928361595408161,
0.09930174563591022,0.0014441365523960477,
0.09935162094763092,0.02594677918321621,
0.09940149625935162,0.030826565281015406,
0.09945137157107233,-0.0026851842007359697,
0.09950124688279302,0.006151837746804065,
0.09955112219451372,-0.005608013701719972,
0.09960099750623441,0.0259611744224309,
0.09965087281795511,0.0033450924462157614,
0.0997007481296758,0.0012793761821592534,
0.09975062344139651,0.026808458666886754,
0.09980049875311721,0.0009765438707332753,
0.0998503740648379,0.01152934304540912,
0.0999002493765586,0.015155526903407837,
0.0999501246882793,-0.006822086211065849,
0.1,0.015673757583020986,
0.1000498753117207,0.02600524303573533,
0.1000997506234414,0.015024617616249071,
0.10014962593516209,0.03610333474825075,
0.10019950124688279,0.010887269234772085,
0.1002493765586035,0.008373339808119225,
0.1002992518703242,0.0314431459727623,
0.10034912718204489,0.01321342265924557,
0.10039900249376559,0.0055373100918350345,
0.10044887780548628,0.017915173849054125,
0.10049875311720698,0.004808291035588821,
0.10054862842892769,0.020314861991081984,
0.10059850374064838,0.01782380023900804,
0.10064837905236908,0.013278315370502648,
0.10069825436408977,0.018681933458136825,
0.10074812967581047,0.03552639947770796,
0.10079800498753118,0.01871728530207656,
0.10084788029925187,0.038176328448215203,
0.10089775561097257,0.01138573141961006,
0.10094763092269327,0.011954459236879315,
0.10099750623441396,0.0228338726368378,
0.10104738154613466,0.011873298293854237,
0.10109725685785537,0.02947201168170307,
0.10114713216957606,0.003082691647924251,
0.10119700748129676,0.03348667298522241,
0.10124688279301745,0.05436130071595899,
0.10129675810473815,0.021662218338976188,
0.10134663341645886,0.00207712061526941,
0.10139650872817955,0.030152071466666187,
0.10144638403990025,0.0321825182754676,
0.10149625935162095,0.03396962510535185,
0.10154613466334164,0.04301249719084632,
0.10159600997506234,0.02396958645648228,
0.10164588528678305,0.03453154879688752,
0.10169576059850374,0.015051319915248502,
0.10174563591022444,0.027801460931572368,
0.10179551122194513,0.035385526439840165,
0.10184538653366583,0.01168143735277774,
0.10189526184538654,0.021990101281551412,
0.10194513715710724,0.02177810747504071,
0.10199501246882793,-0.004265945874724571,
0.10204488778054863,-0.005154848385925025,
0.10209476309226932,0.023515565690421427,
0.10214463840399003,0.048010462415090424,
0.10219451371571073,0.03157750106766314,
0.10224438902743142,0.022046394911892538,
0.10229426433915212,0.050998343068347364,
0.10234413965087281,0.009593701597302457,
0.10239401496259351,0.02859705861828291,
0.10244389027431422,0.04062681226552092,
0.10249376558603492,0.011906878026186318,
0.10254364089775561,0.031397462448109564,
0.10259351620947631,0.0057856047423286185,
0.102643391521197,0.03612792286649694,
0.10269326683291771,0.04787042830648352,
0.10274314214463841,0.0098939056796774,
0.1027930174563591,0.021545055792447882,
0.1028428927680798,0.008636222191942267,
0.1028927680798005,0.036005947319156635,
0.10294264339152119,0.0164632838794996,
0.1029925187032419,0.004671010629061306,
0.1030423940149626,0.01548722341784811,
0.10309226932668329,0.024943303055038637,
0.10314214463840399,0.02691939267607825,
0.10319201995012468,0.034964899476319485,
0.10324189526184539,0.026442107096737895,
0.10329177057356609,0.03732296683922061,
0.10334164588528678,0.037618207927693985,
0.10339152119700748,0.050750505892188665,
0.10344139650872818,0.01915700589552398,
0.10349127182044887,0.022494284360109206,
0.10354114713216958,0.04251266181526547,
0.10359102244389028,0.02570265832578607,
0.10364089775561097,0.011214779145090604,
0.10369077306733167,0.044429729605873464,
0.10374064837905236,0.010945113662019852,
0.10379052369077307,0.01734864018166035,
0.10384039900249377,0.010532096378576949,
0.10389027431421446,0.025198562356675846,
0.10394014962593516,0.04091776323029738,
0.10399002493765586,0.04699233291528547,
0.10403990024937655,0.026365124820227327,
0.10408977556109726,0.028855010209052765,
0.10413965087281796,0.005086194523004593,
0.10418952618453865,0.05512590881325542,
0.10423940149625935,0.039730717319251915,
0.10428927680798004,0.015029372769700091,
0.10433915211970075,0.01290697315373751,
0.10438902743142145,0.04974991288094627,
0.10443890274314215,0.047122615006637544,
0.10448877805486284,0.04496915629564838,
0.10453865336658354,0.0322070246404572,
0.10458852867830425,0.010081888321991955,
0.10463840399002494,0.02882286430375861,
0.10468827930174564,0.028780689499130308,
0.10473815461346633,0.020805094989650066,
0.10478802992518703,0.0040832788072757455,
0.10483790523690772,0.030052619678982553,
0.10488778054862843,0.02740434993705658,
0.10493765586034913,0.04021944418674995,
0.10498753117206983,-0.01444207058441159,
0.10503740648379052,0.03363390412152405,
0.10508728179551122,0.008798455774905376,
0.10513715710723193,0.013763797081347206,
0.10518703241895262,0.052932186223006675,
0.10523690773067332,0.028275176354916904,
0.10528678304239401,0.02436335943723795,
0.10533665835411471,-0.011001230915790253,
0.1053865336658354,0.029525166249079388,
0.10543640897755611,0.04584234244745737,
0.10548628428927681,-0.0033374975191060585,
0.1055361596009975,0.015960873551291832,
0.1055860349127182,0.036394991754808315,
0.1056359102244389,0.008176308857552217,
0.10568578553615961,0.05606606536313899,
0.1057356608478803,0.03607758252552562,
0.105785536159601,0.045372825758443286,
0.1058354114713217,0.029863000442742153,
0.10588528678304239,0.03394599426702771,
0.10593516209476309,0.018410077295271155,
0.1059850374064838,0.05096299173333878,
0.10603491271820449,0.0171240486971279,
0.10608478802992519,0.017587431996333114,
0.10613466334164588,0.04157855964697528,
0.10618453865336658,0.018762682786691458,
0.10623441396508729,0.03778360076729967,
0.10628428927680798,0.03617415262372715,
0.10633416458852868,0.046802717554181104,
0.10638403990024937,0.009413941205761394,
0.10643391521197007,0.03274754028704524,
0.10648379052369077,0.017391193054643025,
0.10653366583541148,0.025752072452240243,
0.10658354114713217,0.038680534467368376,
0.10663341645885287,0.015822802746035085,
0.10668329177057356,0.013715093972118186,
0.10673316708229426,0.020773776615491207,
0.10678304239401497,0.0007262272515106763,
0.10683291770573566,0.004522514922393309,
0.10688279301745636,0.004259121688950082,
0.10693266832917706,0.049744112257981005,
0.10698254364089775,-0.001856192368278612,
0.10703241895261846,0.0406604405475209,
0.10708229426433916,0.04827318041047737,
0.10713216957605985,0.04860053160254359,
0.10718204488778055,0.015394408355717962,
0.10723192019950124,0.026852173113853232,
0.10728179551122194,0.023323395315096168,
0.10733167082294265,-0.024646775697478238,
0.10738154613466334,0.022672426734728267,
0.10743142144638404,0.03357817580992781,
0.10748129675810474,0.006251765918734047,
0.10753117206982543,0.02360295049651132,
0.10758104738154614,0.007815158497612785,
0.10763092269326684,-0.005422999637564409,
0.10768079800498753,0.00372793418468928,
0.10773067331670823,0.020439558623841707,
0.10778054862842892,0.018785828982446497,
0.10783042394014962,0.003953026180442928,
0.10788029925187033,0.01743086764019522,
0.10793017456359102,0.016359247915182534,
0.10798004987531172,0.020141609603457934,
0.10802992518703242,0.005074492872398587,
0.10807980049875311,-0.006365375926568748,
0.10812967581047382,0.01174405688783212,
0.10817955112219452,0.019248834320979794,
0.10822942643391521,-0.000786527092922526,
0.10827930174563591,0.005981432880058808,
0.1083291770573566,0.022158043174069636,
0.1083790523690773,0.026231572243902875,
0.10842892768079801,0.0034739348645223362,
0.1084788029925187,0.01998266106710831,
0.1085286783042394,-0.007298036277691386,
0.1085785536159601,0.029296358100880545,
0.10862842892768079,0.013932304269474251,
0.1086783042394015,0.007916735495111371,
0.1087281795511222,0.01910181425858351,
0.1087780548628429,0.01566908836196451,
0.10882793017456359,0.003913463174821403,
0.10887780548628428,0.0240182044542937,
0.108927680798005,0.014944568041600548,
0.10897755610972569,0.010490468042309652,
0.10902743142144639,0.01132112325585461,
0.10907730673316708,0.0024175359993085493,
0.10912718204488778,0.04739333554489822,
0.10917705735660847,-0.005182014959448469,
0.10922693266832918,0.007827626216186826,
0.10927680798004988,0.0021476684862418724,
0.10932668329177057,-0.011546076914110089,
0.10937655860349127,-0.0003679218993087943,
0.10942643391521197,0.024689407831726396,
0.10947630922693267,0.00573362064012642,
0.10952618453865337,-0.004363803177031365,
0.10957605985037407,0.03343371592451901,
0.10962593516209476,0.00595756750627454,
0.10967581047381546,0.01074484656774458,
0.10972568578553615,0.030710314116716573,
0.10977556109725686,-0.017625216966991722,
0.10982543640897756,-0.009228790741409455,
0.10987531172069825,-0.0013187517800671944,
0.10992518703241895,0.014634211166849553,
0.10997506234413965,-0.00955508824235696,
0.11002493765586036,0.0011509171760584612,
0.11007481296758105,0.016249399490531117,
0.11012468827930175,-0.01694240768354855,
0.11017456359102244,0.011027123110724088,
0.11022443890274314,-0.0008346725332707223,
0.11027431421446383,-0.016718467278598784,
0.11032418952618454,0.027542355080379905,
0.11037406483790524,0.0002945208132719135,
0.11042394014962593,-0.001344058053983823,
0.11047381546134663,0.01674816320095366,
0.11052369077306733,0.004183403611270839,
0.11057356608478804,-0.003795355649072263,
0.11062344139650873,0.024971018258647656,
0.11067331670822943,-0.013390696613286618,
0.11072319201995012,0.0029446745802386006,
0.11077306733167082,-0.01326253288349952,
0.11082294264339151,-0.0019895774961828623,
0.11087281795511222,-0.00879095817043015,
0.11092269326683292,0.012353186915844054,
0.11097256857855362,0.01533078802273448,
0.11102244389027431,-0.004969494657302012,
0.111072319201995,-0.02018194122840549,
0.11112219451371572,-0.011587042083385783,
0.11117206982543641,-0.007632988412074069,
0.11122194513715711,-0.017379630041728322,
0.1112718204488778,-0.007190019058852358,
0.1113216957605985,-0.006259323853398309,
0.11137157107231921,-0.020522658493155054,
0.1114214463840399,0.011758482361623005,
0.1114713216957606,-0.0175985957096947,
0.1115211970074813,-0.001006882064704802,
0.11157107231920199,-0.007638137963671255,
0.11162094763092269,-0.024119460517125324,
0.1116708229426434,-0.021360246253124555,
0.11172069825436409,0.016585719612588878,
0.11177057356608479,-0.020201036743810276,
0.11182044887780548,-0.01896994037319441,
0.11187032418952618,-0.012083006370859871,
0.11192019950124689,-0.019941203138489905,
0.11197007481296758,-0.030330272668357194,
0.11201995012468828,0.016501336557986142,
0.11206982543640898,-0.0021077002189213183,
0.11211970074812967,-0.017834471840937047,
0.11216957605985037,-0.00977898391056292,
0.11221945137157108,-0.006627992352046587,
0.11226932668329177,-0.023712446596258215,
0.11231920199501247,0.002912784180126575,
0.11236907730673316,0.0015552898295367254,
0.11241895261845386,-0.018304304626887674,
0.11246882793017457,-0.011740761206308466,
0.11251870324189527,-0.013065621005413624,
0.11256857855361596,-0.015389795399270042,
0.11261845386533666,0.014029325679733001,
0.11266832917705735,-0.01839983527695539,
0.11271820448877805,0.0021488663924749928,
0.11276807980049876,-0.027569137375955722,
0.11281795511221945,0.0033297104946590043,
0.11286783042394015,0.0008367797412441279,
0.11291770573566084,0.01766442724538743,
0.11296758104738154,-0.018340075932017065,
0.11301745635910225,0.0006927804942203492,
0.11306733167082295,0.018567146572239755,
0.11311720698254364,0.01784495106103668,
0.11316708229426434,-0.011678542071692631,
0.11321695760598503,-0.02891738133017626,
0.11326683291770574,-0.032942694190125334,
0.11331670822942644,-0.0007935236238776362,
0.11336658354114713,-0.032031514559538905,
0.11341645885286783,-0.022713180175786336,
0.11346633416458853,0.006388108419024836,
0.11351620947630922,-0.015336017497489387,
0.11356608478802993,-0.00038171084852893326,
0.11361596009975063,-0.0011297901764208938,
0.11366583541147132,-0.010034314139032732,
0.11371571072319202,-0.010816159106201545,
0.11376558603491271,-0.03447818865497579,
0.11381546134663342,-0.008052128480458075,
0.11386533665835412,0.01992312120375893,
0.11391521197007481,0.0038409712516133555,
0.11396508728179551,-0.0378210060975587,
0.1140149625935162,-0.017790259831400555,
0.1140648379052369,0.012434173297438235,
0.11411471321695761,-0.019545047216691196,
0.1141645885286783,-0.013585342690247186,
0.114214463840399,0.004706145542119589,
0.1142643391521197,-0.016282596680193388,
0.1143142144638404,-0.00646061430937431,
0.1143640897755611,0.005571325797663583,
0.1144139650872818,0.011805413623916662,
0.1144638403990025,-0.009924595829689423,
0.11451371571072319,-0.032814676188391435,
0.11456359102244389,-0.01248408900668717,
0.11461346633416458,-0.0197480996246302,
0.11466334164588529,-0.015065968279856288,
0.11471321695760599,-0.013229886934289607,
0.11476309226932668,-0.004383596173161946,
0.11481296758104738,0.0152224515643649,
0.11486284289276807,-0.0240284654244734,
0.11491271820448878,-0.04520803093683072,
0.11496259351620948,-0.004316516409314752,
0.11501246882793018,-0.025835272591577363,
0.11506234413965087,-0.025174133716915292,
0.11511221945137157,0.004590525645515818,
0.11516209476309226,-0.01568101762161433,
0.11521197007481297,-0.03550406179574947,
0.11526184538653367,-0.003267653693789196,
0.11531172069825436,-0.03606307326263114,
0.11536159600997506,0.00607150690432026,
0.11541147132169575,0.01502639153135398,
0.11546134663341646,-0.02207276446324055,
0.11551122194513716,0.006596645714043729,
0.11556109725685786,0.015216979382906871,
0.11561097256857855,-0.02767934789877073,
0.11566084788029925,-0.0012771713322814373,
0.11571072319201996,-0.004917311294421029,
0.11576059850374065,-0.004094214428697423,
0.11581047381546135,-0.028396998832095253,
0.11586034912718204,0.0038598690045311117,
0.11591022443890274,-0.009944627368749548,
0.11596009975062344,-0.006511438265718191,
0.11600997506234415,0.004272983246379638,
0.11605985037406484,-0.018656959346267613,
0.11610972568578554,-0.007869817055572811,
0.11615960099750623,-0.02146643269914944,
0.11620947630922693,0.004845639647109457,
0.11625935162094764,0.0025462447903558966,
0.11630922693266833,-0.013780162374917814,
0.11635910224438903,-0.012213483018374521,
0.11640897755610972,-0.04000846386610021,
0.11645885286783042,0.00830660748538053,
0.11650872817955112,0.023897156091357476,
0.11655860349127183,0.016488424781424614,
0.11660847880299252,-0.0098586625927568,
0.11665835411471322,-0.022690538691067158,
0.11670822942643391,-0.025942124524323647,
0.11675810473815461,0.007493305289761134,
0.11680798004987532,0.006926187737320675,
0.11685785536159601,0.017358425172799518,
0.11690773067331671,-0.006835015038737495,
0.1169576059850374,0.022489491607725818,
0.1170074812967581,0.00867408699278834,
0.1170573566084788,0.008720605488967501,
0.1171072319201995,-0.012724320701894208,
0.1171571072319202,-0.0022281933999812363,
0.1172069825436409,0.020241033790512272,
0.1172568578553616,-0.027189689244915063,
0.11730673316708229,0.01962439546905972,
0.117356608478803,-0.0029870102820346005,
0.1174064837905237,-0.016694694442092584,
0.11745635910224439,-0.01373395894536428,
0.11750623441396509,-0.010903452460690433,
0.11755610972568578,-0.013653506736260682,
0.11760598503740648,0.019308172667552272,
0.11765586034912719,-0.027991045479521158,
0.11770573566084788,-0.022162271834622195,
0.11775561097256858,0.006884381733434359,
0.11780548628428927,-0.026614689793558348,
0.11785536159600997,-0.01090898099688573,
0.11790523690773068,0.0100469933320862,
0.11795511221945137,0.0027288155153679795,
0.11800498753117207,0.010379367552210637,
0.11805486284289277,-0.016405211780667287,
0.11810473815461346,0.0018239129022302458,
0.11815461346633417,0.01977115254145998,
0.11820448877805487,0.028468329246428142,
0.11825436408977556,0.0030903256923757684,
0.11830423940149626,-0.030368279578181768,
0.11835411471321695,-0.006828643991747069,
0.11840399002493765,-0.0015468229423327281,
0.11845386533665836,0.031109634107405117,
0.11850374064837906,0.011086561879511455,
0.11855361596009975,0.029525174827467467,
0.11860349127182045,-0.02525057503528417,
0.11865336658354114,0.005064634433273849,
0.11870324189526185,-0.011090417970352155,
0.11875311720698255,0.024095285338602525,
0.11880299251870324,-0.007664116144517853,
0.11885286783042394,-0.010727177362902074,
0.11890274314214463,0.01212289116421369,
0.11895261845386533,-7.437382388201554e-05,
0.11900249376558604,0.019803001479965526,
0.11905236907730674,0.003906793249832109,
0.11910224438902743,0.015384124683042087,
0.11915211970074813,-0.003018309718344608,
0.11920199501246882,0.01882675949988973,
0.11925187032418953,0.036133706918065965,
0.11930174563591023,0.021412257171433385,
0.11935162094763092,0.034190318886315955,
0.11940149625935162,0.018526209095332168,
0.11945137157107232,0.02477883785780291,
0.11950124688279301,-0.02649541396895537,
0.11955112219451372,0.00896674727226118,
0.11960099750623442,0.02658949829605683,
0.11965087281795511,0.022773585825182782,
0.11970074812967581,0.024381980947525667,
0.1197506234413965,0.034844191587185505,
0.11980049875311721,0.006048737790245749,
0.11985037406483791,0.00966774382057865,
0.1199002493765586,0.025688267962160987,
0.1199501246882793,0.01221268368701816,
0.12,0.006079421352716668,
0.1200498753117207,0.012254732051412084,
0.1200997506234414,0.023493396620370574,
0.1201496259351621,0.023248255083391824,
0.12019950124688279,0.030491394735493123,
0.12024937655860349,-0.01188929258610303,
0.12029925187032418,0.007047746830048954,
0.1203491271820449,0.048354333513672174,
0.12039900249376559,-0.004617995050618429,
0.12044887780548628,0.03537852520775867,
0.12049875311720698,0.03087606757261968,
0.12054862842892768,0.028494792089374256,
0.12059850374064839,0.022897396929894197,
0.12064837905236908,0.019295071013317032,
0.12069825436408978,0.012029044052979271,
0.12074812967581047,0.03913540304778795,
0.12079800498753117,0.024363976659753456,
0.12084788029925186,0.02693986492992302,
0.12089775561097257,0.028818168178124638,
0.12094763092269327,0.004158747468828151,
0.12099750623441397,0.02712577833917835,
0.12104738154613466,0.011012169880382972,
0.12109725685785536,0.06116492043613346,
0.12114713216957607,0.017222229767846077,
0.12119700748129676,0.017499033973257853,
0.12124688279301746,0.020393467975944622,
0.12129675810473815,0.01910050899374482,
0.12134663341645885,-0.004383629489034101,
0.12139650872817954,0.03144155924177761,
0.12144638403990025,0.041654564914846606,
0.12149625935162095,0.025250932000572372,
0.12154613466334165,0.03432998125836188,
0.12159600997506234,0.009696724170136414,
0.12164588528678304,0.05983976011111951,
0.12169576059850375,0.03398392298758539,
0.12174563591022444,0.002770828202275928,
0.12179551122194514,0.04473327883407556,
0.12184538653366583,0.02697306979999851,
0.12189526184538653,0.03393098222267444,
0.12194513715710723,0.039550877753585914,
0.12199501246882793,0.025662190254681198,
0.12204488778054863,0.021849018692045835,
0.12209476309226933,0.02050284891221102,
0.12214463840399002,0.04980205250140099,
0.12219451371571072,0.027324657586353773,
0.12224438902743143,0.011635404573311952,
0.12229426433915212,0.01878728382680426,
0.12234413965087282,0.051713740366262424,
0.12239401496259351,0.005566247178709183,
0.12244389027431421,0.016524377281855664,
0.12249376558603492,0.021514490442924205,
0.12254364089775562,0.04238368978858602,
0.12259351620947631,0.036475721572766004,
0.122643391521197,0.03269055727053323,
0.1226932668329177,0.013329113723305733,
0.1227431421446384,0.03516957300004388,
0.12279301745635911,0.01676733856270126,
0.1228428927680798,0.045095817517836534,
0.1228927680798005,0.0037885258321108325,
0.1229426433915212,0.044814346277222264,
0.12299251870324189,0.04722773315238462,
0.1230423940149626,0.03956289619414116,
0.1230922693266833,0.01567924006228494,
0.12314214463840399,0.012064547496040693,
0.12319201995012469,0.02710835782396209,
0.12324189526184538,0.010476876387476304,
0.12329177057356608,0.014345194975598266,
0.12334164588528679,0.02871232187970713,
0.12339152119700748,0.02741501795814908,
0.12344139650872818,0.006440973599152206,
0.12349127182044888,0.032656995801676546,
0.12354114713216957,0.03189703095081944,
0.12359102244389028,0.017290027209427447,
0.12364089775561098,0.014039983926073226,
0.12369077306733167,0.03059087440939415,
0.12374064837905237,0.038482612687228086,
0.12379052369077306,0.005920735343103792,
0.12384039900249376,0.03317817067391414,
0.12389027431421447,0.04718762291341619,
0.12394014962593516,0.05699371786499387,
0.12399002493765586,0.03322308760286917,
0.12403990024937656,0.05129335028998778,
0.12408977556109725,0.0317203839686721,
0.12413965087281796,0.02264024736808085,
0.12418952618453866,0.038017755796961025,
0.12423940149625935,0.04444227175215554,
0.12428927680798005,-0.010323887372788557,
0.12433915211970074,0.01979550029411232,
0.12438902743142144,0.04191015774586033,
0.12443890274314215,0.02997788666227524,
0.12448877805486284,0.06881462004911318,
0.12453865336658354,0.04849076910871841,
0.12458852867830424,0.0503846885903739,
0.12463840399002493,0.06611887518585044,
0.12468827930174564,0.04287847244189464,
0.12473815461346634,0.03906812917762014,
0.12478802992518703,0.01868809866353036,
0.12483790523690773,0.021934240672272825,
0.12488778054862842,0.02167949443910834,
0.12493765586034913,0.01012845292190774,
0.12498753117206983,0.027950567369596425,
0.12503740648379053,0.04086356449201004,
0.12508728179551123,0.03859106982014839,
0.12513715710723192,0.022702582350145457,
0.12518703241895263,0.024881787329748023,
0.1252369077306733,0.02248904228487898,
0.12528678304239402,0.05176807460009726,
0.1253366583541147,0.05265205219901099,
0.1253865336658354,0.002230571430093021,
0.12543640897755612,0.031143255999712495,
0.1254862842892768,0.028817783855981775,
0.1255361596009975,0.03649729580024193,
0.1255860349127182,0.026193859711676787,
0.1256359102244389,0.037243726537624894,
0.1256857855361596,0.03946663882978321,
0.1257356608478803,0.04510105978980249,
0.125785536159601,0.031076351903335048,
0.12583541147132168,0.005340691258722281,
0.1258852867830424,0.028041197519514564,
0.1259351620947631,0.022912302600823043,
0.12598503740648379,-0.002127435244610988,
0.1260349127182045,0.01986612895227189,
0.12608478802992518,-0.005144474723797969,
0.1261346633416459,-0.01649144883560251,
0.1261845386533666,0.026948425017374805,
0.12623441396508728,0.03413971931304569,
0.126284289276808,0.033790606216264486,
0.12633416458852867,0.007253617061689088,
0.12638403990024938,0.02848739994275483,
0.1264339152119701,0.04526693846919183,
0.12648379052369077,0.025038024344437488,
0.12653366583541148,0.024553680626398372,
0.12658354114713216,0.036774446536967736,
0.12663341645885287,0.027488619390384605,
0.12668329177057355,0.029246752784449076,
0.12673316708229426,0.016493849946672853,
0.12678304239401497,0.01667101197076961,
0.12683291770573565,0.023488855941816954,
0.12688279301745636,0.018709857888771265,
0.12693266832917705,0.013796255516551136,
0.12698254364089775,0.015498717613327738,
0.12703241895261846,-6.310297226753622e-05,
0.12708229426433915,0.02254297755355448,
0.12713216957605986,-0.001602551159158784,
0.12718204488778054,0.03408367485827914,
0.12723192019950125,0.013910764771031123,
0.12728179551122196,0.03060913147280102,
0.12733167082294264,0.029326324202856212,
0.12738154613466335,0.025354772770708908,
0.12743142144638403,0.026308854993763973,
0.12748129675810474,0.04230350186082022,
0.12753117206982545,0.026929132075346765,
0.12758104738154613,0.02272435648767417,
0.12763092269326684,-0.0039264022558977395,
0.12768079800498752,0.007255514651272839,
0.12773067331670823,0.0027322961329908965,
0.1277805486284289,0.004450090264322122,
0.12783042394014962,0.02893164143552795,
0.12788029925187033,0.029882185058387203,
0.12793017456359101,0.024793687677739963,
0.12798004987531172,0.0227162303930138,
0.1280299251870324,0.021048990648826368,
0.12807980049875312,0.013856209270305616,
0.12812967581047383,0.028714885413309826,
0.1281795511221945,0.026184393202699677,
0.12822942643391522,0.006773160931149156,
0.1282793017456359,0.022384201979120145,
0.1283291770573566,0.034626947218145625,
0.12837905236907732,-0.0006570155998923671,
0.128428927680798,0.001458211188407322,
0.1284788029925187,0.024342246821934838,
0.1285286783042394,0.0005091255761243297,
0.1285785536159601,0.015758543949274527,
0.1286284289276808,0.010086887145039244,
0.1286783042394015,0.02049475068288194,
0.1287281795511222,0.012725424303419825,
0.12877805486284288,0.028612481000632312,
0.1288279301745636,0.005341649823141206,
0.1288778054862843,0.015076899256817126,
0.12892768079800498,0.03642751695748809,
0.1289775561097257,-0.014729804213891229,
0.12902743142144638,0.004277724466643544,
0.12907730673316709,0.029447946851349563,
0.12912718204488777,-0.0076140697543156406,
0.12917705735660848,0.016220464052645808,
0.1292269326683292,0.0018174732886571641,
0.12927680798004987,-0.00155378650216529,
0.12932668329177058,0.01955866278573331,
0.12937655860349126,0.010752514973527744,
0.12942643391521197,0.011367203325819544,
0.12947630922693268,0.008310498871127416,
0.12952618453865336,0.023122137463064928,
0.12957605985037407,-0.005994250333502284,
0.12962593516209475,0.0202307293587475,
0.12967581047381546,0.014218892676859477,
0.12972568578553617,0.028157047202189422,
0.12977556109725685,-0.0034623434885229813,
0.12982543640897756,-0.01369232938289264,
0.12987531172069824,0.04213996915292976,
0.12992518703241895,0.008477840756425957,
0.12997506234413966,-0.024068770133344963,
0.13002493765586035,-0.019098110139596065,
0.13007481296758105,0.0019310587635503918,
0.13012468827930174,-0.01757306288824663,
0.13017456359102245,0.005975864863653546,
0.13022443890274316,-0.0018721802241490892,
0.13027431421446384,0.018647285500651395,
0.13032418952618455,-0.020417920779027557,
0.13037406483790523,0.00033820027422525945,
0.13042394014962594,0.012099598439461373,
0.13047381546134662,0.05577278074640437,
0.13052369077306733,0.008788209783031948,
0.13057356608478804,-0.012699499966644299,
0.13062344139650872,-0.022271748753104673,
0.13067331670822943,-0.0224853698890235,
0.1307231920199501,-0.012394765170846133,
0.13077306733167082,-0.02022038493400837,
0.13082294264339153,0.020342457485035013,
0.13087281795511221,0.011622919118507439,
0.13092269326683292,-0.013535497592208815,
0.1309725685785536,0.004317310956104042,
0.13102244389027431,-0.004165336033468607,
0.13107231920199502,-0.012243674698047874,
0.1311221945137157,-0.004519482206372616,
0.13117206982543642,0.017675306315775678,
0.1312219451371571,-0.009401074438243347,
0.1312718204488778,-0.016948413195930948,
0.13132169576059852,0.006009714679104935,
0.1313715710723192,2.4794186327130666e-05,
0.1314214463840399,-0.0025837879542074693,
0.1314713216957606,0.022943298340848073,
0.1315211970074813,-0.002029418517486853,
0.13157107231920198,0.032552488499925494,
0.1316209476309227,-0.007457597451931744,
0.1316708229426434,0.010479940976042355,
0.13172069825436408,-0.0295224122144849,
0.1317705735660848,-0.00754872046133526,
0.13182044887780547,-0.011892786869748498,
0.13187032418952618,-0.0018786422861280776,
0.1319201995012469,-0.011686580290893414,
0.13197007481296757,-0.00981593919002215,
0.13201995012468828,-0.017967860503056737,
0.13206982543640897,-0.0025693461839543554,
0.13211970074812968,-0.010576934727529876,
0.13216957605985039,-0.012010284915813848,
0.13221945137157107,0.013524399068546841,
0.13226932668329178,0.003906308024933074,
0.13231920199501246,-0.005534782124798094,
0.13236907730673317,-0.02340426394897168,
0.13241895261845388,-0.00273091436464468,
0.13246882793017456,-0.004164317981554807,
0.13251870324189527,-0.007696766104799372,
0.13256857855361595,-0.017800771983567963,
0.13261845386533666,-0.0035864920185802486,
0.13266832917705737,-0.00410909066015882,
0.13271820448877805,-0.016625428079890613,
0.13276807980049876,-0.01376586900429715,
0.13281795511221944,-0.01706861673155015,
0.13286783042394015,-0.0010362760076696124,
0.13291770573566083,-0.04178661393046294,
0.13296758104738154,0.007968001735645555,
0.13301745635910225,0.015454380846513164,
0.13306733167082294,-0.031136705943585228,
0.13311720698254365,-0.017944590266935293,
0.13316708229426433,-0.011122136420667733,
0.13321695760598504,0.025202552926817258,
0.13326683291770575,-0.040938892500663085,
0.13331670822942643,0.013293872416404121,
0.13336658354114714,0.008205440968425428,
0.13341645885286782,0.0017446393196093746,
0.13346633416458853,0.024217152746646986,
0.13351620947630924,-0.006484865293613824,
0.13356608478802992,-0.008914314838077609,
0.13361596009975063,-0.004721244732495315,
0.1336658354114713,0.014325172197352232,
0.13371571072319202,-0.01447393714859942,
0.13376558603491273,0.002157048375178775,
0.1338154613466334,-0.021437433918029634,
0.13386533665835412,-0.0035639797897181677,
0.1339152119700748,0.00959645131210369,
0.13396508728179551,-0.013429999673385306,
0.1340149625935162,-0.019851655478046383,
0.1340648379052369,-0.022302113861303877,
0.13411471321695762,-0.020403873355266645,
0.1341645885286783,-0.0322539841280282,
0.134214463840399,-0.013736062989070567,
0.1342643391521197,0.0015401508484165823,
0.1343142144638404,-0.00711610425390536,
0.1343640897755611,-0.00204894088940625,
0.1344139650872818,-0.013007545828127234,
0.1344638403990025,-0.03559153270941645,
0.13451371571072318,-0.0022412312509652726,
0.1345635910224439,-0.00630249187349903,
0.1346134663341646,0.011446133753368113,
0.13466334164588528,-0.009977275764259438,
0.134713216957606,-0.01585272289471424,
0.13476309226932667,-0.005079776413677718,
0.13481296758104738,-0.012168463148045048,
0.1348628428927681,-0.013923383940816787,
0.13491271820448877,0.01866686168578091,
0.13496259351620948,-0.01893885858353394,
0.13501246882793017,0.013371262995292956,
0.13506234413965088,-0.016421241522992736,
0.13511221945137158,-3.575392176163525e-05,
0.13516209476309227,-0.02244391549668058,
0.13521197007481298,-0.016017210236110992,
0.13526184538653366,-0.017831699396711417,
0.13531172069825437,-0.0023872679841990515,
0.13536159600997505,-0.005241283291701556,
0.13541147132169576,-0.018758128687237786,
0.13546134663341647,-0.006820324674416066,
0.13551122194513715,-0.020109094126528754,
0.13556109725685786,0.016644864981975857,
0.13561097256857854,0.015186691875533238,
0.13566084788029925,-0.019342897206958854,
0.13571072319201996,-0.013063440921214094,
0.13576059850374064,-0.007214852216517175,
0.13581047381546135,-0.004242349262222158,
0.13586034912718203,0.0009608553150191792,
0.13591022443890274,0.016496458120958922,
0.13596009975062345,-0.0009660574733509827,
0.13600997506234414,0.00801158780070884,
0.13605985037406484,0.005038307513859041,
0.13610972568578553,-0.006638891383283114,
0.13615960099750624,-0.002486246100998428,
0.13620947630922695,0.011316873731620583,
0.13625935162094763,0.0013802134456068092,
0.13630922693266834,0.009634899117899332,
0.13635910224438902,-0.013462639364029914,
0.13640897755610973,0.0018471630594872534,
0.1364588528678304,0.009494300566056902,
0.13650872817955112,-0.014030158689669368,
0.13655860349127183,0.007622212596844584,
0.1366084788029925,0.005634839982111728,
0.13665835411471322,0.007025197737723745,
0.1367082294264339,-0.011926803034910007,
0.1367581047381546,-0.01234298342190506,
0.13680798004987532,0.02017536708644583,
0.136857855361596,0.0014281158943017223,
0.1369077306733167,0.020804691842595868,
0.1369576059850374,0.020983330601501433,
0.1370074812967581,-0.025593046883051522,
0.13705735660847881,0.0007061899922667695,
0.1371072319201995,-0.02399953685961793,
0.1371571072319202,-0.0031586536282107573,
0.1372069825436409,-0.008795442154296566,
0.1372568578553616,-0.022890425419514453,
0.1373067331670823,0.012788990523344564,
0.137356608478803,0.012997199200572301,
0.1374064837905237,0.018959043209171193,
0.13745635910224438,0.006983664491073116,
0.1375062344139651,-0.010449769042354277,
0.1375561097256858,0.0035443353956771096,
0.13760598503740648,-0.014257768213841273,
0.1376558603491272,0.0009696882267939046,
0.13770573566084787,-0.005792630354461752,
0.13775561097256858,0.00961069242541537,
0.13780548628428926,0.018643471137913113,
0.13785536159600997,-0.002744142534970781,
0.13790523690773068,-0.017203156365522856,
0.13795511221945136,-0.001063312609920021,
0.13800498753117207,0.022502979678882828,
0.13805486284289276,0.02602935321040816,
0.13810473815461347,0.029063618959174867,
0.13815461346633418,-0.0016407220383725047,
0.13820448877805486,0.006802651271853328,
0.13825436408977557,0.013790947805779068,
0.13830423940149625,-0.025276285875375087,
0.13835411471321696,0.009993745907122436,
0.13840399002493767,0.013870124921412666,
0.13845386533665835,0.0067686504441956145,
0.13850374064837906,0.017219037797718634,
0.13855361596009974,-0.0045598372203039025,
0.13860349127182045,0.018239475563366123,
0.13865336658354116,-0.002371672447993984,
0.13870324189526184,-0.008428854266374226,
0.13875311720698255,-0.005247906308654932,
0.13880299251870323,0.017844128221453627,
0.13885286783042394,0.025399883052416306,
0.13890274314214462,0.012527708883265572,
0.13895261845386533,0.017942523106148765,
0.13900249376558604,-0.009341816672866647,
0.13905236907730673,0.039146124911760005,
0.13910224438902744,0.00022853816276316961,
0.13915211970074812,0.014715563026396697,
0.13920199501246883,0.01816235608041402,
0.13925187032418954,-0.005125438357872967,
0.13930174563591022,0.017476404871461102,
0.13935162094763093,-0.002199458514002413,
0.1394014962593516,-0.0017561691933071083,
0.13945137157107232,0.005677501512473735,
0.13950124688279303,0.013198964153541215,
0.1395511221945137,-0.006142783492657136,
0.13960099750623442,0.035645134446456256,
0.1396508728179551,0.0015040202911280557,
0.1397007481296758,0.015473204842666411,
0.13975062344139652,0.04162119227061453,
0.1398004987531172,0.02458487619545187,
0.1398503740648379,-0.0015195111179796723,
0.1399002493765586,0.027546926718003198,
0.1399501246882793,0.024931885013632502,
0.14,0.038242227444144544,
0.1400498753117207,0.011886322822758505,
0.1400997506234414,0.048727787161857036,
0.1401496259351621,0.009354439317076626,
0.1401995012468828,-0.005031201008299908,
0.14024937655860348,0.03137705622672793,
0.1402992518703242,0.01335488721532969,
0.1403491271820449,0.031110425085618752,
0.14039900249376558,0.032262213738533406,
0.1404488778054863,0.0025266146829348857,
0.14049875311720697,0.024309750560969512,
0.14054862842892768,0.02762396269258541,
0.1405985037406484,0.00945670691676632,
0.14064837905236907,0.01562740800900731,
0.14069825436408978,0.0492667237907574,
0.14074812967581046,0.014717007582311058,
0.14079800498753117,0.022246317673126834,
0.14084788029925188,0.03555981033636469,
0.14089775561097256,0.012216400620596209,
0.14094763092269327,0.031460313424210046,
0.14099750623441396,0.0037579447169247444,
0.14104738154613466,0.028101034920404583,
0.14109725685785537,0.0112665315758591,
0.14114713216957606,0.02806324877151713,
0.14119700748129677,-4.0631778550785647e-05,
0.14124688279301745,-0.007671910717046843,
0.14129675810473816,0.022327261117888186,
0.14134663341645887,0.031182358320167507,
0.14139650872817955,0.06810224040037174,
