time,amplitude,label
0.0,-0.002666498186726079,
4.987531172069826e-05,-0.021836461706027353,
9.975062344139652e-05,0.01672337025261917,
0.00014962593516209475,-0.03104695877434894,
0.00019950124688279303,0.002156790317862701,
0.00024937655860349125,-0.04128396785925415,
0.0002992518703241895,-0.001494286459796565,
0.00034912718204488776,0.010629048801038595,
0.00039900249376558606,-0.0077163803943908794,
0.0004488778054862843,0.015583132768028314,
0.0004987531172069825,-0.007085962598969506,
0.0005486284289276808,-0.0017594091982392043,
0.000598503740648379,-0.038809645601328935,
0.0006483790523690773,-0.006109251177212336,
0.0006982543640897755,-0.004228451112177426,
0.0007481296758104738,0.02301810696490566,
0.0007980049875311721,-0.0018180584552340878,
0.0008478802992518703,-0.02479673421835639,
0.0008977556109725686,0.017005683148607825,
0.0009476309226932668,-0.004222603722625752,
0.000997506234413965,0.037037325466985314,
0.0010473815461346633,0.011120907351544768,
0.0010972568578553616,0.0030094652958267626,
0.00114713216957606,-0.021146268466592472,
0.001197007481296758,-0.008468586091570867,
0.0012468827930174563,-0.0008795967505774117,
0.0012967581047381546,0.01180641609896197,
0.001346633416458853,-0.024205328955630847,
0.001396508728179551,-0.023399548935855538,
0.0014463840399002493,-0.020070853715826464,
0.0014962593516209476,0.018750834076327647,
0.001546134663341646,-0.024996234633271632,
0.0015960099750623442,-0.008951959098661309,
0.0016458852867830423,-4.570066453699409e-05,
0.0016957605985037406,-0.02914661583982844,
0.001745635910224439,-0.018786289341173018,
0.0017955112219451373,0.0013177178962031615,
0.0018453865336658353,-0.005875643949062843,
0.0018952618453865336,-0.013944961616592597,
0.001945137157107232,0.01510582797389281,
0.00199501246882793,-0.011830010254264209,
0.0020448877805486283,-0.011951499408597908,
0.0020947630922693266,0.006912203497292749,
0.002144638403990025,-0.06091969095130505,
0.0021945137157107233,-0.0005927990950512739,
0.0022443890274314216,0.0003501556414530222,
0.00229426433915212,-0.0027532918143854564,
0.0023441396508728177,-0.009782227622993194,
0.002394014962593516,-0.027839346698884167,
0.0024438902743142144,0.0014107254978819057,
0.0024937655860349127,-0.010145290612950266,
0.002543640897755611,-0.027407386916717714,
0.0025935162094763093,0.008043887216502092,
0.0026433915211970076,0.003100026474787753,
0.002693266832917706,-0.017059969127335782,
0.002743142144638404,-0.04133473000755138,
0.002793017456359102,-0.04480873344089949,
0.0028428927680798004,-0.007260538520393961,
0.0028927680798004987,-0.02051544443729903,
0.002942643391521197,-0.017982196628796812,
0.0029925187032418953,-0.004712757600266005,
0.0030423940149625936,-0.026901174093599156,
0.003092269326683292,-0.0025966460991162996,
0.00314214463840399,-0.004451351000803738,
0.0031920199501246885,-0.007269115795810053,
0.0032418952618453864,-0.017746841240755165,
0.0032917705735660847,-0.026276267854334737,
0.003341645885286783,-0.008758641240378394,
0.0033915211970074813,-0.004260813436783027,
0.0034413965087281796,-0.0005749356745120317,
0.003491271820448878,-0.00398849659293626,
0.003541147132169576,-0.030562450890270834,
0.0035910224438902745,0.026086814253529003,
0.0036408977556109724,-0.02455804925832887,
0.0036907730673316707,-0.015365899248865496,
0.003740648379052369,-0.023842552673344605,
0.0037905236907730673,-0.030273415150289255,
0.0038403990024937656,-0.0027545883861425507,
0.003890274314214464,-0.014896887898587702,
0.003940149625935162,-0.01801907885771562,
0.00399002493765586,-0.0029424981892078907,
0.004039900249376558,-0.04927188215255547,
0.004089775561097257,-0.03657990153128835,
0.004139650872817955,-0.013146047396937591,
0.004189526184538653,0.0017809727055964966,
0.004239401496259352,-0.017453792387319967,
0.00428927680798005,-0.029076867311923313,
0.004339152119700748,-0.0302324601475581,
0.0043890274314214465,-0.003882857407735094,
0.004438902743142145,-0.025711523805289474,
0.004488778054862843,0.012565393517448429,
0.004538653366583541,-0.01857815466668575,
0.00458852867830424,-0.03597715386937295,
0.004638403990024938,-0.01304109542334124,
0.0046882793017456355,-0.03637280503354979,
0.004738154613466334,-0.013137883510842541,
0.004788029925187032,-0.014283530587658647,
0.00483790523690773,-0.012317162142907324,
0.004887780548628429,-0.02278622069191202,
0.004937655860349127,0.013182429740950977,
0.004987531172069825,-0.030056695407967526,
0.005037406483790524,-0.023340234080122316,
0.005087281795511222,-0.029343523088810712,
0.00513715710723192,-0.009405633274040731,
0.0051870324189526185,-0.028481665395014216,
0.005236907730673317,-0.006491364549997557,
0.005286783042394015,-0.010276870934085507,
0.0053366583541147134,-0.0038686110394722077,
0.005386533665835412,-0.023739650289804702,
0.00543640897755611,-0.011727529839821792,
0.005486284289276808,-0.0083706513660777,
0.005536159600997507,-0.026388432114940345,
0.005586034912718204,-0.018674084713883262,
0.005635910224438902,0.005852391179222854,
0.005685785536159601,-0.014039125635887792,
0.005735660847880299,-0.019480151985400377,
0.005785536159600997,-0.020394276033874094,
0.005835411471321696,-0.021862411842123678,
0.005885286783042394,-0.0006910107969056514,
0.005935162094763092,-0.02644015588789549,
0.0059850374064837905,-0.015590192264231525,
0.006034912718204489,-0.021139897551482253,
0.006084788029925187,-0.04688410512671053,
0.0061346633416458855,-0.035551403871200225,
0.006184538653366584,-0.029775639854205428,
0.006234413965087282,-0.008161494592978536,
0.00628428927680798,-0.039007828526549444,
0.006334164588528679,-0.03599528148353598,
0.006384039900249377,-0.017659023509185877,
0.006433915211970074,-0.011914231416700737,
0.006483790523690773,-0.012190866815385584,
0.006533665835411471,0.006021467583464137,
0.006583541147132169,-0.010808353275287494,
0.006633416458852868,-0.012604465988991311,
0.006683291770573566,-0.04530851242929482,
0.006733167082294264,0.004299545378653739,
0.0067830423940149626,-0.01415596086872224,
0.006832917705735661,0.010512778987229309,
0.006882793017456359,-0.02363539059145317,
0.0069326683291770575,-0.03197732122664303,
0.006982543640897756,-0.007281086590234097,
0.007032418952618454,-0.04308445129251003,
0.007082294264339152,-0.0015491520727951551,
0.007132169576059851,-0.019566805412759083,
0.007182044887780549,-0.030354182499200785,
0.007231920199501247,-9.651158515531534e-05,
0.007281795511221945,-0.008549743172648812,
0.007331670822942643,-0.021462426718088623,
0.007381546134663341,-0.012955699576064959,
0.00743142144638404,-0.05019594759335719,
0.007481296758104738,0.0027736388759180657,
0.007531172069825436,-0.022700387185173535,
0.007581047381546135,-0.04389392250324744,
0.007630922693266833,-0.004673823880255411,
0.007680798004987531,-0.01653030524464092,
0.0077306733167082295,0.018802951566718913,
0.007780548628428928,-0.010474114317466254,
0.007830423940149626,-0.012614928910441633,
0.007880299251870324,-0.018925544465185688,
0.007930174563591023,-0.02342828051582528,
0.00798004987531172,-0.004958318120095628,
0.00802992518703242,-0.01874552171064126,
0.008079800498753117,-0.010797724999491233,
0.008129675810473816,-0.018311561259080397,
0.008179551122194513,-0.03326058022091771,
0.008229426433915213,-0.0023436488956357464,
0.00827930174563591,0.006423524321138864,
0.00832917705735661,0.0014906344968902818,
0.008379052369077307,-0.01670717626370635,
0.008428927680798006,-0.002288380307981285,
0.008478802992518703,0.0034953512394936583,
0.0085286783042394,-0.018644128240812873,
0.0085785536159601,-0.004066726485583311,
0.008628428927680797,0.007079634358192512,
0.008678304239401496,-0.02638030056513907,
0.008728179551122194,-0.029731068697145653,
0.008778054862842893,-0.01084551566616274,
0.00882793017456359,-0.010371675118935133,
0.00887780548628429,-0.015664817381428147,
0.008927680798004987,0.0004505594787059114,
0.008977556109725686,-0.0146822327366525,
0.009027431421446384,-0.020502785786679106,
0.009077306733167083,0.009290498697831471,
0.00912718204488778,-0.01154577819676025,
0.00917705735660848,-0.005469332257274725,
0.009226932668329177,-0.032287165624216775,
0.009276807980049876,-0.015179786742303076,
0.009326683291770574,-0.022806876007054326,
0.009376558603491271,-0.014469541641498575,
0.00942643391521197,-0.00035936785215367854,
0.009476309226932668,-0.009039819410085324,
0.009526184538653367,0.00529700995689775,
0.009576059850374064,-0.015368423186182163,
0.009625935162094763,0.0116867157076288,
0.00967581047381546,0.017351488590131886,
0.00972568578553616,-0.028659118873094344,
0.009775561097256857,0.004540681306821944,
0.009825436408977557,0.003993045426023248,
0.009875311720698254,0.00011468828946580511,
0.009925187032418953,0.03290813815699128,
0.00997506234413965,0.02944584485854494,
0.01002493765586035,0.028242364506826906,
0.010074812967581047,-0.008991241988191944,
0.010124688279301746,-0.014280406386971705,
0.010174563591022444,-0.011274224119240726,
0.010224438902743141,0.01932096379719098,
0.01027431421446384,-0.0038368868994448344,
0.010324189526184538,-0.014796767931152338,
0.010374064837905237,-0.01102225421039311,
0.010423940149625935,0.0026045050993101313,
0.010473815461346634,0.014268954946610745,
0.010523690773067331,0.010048579822297414,
0.01057356608478803,0.015512404609287794,
0.010623441396508728,0.009760216821508808,
0.010673316708229427,-0.007507225067725731,
0.010723192019950124,0.017282275470474194,
0.010773067331670824,0.0016332986863485809,
0.010822942643391521,0.022433797564392798,
0.01087281795511222,-0.012194842862315688,
0.010922693266832918,0.018609317246410587,
0.010972568578553617,0.028327899384750787,
0.011022443890274314,0.0031395781900054385,
0.011072319201995013,0.009558376796755906,
0.01112219451371571,-0.03823816340771034,
0.011172069825436408,0.010581312505159753,
0.011221945137157107,0.023764914674632768,
0.011271820448877805,0.003247741345833062,
0.011321695760598504,0.007758236952739675,
0.011371571072319201,-0.012807173050965685,
0.0114214463840399,0.030096966397466764,
0.011471321695760598,0.011985358242094818,
0.011521197007481297,0.007619103040393786,
0.011571072319201995,0.014260589910006474,
0.011620947630922694,-0.0027015236307233736,
0.011670822942643391,0.015268119043942319,
0.01172069825436409,0.00833592979125736,
0.011770573566084788,0.027566132759337544,
0.011820448877805487,0.018843597994202727,
0.011870324189526184,0.011936170465710456,
0.011920199501246884,0.00817086666029262,
0.011970074812967581,-0.0028935989419760135,
0.012019950124688279,0.00599743526872057,
0.012069825436408978,0.013487821196328497,
0.012119700748129675,-0.006946040952939615,
0.012169576059850374,-0.0004932511947449564,
0.012219451371571072,0.014733305292767904,
0.012269326683291771,0.03659372939826436,
0.012319201995012468,0.0026383069823593397,
0.012369077306733168,-0.008761777442781315,
0.012418952618453865,0.02553183894356343,
0.012468827930174564,0.009853244561874402,
0.012518703241895262,0.041851160555419153,
0.01256857855361596,0.011855121598095139,
0.012618453865336658,0.031246963546121897,
0.012668329177057357,0.045136093507847225,
0.012718204488778055,0.019572927882549634,
0.012768079800498754,0.02281745685799623,
0.012817955112219451,0.009571327428221976,
0.012867830423940149,0.007442705217998481,
0.012917705735660848,0.004771655433399273,
0.012967581047381545,0.025420031319511864,
0.013017456359102245,0.05049150757311729,
0.013067331670822942,-0.002499560794238267,
0.013117206982543641,0.009486116487458823,
0.013167082294264339,0.01988131987911391,
0.013216957605985038,0.02518773010333065,
0.013266832917705735,0.024570083582383124,
0.013316708229426434,0.007830133384160273,
0.013366583541147132,0.026728830176598675,
0.013416458852867831,-0.011807323105258002,
0.013466334164588529,0.004713924155534397,
0.013516209476309228,0.017336861958257385,
0.013566084788029925,0.013895453679638202,
0.013615960099750624,0.010500113404533275,
0.013665835411471322,0.03301004061174076,
0.01371571072319202,0.02679679982142478,
0.013765586034912718,0.017136664218301383,
0.013815461346633416,0.01255345119023548,
0.013865336658354115,0.06069082800660238,
0.013915211970074812,0.021992595560884086,
0.013965087281795512,0.015798500922262575,
0.014014962593516209,0.04820253189849691,
0.014064837905236908,0.02404649948721757,
0.014114713216957606,0.01468593475572072,
0.014164588528678305,-0.01339383564156613,
0.014214463840399002,0.025127996407395152,
0.014264339152119701,0.02832641288537771,
0.014314214463840399,0.04309160157122042,
0.014364089775561098,0.024033849506409546,
0.014413965087281795,0.024301704056661842,
0.014463840399002495,0.02773990980164919,
0.014513715710723192,0.03348322829092703,
0.01456359102244389,0.03727724848321494,
0.014613466334164589,0.05229733687405252,
0.014663341645885286,0.01669748552104279,
0.014713216957605985,0.018364487227424044,
0.014763092269326683,0.006764631474433576,
0.014812967581047382,0.038037623126735615,
0.01486284289276808,0.038652860863369436,
0.014912718204488778,0.03922595024731991,
0.014962593516209476,0.035549701862652584,
0.015012468827930175,-0.026701542881966585,
0.015062344139650873,0.028679690271310555,
0.015112219451371572,-0.011536907487967242,
0.01516209476309227,0.029588022309275895,
0.015211970074812968,0.03928626140549833,
0.015261845386533666,0.029585261969276563,
0.015311720698254365,0.04622173364459677,
0.015361596009975062,0.038066814487602754,
0.01541147132169576,0.028027220909629568,
0.015461346633416459,0.01292044709468591,
0.015511221945137156,0.0011691138416555329,
0.015561097256857856,0.03875817485906967,
0.015610972568578553,0.047164862187006926,
0.015660847880299252,0.04891262175378379,
0.01571072319201995,0.031037824555770102,
0.015760598503740647,-0.008632184698455853,
0.015810473815461346,0.04511396110479985,
0.015860349127182045,-0.001040148655867712,
0.015910224438902745,0.0054599919767466445,
0.01596009975062344,0.04177229506191292,
0.01600997506234414,0.022435270974801295,
0.01605985037406484,0.02544518007093348,
0.016109725685785538,0.03335037311147956,
0.016159600997506234,0.02086412832312022,
0.016209476309226933,0.050780034014167405,
0.016259351620947632,0.01728129478644303,
0.016309226932668328,0.03305169625908226,
0.016359102244389027,-0.013474963368235098,
0.016408977556109726,0.031199920451621406,
0.016458852867830425,0.010836491358914095,
0.01650872817955112,0.010639597596981023,
0.01655860349127182,0.038179674555018764,
0.01660847880299252,0.02768382467599752,
0.01665835411471322,0.019413835027947707,
0.016708229426433914,0.05521006428115226,
0.016758104738154613,0.0233283715068924,
0.016807980049875312,0.007464518655113153,
0.01685785536159601,0.018359101371698945,
0.016907730673316707,0.01772829767299349,
0.016957605985037406,0.0259392271849741,
0.017007481296758106,-0.006807296374900355,
0.0170573566084788,0.048076940159245546,
0.0171072319201995,0.040400768644591134,
0.0171571072319202,0.040183944495013,
0.0172069825436409,0.009933442770751321,
0.017256857855361595,0.012675250814193371,
0.017306733167082294,-0.014319702486736443,
0.017356608478802993,0.015214994995861921,
0.017406483790523692,0.01254825958868094,
0.017456359102244388,0.025919703913655646,
0.017506234413965087,0.021393544044264287,
0.017556109725685786,0.008268815509065771,
0.017605985037406485,0.006671277540833744,
0.01765586034912718,0.0412819098150352,
0.01770573566084788,-0.021488289740938315,
0.01775561097256858,0.01687087973077752,
0.01780548628428928,0.032969164452387865,
0.017855361596009974,0.014625340725445166,
0.017905236907730673,0.012065089070967676,
0.017955112219451373,0.028633413716616873,
0.018004987531172068,0.004998256977660008,
0.018054862842892767,0.020914534884581587,
0.018104738154613467,-0.010037707457215845,
0.018154613466334166,0.027914681251087935,
0.01820448877805486,-0.00026072444479052943,
0.01825436408977556,-0.0024649020500087226,
0.01830423940149626,0.024059981427370113,
0.01835411471321696,-0.022065330328090126,
0.018403990024937655,-0.0016822658655143118,
0.018453865336658354,-0.010437400731062894,
0.018503740648379053,0.0020979414930483668,
0.018553615960099752,-0.006390525963068402,
0.018603491271820448,0.006560510369293188,
0.018653366583541147,0.0320330105478233,
0.018703241895261846,0.009037080911176,
0.018753117206982542,0.006743807814492029,
0.01880299251870324,-0.0033981767552441183,
0.01885286783042394,-0.002346106697954072,
0.01890274314214464,0.028491020249091975,
0.018952618453865335,0.009517680477549837,
0.019002493765586034,-0.01818359778161733,
0.019052369077306733,0.01484085255962182,
0.019102244389027433,-0.0165655140397012,
0.01915211970074813,0.017856458068913672,
0.019201995012468828,0.00264038019838556,
0.019251870324189527,0.0074113372977001315,
0.019301745635910226,0.009672998448442393,
0.01935162094763092,0.026792404433710042,
0.01940149625935162,0.028671064046479247,
0.01945137157107232,0.014487818150020551,
0.01950124688279302,-0.01852567343089946,
0.019551122194513715,0.017567672167912794,
0.019600997506234414,0.030693275484490773,
0.019650872817955113,-0.0041950046892597695,
0.01970074812967581,-0.01136168055937338,
0.019750623441396508,0.041670313933042866,
0.019800498753117207,0.011189422154864667,
0.019850374064837906,0.010058847830686482,
0.019900249376558602,0.0015180380102992827,
0.0199501246882793,0.0026105841694984777,
0.02,0.0032131243583969574,
0.0200498753117207,0.012387316948818394,
0.020099750623441395,0.02272661983321337,
0.020149625935162094,0.019958292742845822,
0.020199501246882794,0.009354998912861479,
0.020249376558603493,-0.01224720483709425,
0.02029925187032419,0.009482650714053952,
0.020349127182044888,-0.023406190436438823,
0.020399002493765587,-0.032420373495802325,
0.020448877805486283,0.007404321248159432,
0.02049875311720698,-0.0028512549011098713,
0.02054862842892768,0.01297600643565489,
0.02059850374064838,-0.005901303620592779,
0.020648379052369076,0.0018728049735327824,
0.020698254364089775,0.0014456342580289176,
0.020748129675810474,-0.010614745494153484,
0.020798004987531173,-0.014155314885541889,
0.02084788029925187,-0.0004280988411284703,
0.020897755610972568,-0.007195175491842187,
0.020947630922693267,0.00369576447593669,
0.020997506234413967,0.0004914511678017599,
0.021047381546134662,0.01200015771776533,
0.02109725685785536,-0.006960236565768959,
0.02114713216957606,0.00044885628731783367,
0.02119700748129676,0.010384463740799314,
0.021246882793017455,0.009131999199913553,
0.021296758104738155,0.014809001774103114,
0.021346633416458854,0.0019106253657881628,
0.02139650872817955,0.0013853789602915265,
0.02144638403990025,0.010421165964051361,
0.021496259351620948,-0.0012237495266641451,
0.021546134663341647,-0.030871223191979172,
0.021596009975062343,-0.013041282283148305,
0.021645885286783042,-0.031216088867761848,
0.02169576059850374,0.005084746101981227,
0.02174563591022444,-0.022671308205831346,
0.021795511221945136,-0.01827755804081261,
0.021845386533665835,0.02047552732330582,
0.021895261845386534,-0.013833755424270355,
0.021945137157107233,-0.0027370941741273807,
0.02199501246882793,0.0023920048153057063,
0.02204488778054863,-0.008118335870298202,
0.022094763092269327,-0.006507099426118148,
0.022144638403990027,-0.034912614246497546,
0.022194513715710722,-0.027149698111926093,
0.02224438902743142,-0.00411029975178676,
0.02229426433915212,0.005220759996699541,
0.022344139650872816,0.005525515675020232,
0.022394014962593516,-0.0010151424597610991,
0.022443890274314215,-0.02378982534726233,
0.022493765586034914,0.004421768831907232,
0.02254364089775561,-0.01014239862143986,
0.02259351620947631,-0.0007001536639479368,
0.022643391521197008,-0.025121158454773893,
0.022693266832917707,-0.01400090763737195,
0.022743142144638403,-0.020712569857183314,
0.022793017456359102,-0.01429057094912366,
0.0228428927680798,-0.02192134811175338,
0.0228927680798005,-0.012435951997262221,
0.022942643391521196,-0.005823365939110587,
0.022992518703241895,-0.022384851741535414,
0.023042394014962594,-0.023088884137148324,
0.02309226932668329,-0.018934699307324724,
0.02314214463840399,0.017386238086335562,
0.02319201995012469,-0.021976053552043816,
0.023241895261845388,-0.02685419802961412,
0.023291770573566083,-0.013148334501233516,
0.023341645885286783,-0.013096677831744095,
0.02339152119700748,-0.004124374822281269,
0.02344139650872818,-0.01569249194873445,
0.023491271820448877,-0.006143749297728195,
0.023541147132169576,-0.03172382104898069,
0.023591022443890275,0.00044119425426152395,
0.023640897755610974,-0.015553098914389489,
0.02369077306733167,-0.03139254664487913,
0.02374064837905237,-0.029056603157512784,
0.023790523690773068,-0.012279899008319923,
0.023840399002493767,-0.020909323811873638,
0.023890274314214463,-0.030341428167616757,
0.023940149625935162,-0.04120854671290461,
0.02399002493765586,-0.01628533247548908,
0.024039900249376557,-0.004070246229203439,
0.024089775561097256,-0.030720127169683413,
0.024139650872817955,-0.007872037504056746,
0.024189526184538655,-0.012085688659498123,
0.02423940149625935,-0.00903475092991446,
0.02428927680798005,-0.046160066494044937,
0.02433915211970075,-0.024607413262273826,
0.024389027431421448,-0.016377373448747085,
0.024438902743142144,-0.03398364598487191,
0.024488778054862843,-0.018002144498475616,
0.024538653366583542,-0.0012833299870612797,
0.02458852867830424,-0.013451000461085758,
0.024638403990024937,-0.005400625650311025,
0.024688279301745636,-0.025062547004170203,
0.024738154613466335,-0.0057696947502746294,
0.02478802992518703,-0.01834797440084588,
0.02483790523690773,-0.040932989032891706,
0.02488778054862843,-0.05365227194416858,
0.02493765586034913,-0.005960891261041669,
0.024987531172069824,-0.006200813421089909,
0.025037406483790523,-0.014804322634022215,
0.025087281795511222,-0.010411060809471226,
0.02513715710723192,-0.016731218879157753,
0.025187032418952617,0.00044515532685400136,
0.025236907730673316,-0.04783889377393039,
0.025286783042394016,-0.016684243416143996,
0.025336658354114715,-0.0262500743909648,
0.02538653366583541,-0.022360110971631438,
0.02543640897755611,-0.006509330589127787,
0.02548628428927681,-0.034376404831979006,
0.025536159600997508,-0.04293980303053231,
0.025586034912718204,-0.019107985036535775,
0.025635910224438903,-0.015102977554884487,
0.025685785536159602,-0.016637507189810018,
0.025735660847880298,-0.0333930283256755,
0.025785536159600997,-0.028619406219906926,
0.025835411471321696,-0.0049233909069990745,
0.025885286783042395,-0.013220144515122208,
0.02593516209476309,-0.010236977986866264,
0.02598503740648379,0.0010595159556118054,
0.02603491271820449,-0.026911651941454017,
0.02608478802992519,-0.009607432498962776,
0.026134663341645884,-0.02784328446908728,
0.026184538653366583,0.0015548937044529004,
0.026234413965087282,-0.03722916028693057,
0.02628428927680798,-0.002501689589041652,
0.026334164588528677,-0.019216675943711473,
0.026384039900249377,-0.031567100916172444,
0.026433915211970076,-0.022815704183850816,
0.02648379052369077,-0.027262297022182233,
0.02653366583541147,-0.01165362628412854,
0.02658354114713217,-0.01356552342432395,
0.02663341645885287,-0.016069149646119364,
0.026683291770573565,-0.004341740510871302,
0.026733167082294264,-0.0028928273026554516,
0.026783042394014963,0.000592781404462223,
0.026832917705735662,-0.013746018858580018,
0.026882793017456358,-0.013512276591821023,
0.026932668329177057,-0.037593976262121964,
0.026982543640897756,-0.027945066875674315,
0.027032418952618455,-0.032727364141537596,
0.02708229426433915,-0.015471956466314109,
0.02713216957605985,-0.004628587636733662,
0.02718204488778055,-0.002151324180653105,
0.02723192019950125,-0.013545302936249597,
0.027281795511221944,-0.038481821953321046,
0.027331670822942643,-0.017353829002439494,
0.027381546134663343,0.012707818669894786,
0.02743142144638404,-0.0008686713861648446,
0.027481296758104738,-0.00843529881807989,
0.027531172069825437,-0.0032591017399811757,
0.027581047381546136,-0.0009411068461677424,
0.02763092269326683,0.00832163955652044,
0.02768079800498753,-0.021177004318809017,
0.02773067331670823,-0.029619767280228852,
0.02778054862842893,-0.020689455238380637,
0.027830423940149625,-0.013422542744997837,
0.027880299251870324,-0.033416525671007724,
0.027930174563591023,0.017439457187984314,
0.027980049875311722,0.003655160169155368,
0.028029925187032418,-0.022917445994293476,
0.028079800498753117,-0.002749180253142031,
0.028129675810473816,-0.018532889196448524,
0.028179551122194512,0.008127651037747857,
0.02822942643391521,-0.015701660335039492,
0.02827930174563591,-0.00937870696034138,
0.02832917705735661,0.004144442105568356,
0.028379052369077305,-0.007445295201713662,
0.028428927680798004,-0.01506830984726441,
0.028478802992518704,0.02953161285852223,
0.028528678304239403,-0.004198309890452684,
0.0285785536159601,-0.01173697001794815,
0.028628428927680798,0.016705965181410896,
0.028678304239401497,-0.010047744843221223,
0.028728179551122196,-0.0017415904972248562,
0.02877805486284289,-0.034282488946638684,
0.02882793017456359,-0.005223006684833187,
0.02887780548628429,-0.031114671580245296,
0.02892768079800499,-0.0005476809474377637,
0.028977556109725685,-0.0011769801602969495,
0.029027431421446384,-0.023373260262387126,
0.029077306733167083,0.004554395369458368,
0.02912718204488778,0.00834103984004396,
0.029177057356608478,0.027769582603290086,
0.029226932668329177,0.021210416697497646,
0.029276807980049877,0.015146712464023418,
0.029326683291770572,0.006640614924181332,
0.02937655860349127,-0.05053672399529672,
0.02942643391521197,0.017115554027712004,
0.02947630922693267,0.013968764947746527,
0.029526184538653365,0.006795209455774462,
0.029576059850374065,-0.006501455977389018,
0.029625935162094764,0.006494010874253588,
0.029675810473815463,-0.012548561003723204,
0.02972568578553616,0.008710410884666581,
0.029775561097256858,0.016504329192695164,
0.029825436408977557,0.005058273310708831,
0.029875311720698253,-0.008838177805186403,
0.029925187032418952,0.0109129289128895,
0.02997506234413965,-0.02504473324606189,
0.03002493765586035,0.011321339336841107,
0.030074812967581046,0.0031988305456037646,
0.030124688279301745,-0.004720506851484776,
0.030174563591022444,-0.005002696078632313,
0.030224438902743143,0.0024442971291478,
0.03027431421446384,0.018871899335355553,
0.03032418952618454,0.00025745528377272425,
0.030374064837905237,0.027811635657926964,
0.030423940149625937,0.001625919645608303,
0.030473815461346632,0.006014417384275767,
0.03052369077306733,0.002286415093695004,
0.03057356608478803,0.025431099231710365,
0.03062344139650873,0.027028454806960832,
0.030673316708229426,-0.009549701354418745,
0.030723192019950125,0.0011434022954410284,
0.030773067331670824,0.014032609428333096,
0.03082294264339152,-0.016861715484198916,
0.03087281795511222,-0.008087925831692752,
0.030922693266832918,-0.015123577681823385,
0.030972568578553617,0.002061858373475824,
0.031022443890274313,0.0033464002204137066,
0.031072319201995012,-0.008994763484644994,
0.03112219451371571,0.027061590561623466,
0.03117206982543641,-0.005787621547951236,
0.031221945137157106,0.0037196100143054283,
0.03127182044887781,0.006843573676971727,
0.031321695760598504,0.03492982254878278,
0.0313715710723192,0.0230726396984203,
0.0314214463840399,-0.008902914663932454,
0.0314713216957606,0.006470999336138911,
0.031521197007481294,-0.002994606745781841,
0.031571072319202,0.012713461835107262,
0.03162094763092269,0.033576651413837824,
0.03167082294264339,0.014728227175528347,
0.03172069825436409,-0.005799586806600199,
0.03177057356608479,-0.013763759817015593,
0.03182044887780549,0.009312164092566728,
0.031870324189526185,0.0021839762715798548,
0.03192019950124688,0.011453932171112848,
0.03197007481296758,0.0004812420214386562,
0.03201995012468828,-0.014927416916509551,
0.032069825436408975,0.007314394668999851,
0.03211970074812968,0.005713346196568108,
0.03216957605985037,0.007668704885151608,
0.032219451371571076,0.020954487454835226,
0.03226932668329177,0.04016567446752061,
0.03231920199501247,0.044362860094004475,
0.03236907730673317,0.00013035754823513372,
0.032418952618453865,0.02592698483172085,
0.03246882793017456,0.039725860651034055,
0.032518703241895264,0.024713936317298943,
0.03256857855361596,0.024860698359725406,
0.032618453865336655,0.02165599879358964,
0.03266832917705736,0.03919543751289281,
0.032718204488778053,0.0353548134088392,
0.032768079800498756,0.042856400216256245,
0.03281795511221945,0.021070970979234934,
0.03286783042394015,-0.004110121641160841,
0.03291770573566085,0.04442870871617939,
0.032967581047381546,0.02505329035488247,
0.03301745635910224,0.01945958085342648,
0.033067331670822944,0.017592032889358834,
0.03311720698254364,-0.005357841002004288,
0.03316708229426434,0.045272327037388455,
0.03321695760598504,0.03058064590897426,
0.033266832917705734,0.029478833012655886,
0.03331670822942644,0.027308885252001265,
0.03336658354114713,0.008142801785226934,
0.03341645885286783,0.029055913320241735,
0.03346633416458853,-0.005014116431539047,
0.033516209476309226,0.004427793091800494,
0.03356608478802992,0.03108413352711297,
0.033615960099750625,0.032489716498219065,
0.03366583541147132,0.025782074227940883,
0.03371571072319202,0.015598501983515466,
0.03376558603491272,0.03555811022182066,
0.033815461346633414,0.040017765602304245,
0.03386533665835412,0.030145965855376163,
0.03391521197007481,0.011580899099347544,
0.03396508728179551,0.002060325325382712,
0.03401496259351621,0.04745817729934601,
0.03406483790523691,0.015819162792233193,
0.0341147132169576,0.01911710667278853,
0.034164588528678305,0.048213781426556857,
0.034214463840399,0.03597712178784357,
0.034264339152119704,0.0369844224446296,
0.0343142144638404,0.01208980840564227,
0.034364089775561095,0.047163179121792576,
0.0344139650872818,0.004073202102829493,
0.03446384039900249,0.011173493555593404,
0.03451371571072319,0.01967920097390012,
0.03456359102244389,0.06363670450417987,
0.03461346633416459,0.01813347494110515,
0.03466334164588529,0.005026145162400967,
0.034713216957605986,0.03203406089233781,
0.03476309226932668,-0.002399411541525672,
0.034812967581047384,0.04467127479964626,
0.03486284289276808,0.04619801204953258,
0.034912718204488775,-0.010163914312515576,
0.03496259351620948,0.02254235581536476,
0.035012468827930174,0.014004192469927857,
0.03506234413965087,0.02299152030128391,
0.03511221945137157,0.030120739920088267,
0.03516209476309227,0.013643387022743222,
0.03521197007481297,0.0028851453245612516,
0.035261845386533666,0.02855921844976138,
0.03531172069825436,0.040458949474096825,
0.035361596009975065,0.04154009698770526,
0.03541147132169576,0.015368438805433387,
0.035461346633416456,0.037916003071988905,
0.03551122194513716,0.021281138808526313,
0.035561097256857854,0.02814588500570246,
0.03561097256857856,0.014382299163884891,
0.03566084788029925,0.03294666593967355,
0.03571072319201995,0.031384574424050064,
0.03576059850374065,0.020629683058043993,
0.03581047381546135,-0.002378135110892604,
0.03586034912718204,0.008647922144125639,
0.035910224438902745,0.011067034647699417,
0.03596009975062344,0.013549572442026439,
0.036009975062344136,0.02454338047319872,
0.03605985037406484,0.012191714467721984,
0.036109725685785535,-0.0023046801623623422,
0.03615960099750624,0.03230036177551399,
0.03620947630922693,0.0020334651177960385,
0.03625935162094763,0.031115379592200336,
0.03630922693266833,0.023066659617412732,
0.03635910224438903,0.02704636416468681,
0.03640897755610972,0.010415450029666455,
0.036458852867830426,0.00956567224344029,
0.03650872817955112,0.042797182328472155,
0.036558603491271824,0.02446248584001763,
0.03660847880299252,0.012112897873078657,
0.036658354114713215,0.01163378161014611,
0.03670822942643392,0.007475614202349773,
0.036758104738154614,0.026366920602810134,
0.03680798004987531,-0.0016314423432876937,
0.03685785536159601,0.04851667070229071,
0.03690773067331671,0.02516852380814248,
0.0369576059850374,0.061716328025902656,
0.037007481296758106,0.03430420914108344,
0.0370573566084788,0.0010242663910156637,
0.037107231920199504,-0.0013618977581987303,
0.0371571072319202,0.011316982974035753,
0.037206982543640896,0.020553316136037864,
0.0372568578553616,0.011572074694716649,
0.037306733167082294,0.012152202017984025,
0.03735660847880299,-0.002431745158724661,
0.03740648379052369,0.038481099704176,
0.03745635910224439,0.02967566498635514,
0.037506234413965084,0.01586178894107986,
0.037556109725685786,0.008302590617880358,
0.03760598503740648,0.003470465257284165,
0.037655860349127185,0.009897450547466467,
0.03770573566084788,0.0123695946709577,
0.037755610972568576,0.004313483554514351,
0.03780548628428928,0.012974494149188269,
0.037855361596009975,-0.0009214051132128941,
0.03790523690773067,0.0008864081466446079,
0.03795511221945137,0.020829129582106795,
0.03800498753117207,0.018687154135894425,
0.03805486284289277,0.024390378519254168,
0.03810473815461347,0.025365040691211954,
0.03815461346633416,0.027491082497144197,
0.038204488778054865,0.012445617781464316,
0.03825436408977556,0.005931451483155204,
0.03830423940149626,-0.02828217190272598,
0.03835411471321696,0.025132462411355236,
0.038403990024937655,0.011256530732030843,
0.03845386533665835,0.034301851683014174,
0.03850374064837905,0.029912612499295894,
0.03855361596009975,-0.005222528959977754,
0.03860349127182045,0.03731440301269205,
0.03865336658354115,0.010813297070063316,
0.03870324189526184,0.006763838338950439,
0.038753117206982546,0.01877719606179359,
0.03880299251870324,0.012684735127999443,
0.03885286783042394,0.032068601162657064,
0.03890274314214464,0.03220665114695696,
0.038952618453865336,0.014622031443229627,
0.03900249376558604,0.005122826410906556,
0.039052369077306734,-0.0003731366245959683,
0.03910224438902743,0.00831652451977238,
0.03915211970074813,-0.004656956125922238,
0.03920199501246883,0.0011035346664297462,
0.039251870324189524,-0.005164229685890927,
0.039301745635910226,-0.003596657197401383,
0.03935162094763092,0.035249029674599704,
0.03940149625935162,0.0030522719779251155,
0.03945137157107232,0.01632458826529904,
0.039501246882793016,0.024079340788221017,
0.03955112219451372,0.008106331102416172,
0.039600997506234414,0.009529205793227365,
0.03965087281795511,0.02351688014359139,
0.03970074812967581,-0.016009429095687578,
0.03975062344139651,-0.009461277183716487,
0.039800498753117204,-0.0017547832294204022,
0.03985037406483791,-0.0042772106924129135,
0.0399002493765586,0.023108159639749177,
0.039950124688279305,0.01095176268136746,
0.04,0.028122773431504336,
0.0400498753117207,0.008081491072515802,
0.0400997506234414,-0.0020636955902473453,
0.040149625935162095,0.01990057109704575,
0.04019950124688279,-0.0007783984996953893,
0.04024937655860349,-0.015481999950306937,
0.04029925187032419,0.026837671438042353,
0.040349127182044885,0.014358590975714704,
0.04039900249376559,-0.009917513797171512,
0.04044887780548628,-0.004295188448173046,
0.040498753117206986,0.02366222361908883,
0.04054862842892768,-0.013611498715662073,
0.04059850374064838,-0.0014676651722089508,
0.04064837905236908,-0.030048078628880395,
0.040698254364089775,-0.011605661535317138,
0.04074812967581047,-0.022341608046375507,
0.040798004987531174,-0.012721889331488158,
0.04084788029925187,0.026685120539060556,
0.040897755610972565,-0.012532246692840428,
0.04094763092269327,-0.009641216459217453,
0.04099750623441396,-0.025476233661294555,
0.041047381546134666,-0.008030138097171338,
0.04109725685785536,0.018834185350004733,
0.04114713216957606,-0.006175284443770293,
0.04119700748129676,1.5662052447887667e-07,
0.041246882793017456,-0.013429007635641553,
0.04129675810473815,-0.017162556186080407,
0.041346633416458854,0.016655532204823686,
0.04139650872817955,-0.013268833774715359,
0.04144638403990025,0.013424186962509325,
0.04149625935162095,-0.006026835171606293,
0.041546134663341644,0.010634793682992031,
0.04159600997506235,-0.02076570738591331,
0.04164588528678304,0.017033773830071947,
0.04169576059850374,-0.009385230822658953,
0.04174563591022444,0.007693933589570816,
0.041795511221945136,-0.011580534409730281,
0.04184538653366583,-0.01991193922132684,
0.041895261845386535,-0.011365120791746532,
0.04194513715710723,-0.0027123739773228022,
0.04199501246882793,-0.006037162321065239,
0.04204488778054863,-0.003619365784568177,
0.042094763092269324,-0.030514642987745182,
0.04214463840399003,0.013748222533046028,
0.04219451371571072,-0.0007218497964727733,
0.04224438902743142,0.024113841373425055,
0.04229426433915212,-0.03534664614822852,
0.04234413965087282,-0.027681708674584745,
0.04239401496259352,-0.02625428456761029,
0.042443890274314215,-0.001345422060532694,
0.04249376558603491,0.0025787141746484027,
0.042543640897755614,-0.024274821106201973,
0.04259351620947631,-0.033395365063169265,
0.042643391521197005,0.003046708042589134,
0.04269326683291771,-0.020844390158466397,
0.0427431421446384,-0.019673866229127486,
0.0427930174563591,-0.017992872824571897,
0.0428428927680798,0.005846674977805118,
0.0428927680798005,-0.019537859204216516,
0.0429426433915212,-0.030248412476158414,
0.042992518703241896,-0.007067875156184366,
0.04304239401496259,-0.011009817067392201,
0.043092269326683294,-0.0061357570314453805,
0.04314214463840399,-0.042461589925966076,
0.043192019950124685,-0.006014743771900308,
0.04324189526184539,-0.0276623119051542,
0.043291770573566084,-0.004669525320179949,
0.043341645885286786,-0.02608409647125144,
0.04339152119700748,0.007926793770656618,
0.04344139650872818,-0.03430086828880205,
0.04349127182044888,-0.013683894841054664,
0.043541147132169576,-0.030996425356413372,
0.04359102244389027,-0.02149299437513598,
0.043640897755610975,-0.030604965070007217,
0.04369077306733167,-0.01786691385002604,
0.043740648379052366,-0.012158229633201744,
0.04379052369077307,-0.018409633676018552,
0.043840399002493764,-0.027830106087850234,
0.04389027431421447,-0.04610060583453202,
0.04394014962593516,-0.022987554836043943,
0.04399002493765586,-0.01732378314756592,
0.04403990024937656,-0.0032504956035439674,
0.04408977556109726,-0.010699805354823594,
0.04413965087281795,-0.015591559847315722,
0.044189526184538655,-0.008457367069482902,
0.04423940149625935,-0.018390285264680874,
0.04428927680798005,-0.02570736637873437,
0.04433915211970075,-0.017872174001048777,
0.044389027431421445,-0.05022766216790398,
0.04443890274314215,-0.010265411910091206,
0.04448877805486284,0.00039773572492310047,
0.04453865336658354,-0.011389312539103774,
0.04458852867830424,-0.020291891788740662,
0.04463840399002494,-0.03301584066933908,
0.04468827930174563,-0.00937920618080832,
0.044738154613466335,-0.023069705934566646,
0.04478802992518703,-0.01933764632433343,
0.044837905236907734,-0.01003607274627177,
0.04488778054862843,-0.011795200088634595,
0.044937655860349125,-0.02339159114534954,
0.04498753117206983,0.01520821384672406,
0.045037406483790524,0.00210876198645853,
0.04508728179551122,-0.016180067676771322,
0.04513715710723192,-0.006381554184363749,
0.04518703241895262,-0.030384998758520673,
0.04523690773067331,-0.029794035233348996,
0.045286783042394016,-0.01949936108456684,
0.04533665835411471,-0.014020622056135959,
0.045386533665835414,0.003102168810786076,
0.04543640897755611,-0.04530273686039554,
0.045486284289276806,-0.03301650186933264,
0.04553615960099751,-0.011070072726151958,
0.045586034912718204,-0.003273588926297097,
0.0456359102244389,0.008095225667048508,
0.0456857855361596,-0.026860394705826476,
0.0457356608478803,-0.0055669091757908715,
0.045785536159601,-0.020659078634524902,
0.045835411471321696,-0.01025172308770387,
0.04588528678304239,0.002536146702355132,
0.045935162094763095,-0.029268981716391924,
0.04598503740648379,-0.008552211812759392,
0.046034912718204486,-0.023589622272206588,
0.04608478802992519,0.011751663639751931,
0.046134663341645885,0.00848381859777133,
0.04618453865336658,-0.020478190130569455,
0.04623441396508728,-0.032034295463610266,
0.04628428927680798,-0.027281808660054387,
0.04633416458852868,-0.03714657863336081,
0.04638403990024938,-0.004737705838611668,
0.04643391521197007,-0.009377576291560278,
0.046483790523690775,-0.014801012270782928,
0.04653366583541147,-0.026817227682333994,
0.04658354114713217,-0.002363068832522828,
0.04663341645885287,-0.00983985492599316,
0.046683291770573565,-0.014076517364628451,
0.04673316708229427,-0.017190441711031915,
0.04678304239401496,0.009611563836327415,
0.04683291770573566,-0.035884639252590195,
0.04688279301745636,-0.005933822565017426,
0.04693266832917706,-0.027899465905000313,
0.04698254364089775,-0.019893682797426027,
0.047032418952618456,-0.016372947393063404,
0.04708229426433915,-0.029029743807675992,
0.04713216957605985,-0.007201441869859091,
0.04718204488778055,-0.021237338375205493,
0.047231920199501246,-0.017985071770610535,
0.04728179551122195,-0.016826090204220275,
0.047331670822942644,-0.011057827504435722,
0.04738154613466334,-0.028839650287821733,
0.04743142144638404,-0.016821320891553943,
0.04748129675810474,-0.022530861074037612,
0.047531172069825434,-0.024750035637439424,
0.047581047381546136,-0.006946276664852051,
0.04763092269326683,-0.02165163726359955,
0.047680798004987535,0.005037153099834865,
0.04773067331670823,-0.008764037373283514,
0.047780548628428926,-0.0007023630289150814,
0.04783042394014963,-0.003692746799221238,
0.047880299251870324,-0.03490442984728958,
0.04793017456359102,-0.02765975199894377,
0.04798004987531172,-0.03908754929619644,
0.04802992518703242,0.020573515645868755,
0.048079800498753114,-0.0019713685718432848,
0.04812967581047382,-0.011068152969667249,
0.04817955112219451,0.0016155267175377713,
0.048229426433915215,0.0019233563485544052,
0.04827930174563591,0.009966152891108478,
0.048329177057356607,-0.000582927425148521,
0.04837905236907731,-0.026073522291533525,
0.048428927680798005,-0.004383440200212462,
0.0484788029925187,-0.024941332268575,
0.0485286783042394,-0.03780864534880297,
0.0485785536159601,-0.013581576526738519,
0.048628428927680795,-0.013977293344299226,
0.0486783042394015,-0.011641905070604303,
0.04872817955112219,-0.003469718860893272,
0.048778054862842896,-0.009794254612677248,
0.04882793017456359,-0.014226590191133912,
0.04887780548628429,-0.024931625513461005,
0.04892768079800499,-0.01274542997383043,
0.048977556109725685,0.010607042773518413,
0.04902743142144638,0.004274182925074796,
0.049077306733167084,-0.014634612144106303,
0.04912718204488778,-0.020683948241681474,
0.04917705735660848,-0.028951107893347393,
0.04922693266832918,-0.0026746909279401184,
0.04927680798004987,-0.02780959135498465,
0.049326683291770576,-0.01225919300806939,
0.04937655860349127,-0.014602521398763812,
0.04942643391521197,-0.004362753163735934,
0.04947630922693267,0.018652741863123056,
0.049526184538653366,-0.02577124771245379,
0.04957605985037406,0.02698565981178587,
0.049625935162094764,-0.014333226498126456,
0.04967581047381546,-0.02813523359346863,
0.04972568578553616,-0.008002983439827636,
0.04977556109725686,0.0017847329782546843,
0.049825436408977554,0.006074618475520868,
0.04987531172069826,-0.013566237000344965,
0.04992518703241895,0.011986150768204373,
0.04997506234413965,-0.011352884217142464,
0.05002493765586035,0.01984889306789516,
0.050074812967581046,0.00781488218515278,
0.05012468827930175,0.021987687159327137,
0.050174563591022445,0.02589488770307087,
0.05022443890274314,-0.0053169864155484655,
0.05027431421446384,0.01451440154231378,
0.05032418952618454,-4.7699829588830796e-05,
0.050374064837905234,-0.007913196486975606,
0.05042394014962594,-0.010759640321945882,
0.05047381546134663,0.01526852954303439,
0.05052369077306733,-0.005052494568840738,
0.05057356608478803,0.03262319334800252,
0.05062344139650873,-0.017052135339492056,
0.05067331670822943,0.020857498825506866,
0.050723192019950125,0.003598243634323002,
0.05077306733167082,0.0055119209593286955,
0.050822942643391524,-0.021067017201246735,
0.05087281795511222,0.028047834164687396,
0.050922693266832915,0.025010348987665187,
0.05097256857855362,0.0006244361616705805,
0.05102244389027431,-0.003520709553227917,
0.051072319201995016,-0.0022005418879818515,
0.05112219451371571,0.0030719815483259087,
0.05117206982543641,-0.009715206486365036,
0.05122194513715711,0.03945024090648854,
0.051271820448877806,0.03737916694475968,
0.0513216957605985,-0.018157239735379176,
0.051371571072319204,-0.021538532127279228,
0.0514214463840399,0.0037874914653761495,
0.051471321695760595,0.03625834527849284,
0.0515211970074813,0.018053864919935166,
0.051571072319201994,0.029785404191280618,
0.051620947630922696,0.020287612946112095,
0.05167082294264339,-0.004308351060540273,
0.05172069825436409,0.02602533975142359,
0.05177057356608479,0.004982299619501673,
0.051820448877805486,-0.014596287455005392,
0.05187032418952618,-0.006694583737967405,
0.051920199501246884,0.0009246017694030471,
0.05197007481296758,0.0018767174647950982,
0.052019950124688276,0.032751539560131236,
0.05206982543640898,0.02340999994282011,
0.052119700748129674,0.029131326543903314,
0.05216957605985038,0.0395507016063579,
0.05221945137157107,0.01864466798765527,
0.05226932668329177,0.0002227795657021893,
0.05231920199501247,0.02404414154854633,
0.05236907730673317,0.03389376001827156,
0.05241895261845386,0.023479849984120015,
0.052468827930174565,0.051338376349729334,
0.05251870324189526,0.007811693086960439,
0.05256857855361596,0.015092374596951395,
0.05261845386533666,0.015223418752778165,
0.052668329177057355,0.025971200385175232,
0.05271820448877806,0.015451560816835555,
0.05276807980049875,0.019297147339263743,
0.05281795511221945,0.013723693923194438,
0.05286783042394015,0.015096148011578301,
0.05291770573566085,0.012829203387055881,
0.05296758104738154,0.00473911111534614,
0.053017456359102245,0.03409118029565677,
0.05306733167082294,0.016245314936414446,
0.053117206982543644,0.005237177353667889,
0.05316708229426434,0.017297204615546798,
0.053216957605985035,0.022952257908016346,
0.05326683291770574,0.01623538811784487,
0.053316708229426434,0.02004607025742374,
0.05336658354114713,0.017608439231637452,
0.05341645885286783,0.01616580120473812,
0.05346633416458853,0.0015280044577338087,
0.05351620947630923,0.0001780943621379101,
0.053566084788029926,0.03175382489782435,
0.05361596009975062,0.021414801909466694,
0.053665835411471324,0.012003848135561795,
0.05371571072319202,0.052309012438416916,
0.053765586034912716,0.04278120072951573,
0.05381546134663342,0.017249111425183233,
0.053865336658354114,0.04521870797834233,
0.05391521197007481,0.047973956638417754,
0.05396508728179551,0.007092598557769846,
0.05401496259351621,0.030471547330468307,
0.05406483790523691,0.018716703614480145,
0.054114713216957606,0.03335638846450756,
0.0541645885286783,0.05376710181938482,
0.054214463840399005,0.033375341309259336,
0.0542643391521197,0.012835576690766013,
0.054314214463840396,0.02892881454116153,
0.0543640897755611,0.02885077724940901,
0.054413965087281795,0.041672141973450386,
0.0544638403990025,0.05707573966819175,
0.05451371571072319,-0.007552444249859139,
0.05456359102244389,0.025824849585228987,
0.05461346633416459,0.00925056931713934,
0.05466334164588529,0.058719482694193345,
0.05471321695760598,0.01986690444808586,
0.054763092269326685,0.03276607206065124,
0.05481296758104738,0.017996187865719753,
0.05486284289276808,0.005984993335383788,
0.05491271820448878,0.02617757399454304,
0.054962593516209475,0.017835621413584326,
0.05501246882793018,0.030892874776271652,
0.05506234413965087,0.014215009827160474,
0.05511221945137157,0.019538172382498536,
0.05516209476309227,0.03688990981385824,
0.05521197007481297,0.02914500713143828,
0.05526184538653366,0.012280229731942746,
0.055311720698254366,0.036541209823445706,
0.05536159600997506,0.015064170715189921,
0.05541147132169576,0.029955070548830433,
0.05546134663341646,0.028754542146335983,
0.055511221945137156,0.026560710508797016,
0.05556109725685786,0.03109795617755952,
0.055610972568578554,0.03639165706498357,
0.05566084788029925,0.021219160974563826,
0.05571072319201995,0.01841133613716413,
0.05576059850374065,0.04743024765703396,
0.055810473815461344,0.010827193023334077,
0.055860349127182046,0.01904025576897346,
0.05591022443890274,0.020023258269202395,
0.055960099750623445,0.024440286061484434,
0.05600997506234414,0.02256595950408909,
0.056059850374064836,0.02811331030724087,
0.05610972568578554,0.03238217353386096,
0.056159600997506234,0.04780612949653061,
0.05620947630922693,0.02614515442738021,
0.05625935162094763,0.03116250993646561,
0.05630922693266833,0.0401880480649988,
0.056359102244389024,0.004459723793867436,
0.05640897755610973,0.022859275121021944,
0.05645885286783042,0.04185266835527984,
0.056508728179551125,0.02360364080437253,
0.05655860349127182,0.04858964118474499,
0.056608478802992516,0.004918315683351694,
0.05665835411471322,0.024101275168698894,
0.056708229426433915,0.020482144910158158,
0.05675810473815461,0.0019674376658970934,
0.05680798004987531,0.05467532018230627,
0.05685785536159601,0.003847909956535254,
0.05690773067331671,-0.014751081762694448,
0.05695760598503741,0.007466210595251505,
0.0570074812967581,-0.01068850882019224,
0.057057356608478806,-0.0018951259475383335,
0.0571072319201995,0.037609284998900594,
0.0571571072319202,0.04282471506759025,
0.0572069825436409,0.034995435533427884,
0.057256857855361595,0.007208670420666365,
0.05730673316708229,0.03136599494018713,
0.057356608478802994,0.0035263309068067072,
0.05740648379052369,0.020160291912602768,
0.05745635910224439,0.01174540871146889,
0.05750623441396509,0.004040229037288061,
0.05755610972568578,0.03455271416827053,
0.057605985037406486,0.014407772361213886,
0.05765586034912718,0.019931209339299732,
0.05770573566084788,0.03292669048619083,
0.05775561097256858,0.010281325295484148,
0.057805486284289276,0.010585783372489655,
0.05785536159600998,0.023046072955856606,
0.057905236907730674,0.022169376402421344,
0.05795511221945137,0.01256716648794837,
0.05800498753117207,0.010426934011618379,
0.05805486284289277,0.012327842961804763,
0.058104738154613464,0.02252063109373243,
0.05815461346633417,0.0078265102789321,
0.05820448877805486,0.0231656745428966,
0.05825436408977556,0.018968080924624063,
0.05830423940149626,0.01673202873093693,
0.058354114713216956,0.02936785687931593,
0.05840399002493766,0.04610209678975623,
0.058453865336658355,0.0006658684278614876,
0.05850374064837905,0.006928152046115871,
0.05855361596009975,0.0448913931102219,
0.05860349127182045,0.025989709200596005,
0.058653366583541144,0.03795326305713628,
0.05870324189526185,0.02274865811424276,
0.05875311720698254,0.013284171884377553,
0.05880299251870324,0.00348945766297676,
0.05885286783042394,0.013880060790498111,
0.05890274314214464,0.021811875105533143,
0.05895261845386534,0.03390798984680047,
0.059002493765586035,0.021264266085481223,
0.05905236907730673,0.012077713470824319,
0.059102244389027433,0.002661531527099645,
0.05915211970074813,0.0020044734654794914,
0.059201995012468825,0.017276045619149593,
0.05925187032418953,0.017694083390844384,
0.05930174563591022,0.00244190879710095,
0.059351620947630926,0.00810365731870834,
0.05940149625935162,0.014836572679693235,
0.05945137157107232,0.0015713266840644618,
0.05950124688279302,-0.006233326466534808,
0.059551122194513716,0.01678554197306175,
0.05960099750623441,0.025899090987704404,
0.059650872817955114,0.015040619541078267,
0.05970074812967581,-0.0015565834551025956,
0.059750623441396505,0.030346666650299094,
0.05980049875311721,-0.011479790471982606,
0.059850374064837904,0.02690284618885196,
0.059900249376558606,0.009084301244744332,
0.0599501246882793,-0.008873685936159377,
0.06,0.01704919373113479,
0.0600498753117207,0.000510009220421259,
0.060099750623441396,0.03847594507135501,
0.06014962593516209,0.03532955464834556,
0.060199501246882794,0.007763928042502907,
0.06024937655860349,0.0034699598466336364,
0.06029925187032419,0.0026484098440911078,
0.06034912718204489,0.029830833107841334,
0.060399002493765584,0.0019905433311253684,
0.06044887780548629,-0.016350021136455596,
0.06049875311720698,0.026001021822737072,
0.06054862842892768,-0.006478756556317812,
0.06059850374064838,0.013672627304371004,
0.06064837905236908,0.027532081346298875,
0.06069825436408977,0.01218135477424144,
0.060748129675810475,-0.010859884806557356,
0.06079800498753117,-0.007587676864956947,
0.06084788029925187,0.0006320173260416254,
0.06089775561097257,0.01057024084553804,
0.060947630922693265,0.003368877834293558,
0.06099750623441397,-0.006000099531503473,
0.06104738154613466,-0.03292282008731211,
0.06109725685785536,0.02655435890109816,
0.06114713216957606,0.024226320502541792,
0.06119700748129676,-0.01041259509754814,
0.06124688279301746,-0.010340002250960226,
0.061296758104738155,-0.02046279670539894,
0.06134663341645885,-0.030054290385072915,
0.061396508728179554,0.031667815039202955,
0.06144638403990025,-0.0020429234768699588,
0.061496259351620945,-0.01668548426137748,
0.06154613466334165,-0.00028832560131263627,
0.061596009975062344,0.0016094796161949011,
0.06164588528678304,-0.000612360320826102,
0.06169576059850374,-0.011860902606394837,
0.06174563591022444,-0.022688649567884286,
0.06179551122194514,0.010424493183030513,
0.061845386533665836,-0.021527042379587358,
0.06189526184538653,-0.014081938252719172,
0.061945137157107234,0.027329329449282777,
0.06199501246882793,-0.010263476467160318,
0.062044887780548626,-0.010985101582379775,
0.06209476309226933,-0.01694597234837182,
0.062144638403990024,0.01689175232245808,
0.06219451371571072,-0.01818434394303464,
0.06224438902743142,-0.0014142809593112515,
0.06229426433915212,-0.025072110797568544,
0.06234413965087282,7.732617905616655e-05,
0.062394014962593516,0.015776155214825803,
0.06244389027431421,-0.005856518691701228,
0.062493765586034915,-0.00916133278019001,
0.06254364089775562,-0.025287536721095228,
0.06259351620947631,0.012272922465275728,
0.06264339152119701,0.010115293890287574,
0.0626932668329177,-0.012517637211170227,
0.0627431421446384,-0.0029674940021461108,
0.0627930174563591,-0.01378432387105365,
0.0628428927680798,-0.014979919165361403,
0.0628927680798005,-0.012199337273688863,
0.0629426433915212,-0.0010567557064463887,
0.06299251870324189,-0.022899741450374503,
0.06304239401496259,0.012194481840414743,
0.0630922693266833,0.0024049338403192965,
0.063142144638404,-0.003793624422886755,
0.06319201995012469,0.004441967821823475,
0.06324189526184539,-0.03699534809766307,
0.06329177057356608,0.019886820099364055,
0.06334164588528678,-0.006308618217349783,
0.06339152119700749,0.005242143376621822,
0.06344139650872818,-0.00868377096822618,
0.06349127182044888,-0.007301262386079902,
0.06354114713216957,-0.008092888108475466,
0.06359102244389027,-0.0034675341327114317,
0.06364089775561098,-0.04231301799167031,
0.06369077306733167,-0.022287883870775238,
0.06374064837905237,-0.02258921345939966,
0.06379052369077307,0.00031887709307953926,
0.06384039900249376,-0.017446397312640888,
0.06389027431421446,-0.021221485272544166,
0.06394014962593517,-0.027971390188341015,
0.06399002493765586,0.01012294152618625,
0.06403990024937656,-0.014294217308243273,
0.06408977556109725,-0.005423669626157273,
0.06413965087281795,-0.02737722584467329,
0.06418952618453866,-0.0066644786698781,
0.06423940149625935,-0.020338122354551052,
0.06428927680798005,0.017966283791698946,
0.06433915211970075,-0.01021827875322487,
0.06438902743142144,-0.02081939230281222,
0.06443890274314215,-0.030329618331716983,
0.06448877805486285,-0.006694831850036052,
0.06453865336658354,-0.02296492817462272,
0.06458852867830424,-0.018556603143530647,
0.06463840399002493,-0.02772022777330948,
0.06468827930174563,0.00011987547990144169,
0.06473815461346634,-0.028714212422608017,
0.06478802992518704,-0.022437688399040895,
0.06483790523690773,-0.019073286578618173,
0.06488778054862843,-0.020810627051228124,
0.06493765586034912,-0.016854861714066045,
0.06498753117206983,0.012433927186388614,
0.06503740648379053,0.008486216615947671,
0.06508728179551122,-0.01457213593425471,
0.06513715710723192,-0.01384011912454562,
0.06518703241895261,-0.014974879434680748,
0.06523690773067331,-0.032840486918197506,
0.06528678304239402,0.0021816521163191965,
0.06533665835411472,-0.015894826271108702,
0.06538653366583541,-0.009062636846269399,
0.06543640897755611,0.011129079779963975,
0.0654862842892768,-0.01925263612220254,
0.06553615960099751,-0.009401594052480498,
0.06558603491271821,-0.003487445346637145,
0.0656359102244389,-0.013384772318472678,
0.0656857855361596,-0.016262097884085766,
0.0657356608478803,-0.02220087376626443,
0.06578553615960099,-0.01438564437629278,
0.0658354114713217,-0.03748012521921652,
0.0658852867830424,-0.0026164492510103356,
0.06593516209476309,-0.018525237091046063,
0.06598503740648379,-0.005215344368830591,
0.06603491271820448,0.013230048061660327,
0.06608478802992519,-0.017501330722354644,
0.06613466334164589,0.016852172252871847,
0.06618453865336658,-0.02669901497398529,
0.06623441396508728,-0.028874101449700318,
0.06628428927680798,0.008016326066492795,
0.06633416458852869,-0.00953477792874784,
0.06638403990024938,-0.030210568165427918,
0.06643391521197008,-0.02788457783460809,
0.06648379052369077,-0.02646723221407766,
0.06653366583541147,-0.03883178240442137,
0.06658354114713216,-0.005450068529106144,
0.06663341645885287,0.0020377240185818508,
0.06668329177057357,-0.024346108270330853,
0.06673316708229426,0.0016216491956853579,
0.06678304239401496,-0.020489626612032238,
0.06683291770573566,-0.01440566955496407,
0.06688279301745637,-0.01817289456610453,
0.06693266832917706,-0.017262787350361547,
0.06698254364089776,-0.031800352513590535,
0.06703241895261845,0.002511742388010312,
0.06708229426433915,-0.013855684324908305,
0.06713216957605984,-0.011600467492369315,
0.06718204488778055,-0.003928779515496664,
0.06723192019950125,-0.00448082317434892,
0.06728179551122195,-0.01823070228226062,
0.06733167082294264,0.0012483603381209466,
0.06738154613466334,-0.029114317854927293,
0.06743142144638405,-0.00854817562954967,
0.06748129675810474,0.0040522954902521766,
0.06753117206982544,0.002586406113097444,
0.06758104738154613,-0.010917641811360925,
0.06763092269326683,-0.01723744173291233,
0.06768079800498752,0.0022367662713520253,
0.06773067331670823,-0.013910859366739917,
0.06778054862842893,-0.021467256961297282,
0.06783042394014963,0.01949511308896871,
0.06788029925187032,-0.01798479416207869,
0.06793017456359102,-0.0007250098272380988,
0.06798004987531173,-0.02028675479178502,
0.06802992518703242,0.02210171895874871,
0.06807980049875312,-0.027137379761854152,
0.06812967581047381,0.0022402101985286955,
0.06817955112219451,0.023636140638437806,
0.0682294264339152,-0.005220030203224154,
0.06827930174563591,0.006379266140137937,
0.06832917705735661,-0.020933471440936376,
0.0683790523690773,-0.002329794424852691,
0.068428927680798,0.008743925267768977,
0.0684788029925187,-0.000590687825549341,
0.06852867830423941,0.0056901335317343284,
0.0685785536159601,0.006214242646467799,
0.0686284289276808,0.005369388732966001,
0.0686783042394015,-0.01549060197922704,
0.06872817955112219,-0.030518725838535488,
0.0687780548628429,-0.010166253714110627,
0.0688279301745636,-0.02213191838226114,
0.06887780548628429,-0.00939620455665343,
0.06892768079800499,0.0016876740718798165,
0.06897755610972568,-0.004026911685518946,
0.06902743142144638,-0.0039862687731186276,
0.06907730673316709,0.005524218914214834,
0.06912718204488778,-0.005766098528951745,
0.06917705735660848,9.368787747009481e-05,
0.06922693266832917,0.001761084490776351,
0.06927680798004987,0.0006024006067873983,
0.06932668329177058,-0.010820724678008731,
0.06937655860349128,0.026306702456159382,
0.06942643391521197,-0.005625785390848077,
0.06947630922693267,0.015605808834978297,
0.06952618453865336,0.02038334984863102,
0.06957605985037406,0.004404850897968064,
0.06962593516209477,0.0054324789082564745,
0.06967581047381546,0.007428904086452547,
0.06972568578553616,0.008074801482088573,
0.06977556109725686,0.002260524933191006,
0.06982543640897755,-0.012794591928210551,
0.06987531172069826,0.0007764815932541701,
0.06992518703241896,0.003886625180956446,
0.06997506234413965,-0.00772327101697519,
0.07002493765586035,0.0037260950630498522,
0.07007481296758104,0.018829166337591328,
0.07012468827930174,0.0004810216812265256,
0.07017456359102245,-0.004647651149520146,
0.07022443890274314,-0.005121946605622438,
0.07027431421446384,-0.010188245370897839,
0.07032418952618454,-0.004406335932544393,
0.07037406483790523,-0.0005575361896690773,
0.07042394014962594,0.015514472725384101,
0.07047381546134664,0.022665421724650442,
0.07052369077306733,0.0031042879719402035,
0.07057356608478803,0.029406324631505144,
0.07062344139650872,0.0016293150800805187,
0.07067331670822943,-0.001962396997662947,
0.07072319201995013,0.012889713291627854,
0.07077306733167082,0.022955957181371597,
0.07082294264339152,-0.001275610337848376,
0.07087281795511222,0.0012780791146608187,
0.07092269326683291,0.018179608762531125,
0.07097256857855362,-0.013014231867989334,
0.07102244389027432,0.008505225041763466,
0.07107231920199501,0.027292889374124163,
0.07112219451371571,0.025111351672803553,
0.0711720698254364,0.04007101948541027,
0.07122194513715711,0.010839403889728438,
0.07127182044887781,0.030224081601036616,
0.0713216957605985,0.03206974273115309,
0.0713715710723192,0.014949776393476633,
0.0714214463840399,0.0199834483000402,
0.07147132169576059,0.005967563931890495,
0.0715211970074813,0.0026057556688440526,
0.071571072319202,-0.007052037566404646,
0.0716209476309227,-0.009439214921230798,
0.07167082294264339,0.004347575132923231,
0.07172069825436408,0.014109525664016912,
0.0717705735660848,0.03146202870557348,
0.07182044887780549,-0.005351074613184046,
0.07187032418952619,0.03369836349712172,
0.07192019950124688,0.007450141478291837,
0.07197007481296758,-0.006324701661349429,
0.07201995012468827,0.020727113697764164,
0.07206982543640898,0.04769066921508969,
0.07211970074812968,0.001044602806330789,
0.07216957605985037,-0.020667922619360082,
0.07221945137157107,0.027652418510598374,
0.07226932668329177,0.021813463756480512,
0.07231920199501247,0.04160701651090008,
0.07236907730673317,0.03458317573609058,
0.07241895261845387,-0.011794096491653031,
0.07246882793017456,0.0011975253206566693,
0.07251870324189526,0.02646545894066544,
0.07256857855361595,0.018507732549153666,
0.07261845386533666,0.03612327190679096,
0.07266832917705736,0.02332969707601917,
0.07271820448877805,0.019668983974222492,
0.07276807980049875,0.030203516443377237,
0.07281795511221945,0.02350990481712603,
0.07286783042394016,0.011463192814224433,
0.07291770573566085,0.022457758119780444,
0.07296758104738155,0.009476349076476162,
0.07301745635910224,0.02148415548062214,
0.07306733167082294,0.013382562332208,
0.07311720698254365,0.04182595161352465,
0.07316708229426434,0.021842992830366642,
0.07321695760598504,-0.013824708848706704,
0.07326683291770573,0.025512154344891458,
0.07331670822942643,0.024117707479144424,
0.07336658354114713,0.030423846029248688,
0.07341645885286784,0.030365880345733082,
0.07346633416458853,0.02669233443741472,
0.07351620947630923,0.03900498785991823,
0.07356608478802992,-0.012637444557506674,
0.07361596009975062,0.03174300480479789,
0.07366583541147133,0.0341646694763377,
0.07371571072319202,0.02108732717131229,
0.07376558603491272,0.002780149497647124,
0.07381546134663342,0.007116932089006097,
0.07386533665835411,0.012719670057053243,
0.0739152119700748,0.002052293423408607,
0.07396508728179552,0.06337099795260336,
0.07401496259351621,0.013406404158505055,
0.07406483790523691,0.023530368964530514,
0.0741147132169576,0.02165111856117635,
0.0741645885286783,0.035949573528944866,
0.07421446384039901,0.011936977605086599,
0.0742643391521197,0.04029065855117504,
0.0743142144638404,0.05220646951382191,
0.0743640897755611,-0.001314913504680229,
0.07441396508728179,0.014829063250908128,
0.07446384039900249,0.03459457558124329,
0.0745137157107232,0.02672280788013581,
0.07456359102244389,0.023577439387514422,
0.07461346633416459,0.017544214452266692,
0.07466334164588528,0.02076670462303247,
0.07471321695760598,0.020365178676648013,
0.07476309226932669,0.03957004679066392,
0.07481296758104738,0.03626870345190349,
0.07486284289276808,0.044065285816557304,
0.07491271820448878,0.011518876989925297,
0.07496259351620947,0.022488971562325842,
0.07501246882793017,0.03536099329854591,
0.07506234413965088,0.03719039790285755,
0.07511221945137157,0.022560615208723427,
0.07516209476309227,0.00832701258696858,
0.07521197007481296,0.018983255159286165,
0.07526184538653366,0.03018632392255552,
0.07531172069825437,0.023479134095967028,
0.07536159600997507,0.02836882794408727,
0.07541147132169576,0.026229063296067723,
0.07546134663341646,0.016004632452357174,
0.07551122194513715,0.023189337158616714,
0.07556109725685786,0.03675829885782049,
0.07561097256857856,0.021984991441430693,
0.07566084788029925,0.033065113905367496,
0.07571072319201995,0.029624244144943006,
0.07576059850374064,0.025550873601040407,
0.07581047381546134,0.035488739851360786,
0.07586034912718205,0.018658949068414234,
0.07591022443890275,0.043522871559258616,
0.07596009975062344,-0.01174366743058021,
0.07600997506234414,0.026709321283102043,
0.07605985037406483,0.00577917079711086,
0.07610972568578554,0.03298778458458891,
0.07615960099750624,0.020654958400168448,
0.07620947630922693,-0.01193512159751254,
0.07625935162094763,0.022361054276805292,
0.07630922693266833,0.013015734363209465,
0.07635910224438902,0.006319276637516743,
0.07640897755610973,0.006634164449354763,
0.07645885286783043,0.008684924727838418,
0.07650872817955112,0.007454718232373481,
0.07655860349127182,0.01958798265819117,
0.07660847880299251,0.004735030515622549,
0.07665835411471322,0.04126443567280269,
0.07670822942643392,-0.012474771419632897,
0.07675810473815461,0.03251397231326437,
0.07680798004987531,0.03434941404689827,
0.076857855361596,-0.0016625830602159108,
0.0769077306733167,0.04585949174257384,
0.07695760598503741,0.014555297505167562,
0.0770074812967581,0.02966271626810796,
0.0770573566084788,0.029287346073903674,
0.0771072319201995,0.041971313712593133,
0.0771571072319202,0.02067205924222235,
0.0772069825436409,0.01426229614716504,
0.0772568578553616,0.021287098109999507,
0.0773067331670823,0.019063015398483787,
0.07735660847880299,0.005132521554995568,
0.07740648379052369,0.016182568915581758,
0.0774563591022444,0.015090827895663749,
0.07750623441396509,0.030568099440600335,
0.07755610972568579,0.009487386481461245,
0.07760598503740648,0.03353212013586722,
0.07765586034912718,0.00814172441811486,
0.07770573566084787,0.015654802701596252,
0.07775561097256858,0.019445858938359168,
0.07780548628428928,0.03543790685690509,
0.07785536159600998,0.03217174576101514,
0.07790523690773067,0.018444091672193054,
0.07795511221945137,0.050587130266824036,
0.07800498753117208,0.033315477160968957,
0.07805486284289277,0.041677736701811914,
0.07810473815461347,0.004991661221398365,
0.07815461346633416,0.025900130116411478,
0.07820448877805486,0.027563267855965266,
0.07825436408977555,0.02684423320331695,
0.07830423940149626,-0.004395555397037263,
0.07835411471321696,-0.012634930212079853,
0.07840399002493766,0.008849650073631879,
0.07845386533665835,0.007271129227237246,
0.07850374064837905,0.05188231920075957,
0.07855361596009976,0.027071140298338722,
0.07860349127182045,0.019225768581639727,
0.07865336658354115,0.00653817954215761,
0.07870324189526184,0.013827461776484737,
0.07875311720698254,0.0075789231284044325,
0.07880299251870324,-0.005016551192801873,
0.07885286783042394,0.002339178548781405,
0.07890274314214464,0.03153906337815679,
0.07895261845386534,0.009874929829837122,
0.07900249376558603,0.007941183383475174,
0.07905236907730673,0.014064305453199089,
0.07910224438902744,-0.0034991134595608563,
0.07915211970074813,-0.0016808243341164299,
0.07920199501246883,0.034205897813729444,
0.07925187032418952,0.008019925187888601,
0.07930174563591022,0.023046947283874644,
0.07935162094763092,0.023075399123280077,
0.07940149625935163,0.005712391067886536,
0.07945137157107232,0.023220508591734322,
0.07950124688279302,-0.011926840072601193,
0.07955112219451371,-0.008605554868453344,
0.07960099750623441,0.011373809797614553,
0.07965087281795512,-0.016307126992823304,
0.07970074812967581,0.034234028964175586,
0.07975062344139651,0.02604787096961991,
0.0798004987531172,0.0046310096833723224,
0.0798503740648379,-0.018958569870607456,
0.07990024937655861,0.01777435427671545,
0.0799501246882793,-0.015561573604959727,
0.08,0.003140849602003198,
0.0800498753117207,-0.00940862914450799,
0.0800997506234414,-0.00706077465695019,
0.08014962593516209,-0.009723403711300867,
0.0801995012468828,0.021868129359913297,
0.0802493765586035,0.004130593252177831,
0.08029925187032419,-0.009389055814873652,
0.08034912718204489,0.004729830985166862,
0.08039900249376558,-0.0013413051314962194,
0.08044887780548629,0.022407193129218135,
0.08049875311720699,0.03045371895990464,
0.08054862842892768,0.019947800899447837,
0.08059850374064838,-0.010191862280610472,
0.08064837905236907,-0.025457752532091045,
0.08069825436408977,-0.0027170255924933518,
0.08074812967581048,-0.00405454628818292,
0.08079800498753117,0.012980836781638081,
0.08084788029925187,-0.022444594799532303,
0.08089775561097257,-0.010280474983937946,
0.08094763092269326,-0.012615495593980272,
0.08099750623441397,-0.011002457324932787,
0.08104738154613467,-0.002278840407199841,
0.08109725685785536,0.014741090240335418,
0.08114713216957606,-0.007340128203485949,
0.08119700748129675,-0.03016179964372101,
0.08124688279301745,-0.002935508660356148,
0.08129675810473816,-0.024420076776480518,
0.08134663341645886,-0.002846276803839142,
0.08139650872817955,-0.025375305379583296,
0.08144638403990025,-0.0011352294133780015,
0.08149625935162094,0.0038555261907575007,
0.08154613466334165,0.014851967585612406,
0.08159600997506235,-0.0022372620176292234,
0.08164588528678304,0.010686242686156183,
0.08169576059850374,0.013935523708311737,
0.08174563591022443,0.00010763825573207458,
0.08179551122194513,-0.030021224219564654,
0.08184538653366584,0.012264173822420461,
0.08189526184538654,-0.01578724833642573,
0.08194513715710723,-0.003934592373359325,
0.08199501246882793,0.013153302377875434,
0.08204488778054862,-0.009412979127584983,
0.08209476309226933,0.011132332054771467,
0.08214463840399003,0.009233528622385478,
0.08219451371571072,0.02069817717644501,
0.08224438902743142,-0.012632486756289061,
0.08229426433915212,0.024467706371379377,
0.08234413965087282,-0.009360729687260864,
0.08239401496259352,-0.013952613282012496,
0.08244389027431422,-0.004223046147439473,
0.08249376558603491,-0.0026427606204175984,
0.08254364089775561,-0.008745232897925082,
0.0825935162094763,0.001186688651967199,
0.08264339152119701,-0.011593062201394822,
0.08269326683291771,-0.04933455152299349,
0.0827431421446384,-0.006247416210418737,
0.0827930174563591,-0.021828106892042384,
0.0828428927680798,0.007102446498121801,
0.0828927680798005,-0.01762829982533308,
0.0829426433915212,-0.010501524915019135,
0.0829925187032419,-0.008454993885766395,
0.08304239401496259,-0.02408532844530446,
0.08309226932668329,-0.01367783041623953,
0.08314214463840398,-0.00725502919122694,
0.0831920199501247,-0.027027574305341404,
0.08324189526184539,0.00331670260105775,
0.08329177057356608,-0.01949540485611437,
0.08334164588528678,-0.011001409871694198,
0.08339152119700748,-0.011024712097475076,
0.08344139650872819,0.004170573398750868,
0.08349127182044888,-0.02241596159621185,
0.08354114713216958,-0.013266933917051863,
0.08359102244389027,0.002534519930991592,
0.08364089775561097,-0.00758123769073937,
0.08369077306733166,-0.001494968788562959,
0.08374064837905237,0.011435666443634144,
0.08379052369077307,-0.02249300884760176,
0.08384039900249377,0.002860768658489431,
0.08389027431421446,-0.017460690782919924,
0.08394014962593516,-0.03174992980456661,
0.08399002493765587,-0.010008578941627102,
0.08403990024937656,-0.030432074098288683,
0.08408977556109726,-0.02211188046440208,
0.08413965087281795,-0.006773064643752456,
0.08418952618453865,-0.009274006027412131,
0.08423940149625936,0.009553413637334227,
0.08428927680798005,-0.002281172442408415,
0.08433915211970075,-0.021056032164069663,
0.08438902743142145,-0.0053857431610446005,
0.08443890274314214,-0.018217222880604664,
0.08448877805486284,-0.031287894346611105,
0.08453865336658355,-0.01676241023741531,
0.08458852867830424,-0.01142128076613382,
0.08463840399002494,-0.03347715221961367,
0.08468827930174563,-0.003173770984413576,
0.08473815461346633,0.005828185323204397,
0.08478802992518704,-0.0006802306667716747,
0.08483790523690773,-0.0005963973241046965,
0.08488778054862843,-0.007501119636564094,
0.08493765586034913,0.00847616660326358,
0.08498753117206982,-0.0011247656750738542,
0.08503740648379052,-0.0073304865793908545,
0.08508728179551123,-0.0012533179240692034,
0.08513715710723192,-0.004246672454387319,
0.08518703241895262,-0.017098644161551987,
0.08523690773067331,-0.02963867942541747,
0.08528678304239401,-0.0123978186840802,
0.08533665835411472,-0.012131511332372847,
0.08538653366583542,-0.016743978756082644,
0.08543640897755611,-0.012833484255896109,
0.0854862842892768,-0.029199668183722417,
0.0855361596009975,-0.0016893989317604899,
0.0855860349127182,-0.01254325543966706,
0.08563591022443891,0.0034893346394062573,
0.0856857855361596,0.006827537437498803,
0.0857356608478803,-0.03336020972849649,
0.085785536159601,-0.01831229529600705,
0.08583541147132169,-0.007938038246278397,
0.0858852867830424,-0.03456295865716272,
0.0859351620947631,-0.0028874929904840006,
0.08598503740648379,-0.029274250980031644,
0.08603491271820449,-0.008882659433918572,
0.08608478802992518,-0.04596357696530623,
0.08613466334164588,-0.05985255428006318,
0.08618453865336659,0.0007749201582340822,
0.08623441396508728,-0.01895601616600043,
0.08628428927680798,-0.008276984289332712,
0.08633416458852868,-0.027095353376116276,
0.08638403990024937,-0.015516520157429492,
0.08643391521197008,-0.01769084455588742,
0.08648379052369078,-0.0022833178520814835,
0.08653366583541147,-0.033731028987670726,
0.08658354114713217,-0.00630208773349024,
0.08663341645885286,-0.029586257321849187,
0.08668329177057357,-0.018258942662914987,
0.08673316708229427,0.018109939453127846,
0.08678304239401496,-0.047144727248849216,
0.08683291770573566,-0.04293837212177926,
0.08688279301745636,-0.005249080617486911,
0.08693266832917705,-0.023218978834553657,
0.08698254364089776,0.010230838657949028,
0.08703241895261846,-0.021069799641266665,
0.08708229426433915,-0.018781765292588206,
0.08713216957605985,-0.026199291922774957,
0.08718204488778054,0.010253694419034322,
0.08723192019950125,0.004731514664991197,
0.08728179551122195,0.004597595546372147,
0.08733167082294264,-0.004262286041336746,
0.08738154613466334,-0.027295508788595428,
0.08743142144638404,-0.02498610235492435,
0.08748129675810473,-0.01969040802255173,
0.08753117206982544,-0.018128844995466433,
0.08758104738154614,-0.015619870688238616,
0.08763092269326683,-0.014874416856953083,
0.08768079800498753,-0.003641612812747451,
0.08773067331670822,-0.002039841794195498,
0.08778054862842893,-0.0014729934774396396,
0.08783042394014963,-0.014217298242729045,
0.08788029925187033,0.010576943703142123,
0.08793017456359102,-0.006739489675969756,
0.08798004987531172,-0.007313450423000816,
0.08802992518703241,0.004915823492187237,
0.08807980049875312,-0.006743333914562633,
0.08812967581047382,-0.008581311307834632,
0.08817955112219451,-0.001213249249974675,
0.08822942643391521,-0.011412231704280792,
0.0882793017456359,0.021950939672557866,
0.08832917705735661,0.0009261213598023964,
0.08837905236907731,-0.024660867220186223,
0.088428927680798,-0.00033145346065457937,
0.0884788029925187,-0.015541373064369174,
0.0885286783042394,0.010853196413609364,
0.0885785536159601,0.010742409238369638,
0.0886284289276808,0.01280939652586074,
0.0886783042394015,-0.019305562455952725,
0.0887281795511222,0.02363820374277729,
0.08877805486284289,-0.0029068039718121736,
0.08882793017456359,-0.0004837324709451924,
0.0888778054862843,0.018825079216093082,
0.08892768079800499,8.399567409185667e-05,
0.08897755610972569,0.02631853596623367,
0.08902743142144638,-0.014328871708829502,
0.08907730673316708,0.022613358062727178,
0.08912718204488779,-0.014166495591551063,
0.08917705735660848,0.0013171916544651864,
0.08922693266832918,-0.013083010008861128,
0.08927680798004987,-0.012437053185030569,
0.08932668329177057,0.01601192477299995,
0.08937655860349127,0.00928248316985597,
0.08942643391521198,-0.010809713202604798,
0.08947630922693267,0.003754352365731376,
0.08952618453865337,-0.00844045306973993,
0.08957605985037406,0.014098538967784286,
0.08962593516209476,-0.007793447844544268,
0.08967581047381547,-0.0011130617695324606,
0.08972568578553616,-7.404970354952297e-05,
0.08977556109725686,-0.024143330209900837,
0.08982543640897755,0.008912880923772444,
0.08987531172069825,0.0005898429330712654,
0.08992518703241895,0.004914181582800209,
0.08997506234413966,0.009426568985635408,
0.09002493765586035,0.00627682419405738,
0.09007481296758105,0.009441072016914645,
0.09012468827930174,0.008477443503554324,
0.09017456359102244,0.004888093279150451,
0.09022443890274315,-0.007428926547569548,
0.09027431421446384,0.010105279871728863,
0.09032418952618454,0.03043840113399083,
0.09037406483790524,0.012304171655689984,
0.09042394014962593,0.013486981447590205,
0.09047381546134663,0.01487759224839931,
0.09052369077306734,0.014397703354724855,
0.09057356608478803,0.00836332008242031,
0.09062344139650873,-0.00540711334628936,
0.09067331670822942,0.007693115179656734,
0.09072319201995012,-0.016418173206642857,
0.09077306733167083,0.0129859289690593,
0.09082294264339152,0.029674952503220914,
0.09087281795511222,0.042443046044103566,
0.09092269326683292,0.03947453238262808,
0.09097256857855361,0.017116573559114005,
0.09102244389027432,0.032381295682539314,
0.09107231920199502,0.024793179130727885,
0.09112219451371571,0.018545043888786226,
0.09117206982543641,0.023263209146784022,
0.0912219451371571,0.014350710886277786,
0.0912718204488778,0.0002851930288088212,
0.09132169576059851,-0.0016234301908277342,
0.0913715710723192,0.014600520068413917,
0.0914214463840399,0.01904483966524695,
0.0914713216957606,0.018887065238888216,
0.09152119700748129,0.010660351751149325,
0.091571072319202,0.013367895160171235,
0.0916209476309227,0.02280527104889776,
0.09167082294264339,0.01868864173613609,
0.09172069825436409,0.02062576124579548,
0.09177057356608478,0.04350220257835172,
0.09182044887780548,0.020677661328557587,
0.09187032418952619,0.01953637023782606,
0.09192019950124689,0.013875328803038232,
0.09197007481296758,-0.0009554742560789857,
0.09201995012468828,0.006622424419419334,
0.09206982543640897,0.04784530472293221,
0.09211970074812968,0.0103043359652949,
0.09216957605985038,0.024467518944779665,
0.09221945137157107,0.026413100065813183,
0.09226932668329177,0.018637549749295143,
0.09231920199501246,-0.00014853163132916986,
0.09236907730673316,0.04323896759958166,
0.09241895261845387,0.029557717328354598,
0.09246882793017457,0.01141960447164154,
0.09251870324189526,-0.005146408929209548,
0.09256857855361596,0.042997767327129253,
0.09261845386533665,0.049312560342938815,
0.09266832917705736,0.047439453430561565,
0.09271820448877806,0.019942002795759552,
0.09276807980049875,0.01123376093766403,
0.09281795511221945,0.011878385181313336,
0.09286783042394015,0.028013811566243413,
0.09291770573566084,0.007300450197803041,
0.09296758104738155,0.020236066433892592,
0.09301745635910225,0.02500455343161034,
0.09306733167082294,0.029929462796014272,
0.09311720698254364,0.02820525875889903,
0.09316708229426433,0.021300045301114567,
0.09321695760598504,-0.017942580747030982,
0.09326683291770574,0.01225715425316668,
0.09331670822942643,0.0398471931585266,
0.09336658354114713,0.015710121066315117,
0.09341645885286783,-0.013669027070523889,
0.09346633416458854,0.0026140833774640944,
0.09351620947630923,0.031363210029131734,
0.09356608478802993,0.004555041331587385,
0.09361596009975062,0.018702718621800188,
0.09366583541147132,-0.0006551691105984199,
0.09371571072319201,0.016351594808531697,
0.09376558603491272,0.020113076393540288,
0.09381546134663342,0.021508118733240728,
0.09386533665835411,0.023946786867516213,
0.09391521197007481,0.02738739108127723,
0.0939650872817955,0.024911746363774603,
0.09401496259351622,0.04053473448913293,
0.09406483790523691,0.024864066348949575,
0.09411471321695761,0.030634970994381575,
0.0941645885286783,0.030980111172458906,
0.094214463840399,0.02761854380131324,
0.0942643391521197,0.027692442363011705,
0.0943142144638404,0.026417398984325425,
0.0943640897755611,0.04237726018323217,
0.0944139650872818,0.024045870389968457,
0.09446384039900249,0.005970113708012988,
0.09451371571072319,0.01129109682259161,
0.0945635910224439,0.031039871416340382,
0.09461346633416459,0.04218493641945513,
0.09466334164588529,-0.010120303368604883,
0.09471321695760598,0.02941061068037642,
0.09476309226932668,0.03592970845652657,
0.09481296758104737,0.031415165256421004,
0.09486284289276808,0.020083295614912264,
0.09491271820448878,0.004830729384078119,
0.09496259351620948,0.05322589816404629,
0.09501246882793017,0.047219933786425805,
0.09506234413965087,0.021608279611277235,
0.09511221945137158,0.05070355680759284,
0.09516209476309227,0.03747751312324823,
0.09521197007481297,0.032811558799938925,
0.09526184538653366,0.017342813093868814,
0.09531172069825436,0.010969366553232187,
0.09536159600997507,0.030230878423542988,
0.09541147132169576,0.04756337763169188,
0.09546134663341646,0.0047685561169005415,
0.09551122194513716,0.027081870975120072,
0.09556109725685785,0.05214419674998618,
0.09561097256857855,0.0451972727700732,
0.09566084788029926,0.02523058157569525,
0.09571072319201995,0.020612341327218085,
0.09576059850374065,0.017596590267411852,
0.09581047381546134,0.0009106085203863731,
0.09586034912718204,0.030409766264218145,
0.09591022443890275,0.03697892161748429,
0.09596009975062345,0.015282822881101409,
0.09600997506234414,0.03720989107765909,
0.09605985037406484,0.05218030240472325,
0.09610972568578553,0.022522815659561157,
0.09615960099750623,0.03008804172842198,
0.09620947630922694,0.03157224094825358,
0.09625935162094763,0.012397726857649147,
0.09630922693266833,0.0132793219013249,
0.09635910224438902,0.0408039593233599,
0.09640897755610972,0.017572006145184345,
0.09645885286783043,0.035816863063944555,
0.09650872817955113,0.04517795060631262,
0.09655860349127182,0.031193124497717307,
0.09660847880299252,0.053733195091096066,
0.09665835411471321,0.008899246894649993,
0.09670822942643391,0.04242609268474555,
0.09675810473815462,0.01918379397812701,
0.09680798004987531,0.02080436350390745,
0.09685785536159601,0.024228536781087204,
0.0969077306733167,0.018897249143844778,
0.0969576059850374,0.03946939461948665,
0.09700748129675811,0.02126670544181105,
0.0970573566084788,0.035274790187638363,
0.0971072319201995,0.017158816429171084,
0.0971571072319202,0.03366788398745915,
0.0972069825436409,0.02787744416626629,
0.09725685785536159,0.023606433747512017,
0.0973067331670823,0.007510887870883049,
0.097356608478803,0.03965129290877975,
0.09740648379052369,0.028906779840109233,
0.09745635910224439,0.03596721694597091,
0.09750623441396508,0.030301469341712683,
0.09755610972568579,0.028091489533658025,
0.09760598503740649,0.03349763714834328,
0.09765586034912718,0.014781224428082298,
0.09770573566084788,0.00414494569671273,
0.09775561097256857,-0.0016492883057086898,
0.09780548628428928,0.00262144710235002,
0.09785536159600998,0.03628557910758554,
0.09790523690773068,0.013582388381344374,
0.09795511221945137,0.013422082109333905,
0.09800498753117207,0.028318507323286425,
0.09805486284289276,0.04783969312846846,
0.09810473815461347,0.01942174828227693,
0.09815461346633417,0.03180293414027901,
0.09820448877805486,0.02119643705825649,
0.09825436408977556,0.02855675020368869,
0.09830423940149625,-0.005410472634083712,
0.09835411471321696,0.01917615171125943,
0.09840399002493766,0.028930783829202833,
0.09845386533665836,0.016028555529409974,
0.09850374064837905,0.02928706533455984,
0.09855361596009975,0.004926677031165451,
0.09860349127182044,0.024317326623094687,
0.09865336658354115,0.02631508314761718,
0.09870324189526185,0.013227546740141129,
0.09875311720698254,0.024216987342747805,
0.09880299251870324,0.03312234157754624,
0.09885286783042393,0.028658279012859125,
0.09890274314214464,0.05338641884915972,
0.09895261845386534,0.012987930157579946,
0.09900249376558604,0.01029476069329407,
0.09905236907730673,0.03607773995058207,
0.09910224438902743,0.005458287173407801,
0.09915211970074812,0.006679168266246922,
0.09920199501246883,0.002048971318766227,
0.09925187032418953,-0.002896269439829185,
0.09930174563591022,-0.008642152915610733,
0.09935162094763092,0.019579410472256288,
0.09940149625935162,0.033663452102897236,
0.09945137157107233,0.013057321982161162,
0.09950124688279302,0.0394953172067969,
0.09955112219451372,0.006909829279694208,
0.09960099750623441,-0.015888689487739006,
0.09965087281795511,0.020409762258646692,
0.0997007481296758,0.002643550663957694,
0.09975062344139651,0.004912805937331706,
0.09980049875311721,0.033079142506103554,
0.0998503740648379,0.0009218083699082703,
0.0999002493765586,0.005530655170576063,
0.0999501246882793,0.016310736079395743,
0.1,0.02344524469236646,
0.1000498753117207,0.0021996717007738654,
0.1000997506234414,0.017369782606576626,
0.10014962593516209,0.023671475952574038,
0.10019950124688279,0.001463400595411216,
0.1002493765586035,0.02330239748534786,
0.1002992518703242,0.03226906199631088,
0.10034912718204489,0.0178774668117827,
0.10039900249376559,0.010859211872145766,
0.10044887780548628,-0.005850664348601533,
0.10049875311720698,0.008475124622241287,
0.10054862842892769,0.013936782979904855,
0.10059850374064838,-0.003534077980998536,
0.10064837905236908,0.028793827900777773,
0.10069825436408977,0.01618921108151213,
0.10074812967581047,0.00022428404003642507,
0.10079800498753118,0.006075207561961383,
0.10084788029925187,-0.015768981151142943,
0.10089775561097257,5.89769786312872e-05,
0.10094763092269327,-0.00699001704848585,
0.10099750623441396,0.025850333772268218,
0.10104738154613466,-0.0008724041340914257,
0.10109725685785537,-0.009911181031498791,
0.10114713216957606,-0.0027925975649030032,
0.10119700748129676,0.02441244306218399,
0.10124688279301745,0.0034015354089599217,
0.10129675810473815,0.0070414633469183235,
0.10134663341645886,0.017237810557377782,
0.10139650872817955,0.012023194439190633,
0.10144638403990025,0.0018377281559650242,
0.10149625935162095,0.010338564802760018,
0.10154613466334164,-0.01166812159717131,
0.10159600997506234,0.013709603284100902,
0.10164588528678305,0.007375684960214637,
0.10169576059850374,-0.03473143638597585,
0.10174563591022444,0.002832645679132514,
0.10179551122194513,-0.006161444510840285,
0.10184538653366583,-0.012257932301536342,
0.10189526184538654,-0.005096843772642166,
0.10194513715710724,0.004075606604247144,
0.10199501246882793,-0.022009866107592202,
0.10204488778054863,-0.023225813715825883,
0.10209476309226932,0.014024664266003217,
0.10214463840399003,0.006187641500029096,
0.10219451371571073,-0.00861668570937907,
0.10224438902743142,-0.011502800398119406,
0.10229426433915212,0.021842367529571496,
0.10234413965087281,-0.0032223670395436135,
0.10239401496259351,0.004130234459504295,
0.10244389027431422,0.01589773529731802,
0.10249376558603492,-0.01938054274380883,
0.10254364089775561,-0.0344302827062876,
0.10259351620947631,0.011313280668828148,
0.102643391521197,-0.031322051262921764,
0.10269326683291771,-0.003503072374175418,
0.10274314214463841,-0.002609824133441828,
0.1027930174563591,-0.002095359374756356,
0.1028428927680798,0.004022614385296688,
0.1028927680798005,-0.007554699033408844,
0.10294264339152119,0.007618643915027243,
0.1029925187032419,-0.009023345237384166,
0.1030423940149626,0.036526915500758865,
0.10309226932668329,6.407244187080566e-05,
0.10314214463840399,-0.024173715677140717,
0.10319201995012468,0.00811096769334884,
0.10324189526184539,-0.028640486040382263,
0.10329177057356609,-0.01290581476221999,
0.10334164588528678,-0.005715462555670367,
0.10339152119700748,-0.01470654962088374,
0.10344139650872818,-0.030351044351607976,
0.10349127182044887,0.017955021724115873,
0.10354114713216958,-0.02266629998084714,
0.10359102244389028,-0.025498828277814634,
0.10364089775561097,-0.030711986415141397,
0.10369077306733167,-0.010457957356703247,
0.10374064837905236,0.01022216002503205,
0.10379052369077307,0.02916360210873687,
0.10384039900249377,-0.01777942195913192,
0.10389027431421446,0.001274319171126824,
0.10394014962593516,-0.00871099739504608,
0.10399002493765586,-0.02066620235834097,
0.10403990024937655,-0.006540855147203613,
0.10408977556109726,-0.019983552589638225,
0.10413965087281796,0.01188222182357982,
0.10418952618453865,-0.003428018889054014,
0.10423940149625935,0.002344214419746698,
0.10428927680798004,-0.011876072876491367,
0.10433915211970075,-0.015584115395364456,
0.10438902743142145,-0.008637386219944039,
0.10443890274314215,-0.020221034346446717,
0.10448877805486284,-0.0050656536039428435,
0.10453865336658354,-8.40413470877023e-06,
0.10458852867830425,-0.004336704954224428,
0.10463840399002494,-0.019687689495235732,
0.10468827930174564,-0.037384812137882445,
0.10473815461346633,-0.03564438734443336,
0.10478802992518703,0.0076481445151825415,
0.10483790523690772,-0.02678490822366146,
0.10488778054862843,-0.01685233690114222,
0.10493765586034913,-0.008863365215644627,
0.10498753117206983,-0.021125539093114654,
0.10503740648379052,-0.0017611832592626595,
0.10508728179551122,-0.01179274653923986,
0.10513715710723193,-0.01936695742922529,
0.10518703241895262,-0.001802310462293998,
0.10523690773067332,-0.011787627713539764,
0.10528678304239401,-0.0177620968145816,
0.10533665835411471,-0.019824707565269807,
0.1053865336658354,-0.024041332330925813,
0.10543640897755611,0.016497466039365326,
0.10548628428927681,0.016247755822546797,
0.1055361596009975,0.007786731255062207,
0.1055860349127182,-0.0005741077073596924,
0.1056359102244389,-0.023706419088243145,
0.10568578553615961,0.0015854759831177897,
0.1057356608478803,-0.014188889788130212,
0.105785536159601,-0.010239399950108872,
0.1058354114713217,-0.0065600084832187055,
0.10588528678304239,0.010913056803081881,
0.10593516209476309,0.005150563253789479,
0.1059850374064838,-0.004647477723512841,
0.10603491271820449,-0.009449919862623125,
0.10608478802992519,0.030466442720272352,
0.10613466334164588,-0.0015598806498928596,
0.10618453865336658,-0.005062522752442765,
0.10623441396508729,-0.003946898210172631,
0.10628428927680798,-0.01899645566580909,
0.10633416458852868,-0.015623334491280526,
0.10638403990024937,-0.01734108135405794,
0.10643391521197007,-0.002380540661951539,
0.10648379052369077,-0.01350163146548209,
0.10653366583541148,-0.024178304201337694,
0.10658354114713217,-0.016783385137444214,
0.10663341645885287,-0.014333245724527918,
0.10668329177057356,-0.0017889910946988444,
0.10673316708229426,-0.010552294747638512,
0.10678304239401497,-0.008290064722960266,
0.10683291770573566,0.012226218180738062,
0.10688279301745636,0.0123898766909788,
0.10693266832917706,-0.007865958863515808,
0.10698254364089775,-0.012041060805923353,
0.10703241895261846,-0.007712806413028572,
0.10708229426433916,0.004345733271680223,
0.10713216957605985,0.008972510144906158,
0.10718204488778055,-0.01583291567619168,
0.10723192019950124,0.005433568290999913,
0.10728179551122194,-0.018163307741467058,
0.10733167082294265,-0.0003350531956261629,
0.10738154613466334,0.004831963803307774,
0.10743142144638404,0.0009535359955266352,
0.10748129675810474,0.022870865453422748,
0.10753117206982543,-0.011082611988629174,
0.10758104738154614,-0.005853941262925675,
0.10763092269326684,0.0012509808842569746,
0.10768079800498753,-0.009547756336382654,
0.10773067331670823,-0.004922806878531437,
0.10778054862842892,-0.004063368503872482,
0.10783042394014962,0.005721319382891367,
0.10788029925187033,-0.0016657493103648439,
0.10793017456359102,0.009363224427232714,
0.10798004987531172,0.01987875443008927,
0.10802992518703242,0.010045657568336636,
0.10807980049875311,0.013070354041612307,
0.10812967581047382,0.006132248006395422,
0.10817955112219452,-0.0037946918217044026,
0.10822942643391521,-0.02901358306115439,
0.10827930174563591,0.008313401038994883,
0.1083291770573566,-0.009089732800347172,
0.1083790523690773,-0.0028702668626646704,
0.10842892768079801,-0.0037705779989721214,
0.1084788029925187,0.006166245886326726,
0.1085286783042394,0.013310434291086488,
0.1085785536159601,0.007488265516331015,
0.10862842892768079,0.007976197003019039,
0.1086783042394015,-0.0382101261621503,
0.1087281795511222,0.031035457785529637,
0.1087780548628429,-0.002085485963998597,
0.10882793017456359,0.004003007808536298,
0.10887780548628428,0.01616436441647988,
0.108927680798005,-0.009470176438291754,
0.10897755610972569,0.02775744341763691,
0.10902743142144639,-0.00512001654447214,
0.10907730673316708,-0.01967671589243495,
0.10912718204488778,-0.0010341117324047596,
0.10917705735660847,0.00719055001773515,
0.10922693266832918,-0.002012999370281884,
0.10927680798004988,0.0059155960195754935,
0.10932668329177057,-0.00011498430895716177,
0.10937655860349127,0.012174593112466504,
0.10942643391521197,0.003606839594322565,
0.10947630922693267,0.027974798232758856,
0.10952618453865337,0.007534313886187301,
0.10957605985037407,-0.01774928839217246,
0.10962593516209476,-0.0035853221006395194,
0.10967581047381546,0.029021255137358384,
0.10972568578553615,0.028172948280971756,
0.10977556109725686,-0.017148574921818725,
0.10982543640897756,0.014717108148249012,
0.10987531172069825,0.006534292301124762,
0.10992518703241895,0.02513135467917976,
0.10997506234413965,0.005166502753488097,
0.11002493765586036,0.0009942804583175577,
0.11007481296758105,0.014242990278418383,
0.11012468827930175,-0.01402804508423664,
0.11017456359102244,0.013308763752866534,
0.11022443890274314,-0.0065750927293172605,
0.11027431421446383,0.015433202478844114,
0.11032418952618454,-0.023911211929051157,
0.11037406483790524,0.016966472208685777,
0.11042394014962593,0.0004934144215391345,
0.11047381546134663,0.0054155827944417975,
0.11052369077306733,0.02892004259668624,
0.11057356608478804,0.022806665442205866,
0.11062344139650873,0.008510989867843434,
0.11067331670822943,-0.004892816728648249,
0.11072319201995012,0.0004054107559756225,
0.11077306733167082,0.0008357240502147433,
0.11082294264339151,-0.03016975023427803,
0.11087281795511222,0.010555241239994562,
0.11092269326683292,0.0037435420706676357,
0.11097256857855362,-0.0008490932699120116,
0.11102244389027431,0.007532284715126183,
0.111072319201995,0.02162132964842727,
0.11112219451371572,0.019550549309007063,
0.11117206982543641,0.030589242368416262,
0.11122194513715711,0.03768922162164953,
0.1112718204488778,0.018836318337512654,
0.1113216957605985,0.028833150475640952,
0.11137157107231921,0.04012122338360204,
0.1114214463840399,0.021009688845204724,
0.1114713216957606,0.028244585358706442,
0.1115211970074813,0.027981627297570172,
0.11157107231920199,0.03324576447282485,
0.11162094763092269,0.024005948894608643,
0.1116708229426434,0.03024177145232753,
0.11172069825436409,0.03005387282140191,
0.11177057356608479,0.006004614884597326,
0.11182044887780548,0.04035020586264633,
0.11187032418952618,0.04778595825204756,
0.11192019950124689,0.00885921478726621,
0.11197007481296758,-0.017485481249051426,
0.11201995012468828,0.019986843377696763,
0.11206982543640898,0.026705577143039436,
0.11211970074812967,0.003821803525244475,
0.11216957605985037,0.014366333144342835,
0.11221945137157108,0.03050700425511377,
0.11226932668329177,0.00511496271754823,
0.11231920199501247,0.051619440594124426,
0.11236907730673316,0.026484797872267537,
0.11241895261845386,0.005330450623060715,
0.11246882793017457,0.04246186591646274,
0.11251870324189527,-0.0035985709571786026,
0.11256857855361596,0.02740120909767334,
0.11261845386533666,0.009300298686493742,
0.11266832917705735,0.0023175107626203714,
0.11271820448877805,0.02020201845872662,
0.11276807980049876,0.038753702553376825,
0.11281795511221945,0.026748775563545622,
0.11286783042394015,0.03744027019018726,
0.11291770573566084,0.020182809332326176,
0.11296758104738154,0.040691722174450495,
0.11301745635910225,-0.0029543791039417823,
0.11306733167082295,0.02967217936147046,
0.11311720698254364,0.0032668858081331444,
0.11316708229426434,0.017019314002325675,
0.11321695760598503,0.03934787299388875,
0.11326683291770574,0.012334745444086897,
0.11331670822942644,0.028884677848457656,
0.11336658354114713,0.033098720411608634,
0.11341645885286783,0.04892038306001553,
0.11346633416458853,0.030882500369484943,
0.11351620947630922,0.027772241277865452,
0.11356608478802993,0.023839087505744504,
0.11361596009975063,0.03032794407662634,
0.11366583541147132,0.01707172210812396,
0.11371571072319202,0.04477250090542588,
0.11376558603491271,0.021718996186728685,
0.11381546134663342,0.0525809496161445,
0.11386533665835412,0.03241488868085471,
0.11391521197007481,0.005747502912658596,
0.11396508728179551,0.029507505520983402,
0.1140149625935162,0.033643394719444254,
0.1140648379052369,0.026032081134473577,
0.11411471321695761,0.02387891729755072,
0.1141645885286783,0.023406845280630063,
0.114214463840399,0.05003330982939015,
0.1142643391521197,0.03386763436391815,
0.1143142144638404,0.03475266835714809,
0.1143640897755611,0.021427826886139957,
0.1144139650872818,0.014496636948974784,
0.1144638403990025,0.031303317894509866,
0.11451371571072319,0.030462188884473648,
0.11456359102244389,0.021945133437851393,
0.11461346633416458,0.03268116902303623,
0.11466334164588529,0.03977491585428592,
0.11471321695760599,0.049758507124769376,
0.11476309226932668,0.032339417847370565,
0.11481296758104738,0.007870387798116562,
0.11486284289276807,0.057187622454926854,
0.11491271820448878,0.03383081094998217,
0.11496259351620948,0.008641557088957637,
0.11501246882793018,0.03867399540461791,
0.11506234413965087,0.030815064395276155,
0.11511221945137157,0.04865461382157383,
0.11516209476309226,0.03886846514246249,
0.11521197007481297,0.02504735873607392,
0.11526184538653367,0.013773862377417987,
0.11531172069825436,0.03866400794154436,
0.11536159600997506,0.034573962609340175,
0.11541147132169575,0.03415232242398316,
0.11546134663341646,0.02440541922646767,
0.11551122194513716,0.02895465730736183,
0.11556109725685786,0.022351803473039507,
0.11561097256857855,0.026534731367944663,
0.11566084788029925,0.029095256144274016,
0.11571072319201996,0.020393515507537388,
0.11576059850374065,0.04197813637700254,
0.11581047381546135,0.030530838686720067,
0.11586034912718204,0.011820143059216508,
0.11591022443890274,0.035328271984151095,
0.11596009975062344,0.05132199020096598,
0.11600997506234415,0.048410413013707854,
0.11605985037406484,0.029099676687878842,
0.11610972568578554,0.04450769395558667,
0.11615960099750623,0.020065965897728903,
0.11620947630922693,-0.0016136496302645437,
0.11625935162094764,0.04140542765122254,
0.11630922693266833,0.00403700760793595,
0.11635910224438903,0.017627950782267143,
0.11640897755610972,0.040606268628643104,
0.11645885286783042,0.03912671595948389,
0.11650872817955112,0.015489913981484547,
0.11655860349127183,0.023520073180579634,
0.11660847880299252,0.03456125040626824,
0.11665835411471322,0.05077961136765939,
0.11670822942643391,0.010069856053626754,
0.11675810473815461,0.02132492123410946,
0.11680798004987532,0.01917581031443013,
0.11685785536159601,0.013466414199425684,
0.11690773067331671,0.04929271476696351,
0.1169576059850374,0.021925246243856233,
0.1170074812967581,-0.004412169326469827,
0.1170573566084788,0.024927017589153538,
0.1171072319201995,0.01582391240446055,
0.1171571072319202,0.013750364703847173,
0.1172069825436409,0.00493192726908585,
0.1172568578553616,0.04758025638617504,
0.11730673316708229,0.037781752781161276,
0.117356608478803,0.004370110962383239,
0.1174064837905237,0.04207535773195994,
0.11745635910224439,0.029724203432495412,
0.11750623441396509,0.0016174084982399986,
0.11755610972568578,0.0009970840480411462,
0.11760598503740648,0.015585899179255625,
0.11765586034912719,0.026745338462003162,
0.11770573566084788,0.01655373481343221,
0.11775561097256858,0.022785164353951445,
0.11780548628428927,0.022127418769600966,
0.11785536159600997,0.0393656769370435,
0.11790523690773068,0.02362176808380328,
0.11795511221945137,0.024325437650160184,
0.11800498753117207,-0.010994914159434675,
0.11805486284289277,0.0473987051541802,
0.11810473815461346,0.014139574523815375,
0.11815461346633417,0.009106449876140595,
0.11820448877805487,0.033439301309979096,
0.11825436408977556,0.015416720955192982,
0.11830423940149626,0.012333791131764237,
0.11835411471321695,0.014308563611500888,
0.11840399002493765,0.009435815773213925,
0.11845386533665836,0.006607350982682891,
0.11850374064837906,0.003863844570766946,
0.11855361596009975,0.019780211268985055,
0.11860349127182045,0.018240096655425253,
0.11865336658354114,0.016947889040775724,
0.11870324189526185,-0.008006515202661844,
0.11875311720698255,0.01547295045257556,
0.11880299251870324,-0.0022682715098013874,
0.11885286783042394,0.029761969882986038,
0.11890274314214463,0.00946143630992068,
0.11895261845386533,0.033179148442970374,
0.11900249376558604,0.005272611263569652,
0.11905236907730674,0.015544638298074863,
0.11910224438902743,-0.00022748468953452672,
0.11915211970074813,-0.0014179538898781447,
0.11920199501246882,-0.010025228226133448,
0.11925187032418953,0.02770373269573198,
0.11930174563591023,0.03170827669071136,
0.11935162094763092,0.029429521375583377,
0.11940149625935162,0.02186492302438659,
0.11945137157107232,-0.02852226774006634,
0.11950124688279301,-0.013522170012293852,
0.11955112219451372,0.02888405358455154,
0.11960099750623442,0.004487303880175537,
0.11965087281795511,0.03130326348861427,
0.11970074812967581,0.0018170702405141317,
0.1197506234413965,0.005260968818851014,
0.11980049875311721,0.022266020582225328,
0.11985037406483791,-0.009179816659180816,
0.1199002493765586,0.022348812338758635,
0.1199501246882793,-0.004786045500307923,
0.12,0.02715666063415703,
0.1200498753117207,0.013794743222323016,
0.1200997506234414,0.017311147352313476,
0.1201496259351621,-0.012860055557968073,
0.12019950124688279,-0.0100326420353415,
0.12024937655860349,0.001812808163877879,
0.12029925187032418,0.031212457401885118,
0.1203491271820449,0.016406420911278998,
0.12039900249376559,0.0017375350945210179,
0.12044887780548628,0.012183396172731339,
0.12049875311720698,0.008250489349919664,
0.12054862842892768,0.018271376725682423,
0.12059850374064839,0.02228678702858935,
0.12064837905236908,-0.008887258084012646,
0.12069825436408978,0.016152864972178965,
0.12074812967581047,-0.0026407643198861777,
0.12079800498753117,0.009135267530805326,
0.12084788029925186,-0.006644738097705749,
0.12089775561097257,0.0025189362086181963,
0.12094763092269327,0.00924427162139077,
0.12099750623441397,-0.017093273998541592,
0.12104738154613466,0.011175107045627148,
0.12109725685785536,0.024235664637972866,
0.12114713216957607,-0.0024373000629958107,
0.12119700748129676,-0.004817328808718344,
0.12124688279301746,-0.030471914058680043,
0.12129675810473815,-0.009794599923914127,
0.12134663341645885,-0.005554615743246373,
0.12139650872817954,0.03283102507012481,
0.12144638403990025,0.02160116820752494,
0.12149625935162095,0.00906238442374375,
0.12154613466334165,0.005645269806855171,
0.12159600997506234,0.014676558360194623,
0.12164588528678304,0.011115442113931144,
0.12169576059850375,0.01963172472926645,
0.12174563591022444,0.0054455574234510045,
0.12179551122194514,0.00959287838433048,
0.12184538653366583,-0.010779690656039164,
0.12189526184538653,-0.0058995807661287505,
0.12194513715710723,0.00594842190560699,
0.12199501246882793,-0.025019666144805316,
0.12204488778054863,0.02071493342698847,
0.12209476309226933,-0.02020668299420832,
0.12214463840399002,0.01104622388467453,
0.12219451371571072,-0.023051698582370262,
0.12224438902743143,0.0044181928208509615,
0.12229426433915212,-0.008086249274811812,
0.12234413965087282,-0.0034265890183697092,
0.12239401496259351,-0.02686094670576391,
0.12244389027431421,-0.011035568131295597,
0.12249376558603492,-0.0008874686225868798,
0.12254364089775562,-0.0228807393891544,
0.12259351620947631,-0.009934934773824924,
0.122643391521197,-0.0172921347289657,
0.1226932668329177,-0.021779184212347265,
0.1227431421446384,0.0106360623871434,
0.12279301745635911,-0.005858455324159265,
0.1228428927680798,0.009954539957610073,
0.1228927680798005,-0.009306968775355981,
0.1229426433915212,0.016070690126352663,
0.12299251870324189,-0.009239129876798396,
0.1230423940149626,-0.006569541162531473,
0.1230922693266833,-0.007158868226448523,
0.12314214463840399,0.00512074720237546,
0.12319201995012469,-0.013807704361063971,
0.12324189526184538,-0.005168484232974597,
0.12329177057356608,0.008456973789922259,
0.12334164588528679,0.009194386973514075,
0.12339152119700748,-0.03356058062609098,
0.12344139650872818,-0.00939486815429294,
0.12349127182044888,-0.02073268111242544,
0.12354114713216957,-0.011497395078549206,
0.12359102244389028,-0.0026091082078292024,
0.12364089775561098,-0.02626169467752637,
0.12369077306733167,-0.01731706448654017,
0.12374064837905237,-0.01600447705162086,
0.12379052369077306,-0.03205835232722596,
0.12384039900249376,-0.010434702564057576,
0.12389027431421447,-0.023403830216407663,
0.12394014962593516,0.02610942526088291,
0.12399002493765586,-0.0024792119327191253,
0.12403990024937656,-0.008299483668021327,
0.12408977556109725,-0.03769632162452238,
0.12413965087281796,0.00579316583620338,
0.12418952618453866,-0.011936160334901446,
0.12423940149625935,-0.0074604014144658524,
0.12428927680798005,0.006442936740653448,
0.12433915211970074,-0.015823516179220367,
0.12438902743142144,-0.0002832082988165653,
0.12443890274314215,0.014624823708936675,
0.12448877805486284,-0.051521776721788634,
0.12453865336658354,-0.0155953774804522,
0.12458852867830424,-0.01782755587217065,
0.12463840399002493,-0.033683297879929325,
0.12468827930174564,-0.015164296008343254,
0.12473815461346634,-0.027122176244065745,
0.12478802992518703,-0.023422843507358314,
0.12483790523690773,-0.010935300366023788,
0.12488778054862842,-0.001873171050025076,
0.12493765586034913,-0.010548065997076058,
0.12498753117206983,-0.023297182302600437,
0.12503740648379053,-0.01817520939713662,
0.12508728179551123,0.005064578257806344,
0.12513715710723192,-0.011664887276764423,
0.12518703241895263,0.0041116801399994265,
0.1252369077306733,-0.024936233270813023,
0.12528678304239402,0.00367289159927019,
0.1253366583541147,-0.024585651359138202,
0.1253865336658354,-0.0057091010550821,
0.12543640897755612,-0.014830943178573029,
0.1254862842892768,-0.010644124657911013,
0.1255361596009975,-0.01564165125543472,
0.1255860349127182,0.0010020700904787207,
0.1256359102244389,-0.007777848322753085,
0.1256857855361596,-0.002279809003463081,
0.1257356608478803,-0.004055947245730715,
0.125785536159601,-0.005737505786568477,
0.12583541147132168,0.02630447979027734,
0.1258852867830424,-0.003254657857862742,
0.1259351620947631,-0.00799161164928036,
0.12598503740648379,-0.018885461661508687,
0.1260349127182045,-0.020357427782646063,
0.12608478802992518,-0.021755413984772508,
0.1261346633416459,-0.011482616028567101,
0.1261845386533666,-0.043873513278051966,
0.12623441396508728,0.007806539639724264,
0.126284289276808,-0.01715119147748099,
0.12633416458852867,0.002420076061761041,
0.12638403990024938,-0.02049746100930775,
0.1264339152119701,0.01741174323968682,
0.12648379052369077,-0.013273894677677344,
0.12653366583541148,-0.015947507154505484,
0.12658354114713216,-0.020277489373645187,
0.12663341645885287,-0.019671986061361318,
0.12668329177057355,-0.003295804234739851,
0.12673316708229426,0.021821158754960462,
0.12678304239401497,0.0014741183508620095,
0.12683291770573565,-0.013927607572873946,
0.12688279301745636,0.0037826917056637665,
0.12693266832917705,0.005539719983483167,
0.12698254364089775,0.0009180442395784281,
0.12703241895261846,-0.022410090078200773,
0.12708229426433915,-0.003755778696125313,
0.12713216957605986,-0.01736483965758598,
0.12718204488778054,-0.017463105812073942,
0.12723192019950125,0.002952736221276425,
0.12728179551122196,-0.015692139397857525,
0.12733167082294264,0.009772680943086202,
0.12738154613466335,0.008666890643843584,
0.12743142144638403,-0.01425394809863848,
0.12748129675810474,0.003944498449143609,
0.12753117206982545,0.03016654338318396,
0.12758104738154613,0.000887944896010906,
0.12763092269326684,0.0197213530123714,
0.12768079800498752,-0.021889794427037444,
0.12773067331670823,-0.005416463590515436,
0.1277805486284289,0.014416354131494303,
0.12783042394014962,0.006224308353145795,
0.12788029925187033,-0.001372988776771735,
0.12793017456359101,0.018776108614705442,
0.12798004987531172,-0.021545565892586195,
0.1280299251870324,0.0010526698566660632,
0.12807980049875312,-0.0013655778969695281,
0.12812967581047383,0.009940452230444393,
0.1281795511221945,-0.001508108148084217,
0.12822942643391522,-0.0015889971715200523,
0.1282793017456359,-0.0011225428453476823,
0.1283291770573566,0.01813948682910797,
0.12837905236907732,0.0025742534979539137,
0.128428927680798,0.0032213455777796557,
0.1284788029925187,-0.008044926555947384,
0.1285286783042394,-0.0033831790550999095,
0.1285785536159601,0.005988019928407118,
0.1286284289276808,0.005836822832470088,
0.1286783042394015,-0.024403754989814137,
0.1287281795511222,0.03219924033909037,
0.12877805486284288,0.020198507475249157,
0.1288279301745636,0.01110212622223123,
0.1288778054862843,0.017505514513183367,
0.12892768079800498,-0.0190365442187029,
0.1289775561097257,0.005227614587677357,
0.12902743142144638,-0.028198711038328918,
0.12907730673316709,0.015428654989574991,
0.12912718204488777,0.0006380778899645616,
0.12917705735660848,0.007804240771551437,
0.1292269326683292,0.012143871500456226,
0.12927680798004987,0.004930365145092926,
0.12932668329177058,0.00949004399377731,
0.12937655860349126,0.024171611166021612,
0.12942643391521197,-0.010005457360953858,
0.12947630922693268,0.012519832126118322,
0.12952618453865336,0.02820131020962893,
0.12957605985037407,0.0009652164847291089,
0.12962593516209475,0.01457141471163279,
0.12967581047381546,0.006144732597559138,
0.12972568578553617,-0.00229209614500195,
0.12977556109725685,0.022332907945923967,
0.12982543640897756,0.020100801101040136,
0.12987531172069824,0.01050824171408331,
0.12992518703241895,-0.0061599522654209385,
0.12997506234413966,0.02231315949561924,
0.13002493765586035,0.017103680822427064,
0.13007481296758105,-0.007207852348681199,
0.13012468827930174,0.01443802648663875,
0.13017456359102245,-0.0034011158487086725,
0.13022443890274316,0.016658171395302037,
0.13027431421446384,0.021343818187542322,
0.13032418952618455,0.015759066465720638,
0.13037406483790523,0.002341067337648538,
0.13042394014962594,0.02684420380398333,
0.13047381546134662,0.018032191685305107,
0.13052369077306733,0.03407145328388881,
0.13057356608478804,-6.239021636065059e-05,
0.13062344139650872,0.01051013737856258,
0.13067331670822943,0.009190581037361303,
0.1307231920199501,0.03336188420505837,
0.13077306733167082,0.03249418917701073,
0.13082294264339153,0.026441560185471467,
0.13087281795511221,0.015517775652203325,
0.13092269326683292,-0.009408653267152144,
0.1309725685785536,0.029658911905002833,
0.13102244389027431,-0.0034856060587551557,
0.13107231920199502,0.02675940244817441,
0.1311221945137157,-0.0003300469101045547,
0.13117206982543642,0.02114349477049974,
0.1312219451371571,0.01653603576548158,
0.1312718204488778,0.033745851995357616,
0.13132169576059852,0.016365077143834467,
0.1313715710723192,0.040359682301566446,
0.1314214463840399,0.0071923341148257824,
0.1314713216957606,0.00032753046228600063,
0.1315211970074813,0.01773734841078787,
0.13157107231920198,0.02374148069358475,
0.1316209476309227,0.018384200858394817,
0.1316708229426434,0.028211820956332533,
0.13172069825436408,0.004983476432679818,
0.1317705735660848,0.027206685946915124,
0.13182044887780547,0.00717447834473503,
0.13187032418952618,-0.011835549661520735,
0.1319201995012469,0.021622334520438786,
0.13197007481296757,0.007802847626472239,
0.13201995012468828,0.018073455816009127,
0.13206982543640897,0.014921269858843548,
0.13211970074812968,0.021263418874538573,
0.13216957605985039,0.02213233443151115,
0.13221945137157107,0.02151644465542945,
0.13226932668329178,0.008727865635508075,
0.13231920199501246,0.019866105345929398,
0.13236907730673317,0.006702901779135247,
0.13241895261845388,0.042755978565417296,
0.13246882793017456,0.008492585760704973,
0.13251870324189527,0.01681113573562712,
0.13256857855361595,0.04714653466248832,
0.13261845386533666,0.0042344589583833865,
0.13266832917705737,0.03546415140132628,
0.13271820448877805,0.0231397746396404,
0.13276807980049876,0.006981941927581468,
0.13281795511221944,0.049219159852552374,
0.13286783042394015,0.06570869391506678,
0.13291770573566083,0.0738534051298515,
0.13296758104738154,0.024074104112471583,
0.13301745635910225,0.026852199111370267,
0.13306733167082294,0.007241840608555327,
0.13311720698254365,0.036206826379755905,
0.13316708229426433,0.002716871262430195,
0.13321695760598504,0.02348866462727015,
0.13326683291770575,0.021939052855960685,
0.13331670822942643,0.00349842817581315,
0.13336658354114714,0.029047003694129672,
0.13341645885286782,0.02463329212407924,
0.13346633416458853,0.028346223785986866,
0.13351620947630924,0.03724262651051979,
0.13356608478802992,0.04598220327043133,
0.13361596009975063,0.030704392035001353,
0.1336658354114713,0.03156086186274778,
0.13371571072319202,0.04354195718181029,
0.13376558603491273,0.011776088795110062,
0.1338154613466334,0.037374392241730774,
0.13386533665835412,0.05938262376466638,
0.1339152119700748,0.0139038761996253,
0.13396508728179551,0.03475377314618435,
0.1340149625935162,0.011642739629970707,
0.1340648379052369,0.02546368971882962,
0.13411471321695762,0.013867689788462919,
0.1341645885286783,0.03942638948731835,
0.134214463840399,0.02788518185231894,
0.1342643391521197,0.05591849591344519,
0.1343142144638404,0.013169648546005153,
0.1343640897755611,0.054765535335466776,
0.1344139650872818,0.03798678067762713,
0.1344638403990025,0.0101371630684092,
0.13451371571072318,0.027775743788171665,
0.1345635910224439,0.02809259146796704,
0.1346134663341646,0.03891545891969014,
0.13466334164588528,0.033126232946419414,
0.134713216957606,0.021620840429693033,
0.13476309226932667,0.034459800685939235,
0.13481296758104738,0.013946127550171973,
0.1348628428927681,0.02633188112544102,
0.13491271820448877,0.0094511099874021,
0.13496259351620948,0.02665645514060536,
0.13501246882793017,0.0336803055421568,
0.13506234413965088,0.016602530054781933,
0.13511221945137158,0.06254375780150878,
0.13516209476309227,0.010893671490772635,
0.13521197007481298,0.03639072130168702,
0.13526184538653366,0.02258316013563551,
0.13531172069825437,0.06185698566013418,
0.13536159600997505,0.028469473608583026,
0.13541147132169576,0.030520418785605543,
0.13546134663341647,0.022312171400682135,
0.13551122194513715,0.04921919584179334,
0.13556109725685786,0.026691715577329002,
0.13561097256857854,0.035425971070408326,
0.13566084788029925,0.031961107365266916,
0.13571072319201996,0.037068635434501646,
0.13576059850374064,0.03761146690927652,
0.13581047381546135,0.03845208801139809,
0.13586034912718203,0.038832762789913364,
0.13591022443890274,0.005343235499700942,
0.13596009975062345,0.031389382329365084,
0.13600997506234414,0.026913768099276283,
0.13605985037406484,0.007614161129607985,
0.13610972568578553,0.02584829416104105,
0.13615960099750624,0.036407185174119894,
0.13620947630922695,0.02713197667235654,
0.13625935162094763,0.031706479548151624,
0.13630922693266834,0.02418423190529597,
0.13635910224438902,0.040387760678924606,
0.13640897755610973,0.004926564040518569,
0.1364588528678304,0.049333838798163734,
0.13650872817955112,0.05500930270603778,
0.13655860349127183,0.01654205247623977,
0.1366084788029925,0.023098905854983837,
0.13665835411471322,0.01224900242482167,
0.1367082294264339,0.02184707807720007,
0.1367581047381546,0.02899692210598582,
0.13680798004987532,0.029979293071975006,
0.136857855361596,0.029735057650840398,
0.1369077306733167,0.029370847183884257,
0.1369576059850374,0.028814191621230275,
0.1370074812967581,0.0341137193315563,
0.13705735660847881,0.0009959585602494596,
0.1371072319201995,0.028438531408371177,
0.1371571072319202,0.02586411835434031,
0.1372069825436409,0.019109866787484543,
0.1372568578553616,0.016908954226411102,
0.1373067331670823,0.018749081472586044,
0.137356608478803,0.02049313337698691,
0.1374064837905237,-0.020441579326741753,
0.13745635910224438,0.04878257944297974,
0.1375062344139651,-0.00393274862191232,
0.1375561097256858,0.011223320452623755,
0.13760598503740648,0.038054907267972796,
0.1376558603491272,0.029228038373774516,
0.13770573566084787,0.04511910785938876,
0.13775561097256858,0.02663315054573432,
0.13780548628428926,0.03374077035716254,
0.13785536159600997,0.011726677736700268,
0.13790523690773068,0.06339701871687707,
0.13795511221945136,0.017529972370253846,
0.13800498753117207,0.03614163306363469,
0.13805486284289276,0.027690428388331804,
0.13810473815461347,0.0067143981332718015,
0.13815461346633418,0.04948002944035676,
0.13820448877805486,0.00833963050825348,
0.13825436408977557,0.024860118662272723,
0.13830423940149625,0.002236586064755207,
0.13835411471321696,0.010131603153810068,
0.13840399002493767,0.003491530335727369,
0.13845386533665835,0.04529643513430533,
0.13850374064837906,0.00174494333463961,
0.13855361596009974,0.008313556203393146,
0.13860349127182045,0.04787298947164047,
0.13865336658354116,0.004615741964604013,
0.13870324189526184,0.04099614848405354,
0.13875311720698255,0.02728848820051645,
0.13880299251870323,0.06595870827320141,
0.13885286783042394,0.02829183079861829,
0.13890274314214462,0.014588456705727074,
0.13895261845386533,-0.003153360122860438,
0.13900249376558604,0.021254351919952955,
0.13905236907730673,0.04811307969844499,
0.13910224438902744,0.03667333706600244,
0.13915211970074812,-0.0031801862371359374,
0.13920199501246883,0.009054040738207852,
0.13925187032418954,0.003841726635000991,
0.13930174563591022,0.02277528098079725,
0.13935162094763093,0.004261349770061266,
0.1394014962593516,0.020891884530365327,
0.13945137157107232,0.0023370118783633924,
0.13950124688279303,0.022734356787950626,
0.1395511221945137,-0.004021888282447931,
0.13960099750623442,0.012214248210125851,
0.1396508728179551,0.011645494329074175,
0.1397007481296758,0.008195579362472154,
0.13975062344139652,-0.00901562348189626,
0.1398004987531172,0.026529097296814866,
0.1398503740648379,0.007576195052658728,
0.1399002493765586,0.00426585241863765,
0.1399501246882793,0.026749991791476798,
0.14,0.01287124832503494,
0.1400498753117207,0.01583723495836649,
0.1400997506234414,-0.015704292391016676,
0.1401496259351621,0.005336106986115103,
0.1401995012468828,0.01044928787800247,
0.14024937655860348,0.001095344290633125,
0.1402992518703242,0.04046371452794237,
0.1403491271820449,0.006998956235501424,
0.14039900249376558,-0.009419085558432242,
0.1404488778054863,0.004098912672776231,
0.14049875311720697,0.02388541761669072,
0.14054862842892768,-0.001879512666225108,
0.1405985037406484,0.004345978898010415,
0.14064837905236907,0.01159017523394058,
0.14069825436408978,0.0005190466918033945,
0.14074812967581046,0.02047364227048131,
0.14079800498753117,0.013772072938515793,
0.14084788029925188,0.010931065085902945,
0.14089775561097256,0.01706056350930275,
0.14094763092269327,-0.010071566063475125,
0.14099750623441396,-0.004335774406740672,
0.14104738154613466,-0.0008319520726488621,
0.14109725685785537,-0.012343560275265338,
0.14114713216957606,-0.015719496652965723,
0.14119700748129677,-0.01885713675870468,
0.14124688279301745,0.015511768129246564,
0.14129675810473816,0.001082608110118803,
0.14134663341645887,0.002278234784942765,
