time,amplitude,label
0.0,0.013564254346364393,
4.987531172069826e-05,0.011551495027308884,
9.975062344139652e-05,0.012190033827426302,
0.00014962593516209475,0.0060361956003563595,
0.00019950124688279303,0.05433021535345439,
0.00024937655860349125,0.013579683749867054,
0.0002992518703241895,0.0035205012952089845,
0.00034912718204488776,0.012304183259101261,
0.00039900249376558606,0.029592025439765964,
0.0004488778054862843,0.03955984249660337,
0.0004987531172069825,0.011683595506194105,
0.0005486284289276808,0.026568525318798566,
0.000598503740648379,0.00825064653212265,
0.0006483790523690773,-0.010083470649196184,
0.0006982543640897755,0.010507385251092538,
0.0007481296758104738,0.027739363897444982,
0.0007980049875311721,0.02516606734270144,
0.0008478802992518703,0.0210570555311699,
0.0008977556109725686,0.023129794393277215,
0.0009476309226932668,0.024106806028381975,
0.000997506234413965,0.02278411285067798,
0.0010473815461346633,-0.004005542575671525,
0.0010972568578553616,0.02048073599231786,
0.00114713216957606,0.030396784629228308,
0.001197007481296758,0.021065636099569532,
0.0012468827930174563,0.017567245083382296,
0.0012967581047381546,0.010098430802331002,
0.001346633416458853,0.02929705445776042,
0.001396508728179551,0.010662120487599656,
0.0014463840399002493,0.014085157156034651,
0.0014962593516209476,0.0042779079092990155,
0.001546134663341646,0.020558926516776984,
0.0015960099750623442,0.01047393934815451,
0.0016458852867830423,0.017198085063665894,
0.0016957605985037406,-0.009125856063809997,
0.001745635910224439,0.010583206054118957,
0.0017955112219451373,0.022694344590624176,
0.0018453865336658353,0.059182085579083284,
0.0018952618453865336,0.036903299927869504,
0.001945137157107232,0.003603653071776125,
0.00199501246882793,0.026973611515918067,
0.0020448877805486283,0.012823588004978962,
0.0020947630922693266,0.002116803356165497,
0.002144638403990025,0.012185341937598699,
0.0021945137157107233,0.01765095142337543,
0.0022443890274314216,0.03362146793269082,
0.00229426433915212,0.007833233043103661,
0.0023441396508728177,0.016305049098965588,
0.002394014962593516,-0.0005587742941375977,
0.0024438902743142144,0.03517698837454286,
0.0024937655860349127,0.018726753404165308,
0.002543640897755611,0.00512983214703108,
0.0025935162094763093,0.01570501506624769,
0.0026433915211970076,0.01714628360973476,
0.002693266832917706,0.0034496316727270406,
0.002743142144638404,0.025359904365315288,
0.002793017456359102,-0.013076567141015748,
0.0028428927680798004,0.012157013320491145,
0.0028927680798004987,0.003233398911743123,
0.002942643391521197,0.0023464151843688094,
0.0029925187032418953,0.021529931858091475,
0.0030423940149625936,-0.04047402805738447,
0.003092269326683292,0.018423899194566627,
0.00314214463840399,-0.008850692654384014,
0.0031920199501246885,0.022303059098791742,
0.0032418952618453864,0.02555174482851451,
0.0032917705735660847,0.029880231817782786,
0.003341645885286783,-0.013666601614209038,
0.0033915211970074813,0.009351804284601762,
0.0034413965087281796,0.029970264939158987,
0.003491271820448878,-0.03691019908981441,
0.003541147132169576,0.04554443504853639,
0.0035910224438902745,-0.002956156125489535,
0.0036408977556109724,-0.007620541763000742,
0.0036907730673316707,-0.005539534923505611,
0.003740648379052369,-0.0011572062083035142,
0.0037905236907730673,-0.008654535689433317,
0.0038403990024937656,0.011100159270788688,
0.003890274314214464,0.005549434444226571,
0.003940149625935162,0.003234625575321361,
0.00399002493765586,-0.004570323374370397,
0.004039900249376558,0.016697350045903062,
0.004089775561097257,-0.021761810917737774,
0.004139650872817955,-0.011892907044231613,
0.004189526184538653,-0.0035177811601674416,
0.004239401496259352,-0.006573765753349511,
0.00428927680798005,0.011197634649756096,
0.004339152119700748,0.0018982780905860777,
0.0043890274314214465,0.015662039475037755,
0.004438902743142145,0.008948878765313528,
0.004488778054862843,0.011365258316118973,
0.004538653366583541,-0.01766999043858363,
0.00458852867830424,0.0112219813569215,
0.004638403990024938,-0.00673157894070496,
0.0046882793017456355,0.026647012314870575,
0.004738154613466334,-0.025900714211808597,
0.004788029925187032,-0.0017944277271783843,
0.00483790523690773,-0.015609574138806042,
0.004887780548628429,-0.0148877501280131,
0.004937655860349127,-0.01872254266928889,
0.004987531172069825,0.009918581904235167,
0.005037406483790524,-0.006298985595765907,
0.005087281795511222,-0.02466926822755243,
0.00513715710723192,0.005054592048095156,
0.0051870324189526185,-0.01871948265514293,
0.005236907730673317,-0.0033029191181910343,
0.005286783042394015,0.011070793946528344,
0.0053366583541147134,-0.013589852966487044,
0.005386533665835412,-0.017722991534110364,
0.00543640897755611,-0.0031878275281189503,
0.005486284289276808,0.0015260371077065937,
0.005536159600997507,-0.01674550356657899,
0.005586034912718204,0.008493632801366953,
0.005635910224438902,0.013864799577398203,
0.005685785536159601,-0.02235636049370036,
0.005735660847880299,-0.020857060536924654,
0.005785536159600997,-0.005966458516440518,
0.005835411471321696,0.01742012845404593,
0.005885286783042394,-0.021916175997222908,
0.005935162094763092,-0.03178506292610324,
0.0059850374064837905,-0.004676427710485446,
0.006034912718204489,-0.001204180972118777,
0.006084788029925187,-0.011320546134975077,
0.0061346633416458855,-0.009306059719381636,
0.006184538653366584,-0.014815530126596883,
0.006234413965087282,-0.018435176795373476,
0.00628428927680798,-0.005285564869284504,
0.006334164588528679,-0.027744462008761725,
0.006384039900249377,-0.02718449546524509,
0.006433915211970074,-0.01865045167271739,
0.006483790523690773,-0.0025197445781728403,
0.006533665835411471,-0.019536222340561873,
0.006583541147132169,-0.02619751290097507,
0.006633416458852868,-0.03566284225198524,
0.006683291770573566,-0.004150344535682924,
0.006733167082294264,-0.005132762691202035,
0.0067830423940149626,-0.02725673308538214,
0.006832917705735661,0.025513144890904012,
0.006882793017456359,-0.00021535073766579607,
0.0069326683291770575,-0.009264291505225276,
0.006982543640897756,-0.0013157542472257058,
0.007032418952618454,-0.03817314938517607,
0.007082294264339152,-0.02408697355556391,
0.007132169576059851,-0.01862592309562947,
0.007182044887780549,-0.022427623820012767,
0.007231920199501247,-0.02783359816456167,
0.007281795511221945,0.008989682757386312,
0.007331670822942643,-0.01835422126439867,
0.007381546134663341,-0.003956587826056103,
0.00743142144638404,-0.025234600132780054,
0.007481296758104738,-0.008958246293430738,
0.007531172069825436,-0.0009450414476470919,
0.007581047381546135,-0.036855232714212434,
0.007630922693266833,-0.030330534481495863,
0.007680798004987531,-0.004123804053510786,
0.0077306733167082295,-0.041487107618420685,
0.007780548628428928,0.014103999544868451,
0.007830423940149626,-0.011393773712651798,
0.007880299251870324,-0.005000678939174951,
0.007930174563591023,-0.03362178019080336,
0.00798004987531172,-0.00034148713951103957,
0.00802992518703242,-0.002711757222617503,
0.008079800498753117,-0.01610177706710826,
0.008129675810473816,-0.03285061917119266,
0.008179551122194513,-0.020431771157908875,
0.008229426433915213,-0.02010755933225859,
0.00827930174563591,-0.011136579234502713,
0.00832917705735661,-0.004499513929426007,
0.008379052369077307,-0.011286650271972724,
0.008428927680798006,-0.04379245838142911,
0.008478802992518703,-0.0015691109240764077,
0.0085286783042394,-0.016654292105316368,
0.0085785536159601,-0.014015538539389633,
0.008628428927680797,-0.009358505849270273,
0.008678304239401496,-0.034083415626473185,
0.008728179551122194,-0.02555345269116642,
0.008778054862842893,-0.025527993258274248,
0.00882793017456359,-0.032014358295093366,
0.00887780548628429,-0.007616118652717274,
0.008927680798004987,-0.007923016464620293,
0.008977556109725686,-0.0237716371259122,
0.009027431421446384,-0.027927158987250032,
0.009077306733167083,-0.011358374211381797,
0.00912718204488778,-0.02728034352231467,
0.00917705735660848,0.008574735473327037,
0.009226932668329177,-0.02204087230617208,
0.009276807980049876,-0.024325497774057972,
0.009326683291770574,-0.03790784613428898,
0.009376558603491271,-0.00782837507986898,
0.00942643391521197,-0.013162799215999478,
0.009476309226932668,-0.008370066505217563,
0.009526184538653367,-0.029980031126853005,
0.009576059850374064,-0.013776985692247102,
0.009625935162094763,-0.010745976306529527,
0.00967581047381546,-0.019082508598960112,
0.00972568578553616,-0.021250829937226934,
0.009775561097256857,-0.030269827868200247,
0.009825436408977557,-0.0037707679684651878,
0.009875311720698254,-0.03329822480582809,
0.009925187032418953,-0.04764856974118363,
0.00997506234413965,-0.04292053645162357,
0.01002493765586035,-0.0068385224264800384,
0.010074812967581047,-0.017857313991882822,
0.010124688279301746,-0.02358538898605173,
0.010174563591022444,0.0042705216841172206,
0.010224438902743141,-0.01852680597198454,
0.01027431421446384,-0.02310789160264388,
0.010324189526184538,-0.0016097151069365233,
0.010374064837905237,-0.05093673061940143,
0.010423940149625935,-0.018533454876401352,
0.010473815461346634,0.01580502094444148,
0.010523690773067331,-0.005097801586130275,
0.01057356608478803,-0.016523104996946605,
0.010623441396508728,0.014306223812258566,
0.010673316708229427,-0.018395208194439173,
0.010723192019950124,-0.01998057121897712,
0.010773067331670824,-0.0262336608561324,
0.010822942643391521,-0.00509338482086843,
0.01087281795511222,-0.02143950129986303,
0.010922693266832918,0.02645476355650253,
0.010972568578553617,-0.0330511568027303,
0.011022443890274314,-0.00501550623607294,
0.011072319201995013,-0.018910787174624865,
0.01112219451371571,-0.029275965493187,
0.011172069825436408,-0.01689335616765655,
0.011221945137157107,-0.013541907079428477,
0.011271820448877805,-0.025603060558882444,
0.011321695760598504,-0.03602399763321616,
0.011371571072319201,0.006192208695509382,
0.0114214463840399,-0.011994391268578923,
0.011471321695760598,-0.02003726809332207,
0.011521197007481297,-0.01892105499339599,
0.011571072319201995,-0.037292418738045306,
0.011620947630922694,-0.019848485345575262,
0.011670822942643391,-0.023110086396940337,
0.01172069825436409,-0.014403985195924366,
0.011770573566084788,-0.02873789921725753,
0.011820448877805487,-0.03877210996468654,
0.011870324189526184,0.008828476030442942,
0.011920199501246884,0.007187063849478845,
0.011970074812967581,-0.034143691394156836,
0.012019950124688279,-0.02043781864454687,
0.012069825436408978,-0.006986907217144326,
0.012119700748129675,0.002728783346479184,
0.012169576059850374,0.002373080572667592,
0.012219451371571072,0.007885364856855221,
0.012269326683291771,-0.012180006772774478,
0.012319201995012468,-0.033622550292112224,
0.012369077306733168,-0.04458198816345678,
0.012418952618453865,-0.053400756018613285,
0.012468827930174564,-0.002859706167890625,
0.012518703241895262,-0.00987046859586276,
0.01256857855361596,0.003184058914548746,
0.012618453865336658,-0.03208819168629533,
0.012668329177057357,-0.005666365173634219,
0.012718204488778055,-0.007747847019836148,
0.012768079800498754,-0.037795120064891344,
0.012817955112219451,0.0237798664476246,
0.012867830423940149,-0.008062413241829923,
0.012917705735660848,-0.03456603430372713,
0.012967581047381545,-0.01309122261051092,
0.013017456359102245,-0.010834477477296125,
0.013067331670822942,-0.019632481762375763,
0.013117206982543641,0.002952952511534451,
0.013167082294264339,-0.012736278890220217,
0.013216957605985038,-0.007786766202889836,
0.013266832917705735,-0.005627169936574233,
0.013316708229426434,0.027989446691758547,
0.013366583541147132,0.016644848821416126,
0.013416458852867831,0.009303033684289228,
0.013466334164588529,-0.014129120039811597,
0.013516209476309228,-0.009570804207542017,
0.013566084788029925,-0.0010240078003177768,
0.013615960099750624,0.008761743694234839,
0.013665835411471322,0.003083538705899886,
0.01371571072319202,-0.028708076828378757,
0.013765586034912718,-0.011469281716025487,
0.013815461346633416,0.010226151759851615,
0.013865336658354115,0.002686121254265367,
0.013915211970074812,-0.0011378348491119857,
0.013965087281795512,0.007013746963747772,
0.014014962593516209,-0.00839731619874475,
0.014064837905236908,-0.0024413971693984238,
0.014114713216957606,-0.011176642481512632,
0.014164588528678305,-0.006012451403670599,
0.014214463840399002,0.021921742028722817,
0.014264339152119701,0.03174236985214079,
0.014314214463840399,-0.005533740019774042,
0.014364089775561098,1.743986881392397e-05,
0.014413965087281795,0.036232840165002805,
0.014463840399002495,0.028253015851757,
0.014513715710723192,0.02615911374616336,
0.01456359102244389,-0.0009062448168272331,
0.014613466334164589,0.0074623510060477655,
0.014663341645885286,0.0015321426029406818,
0.014713216957605985,0.01580556407687275,
0.014763092269326683,-0.017713785517004567,
0.014812967581047382,-0.0094679160756296,
0.01486284289276808,-0.006311137850548798,
0.014912718204488778,0.019524149224722728,
0.014962593516209476,0.02269913153806907,
0.015012468827930175,0.014531634400815395,
0.015062344139650873,-0.0047731473102358805,
0.015112219451371572,0.02099230030573006,
0.01516209476309227,0.010175452861760498,
0.015211970074812968,0.029235495736206894,
0.015261845386533666,-0.008617516030113667,
0.015311720698254365,0.015629023408062312,
0.015361596009975062,0.04772821357575346,
0.01541147132169576,-0.00462868704111407,
0.015461346633416459,0.015057630671251387,
0.015511221945137156,-0.005969536849340207,
0.015561097256857856,0.010402383165170486,
0.015610972568578553,0.0010243609227767606,
0.015660847880299252,0.011237841528450579,
0.01571072319201995,0.0017205867531177588,
0.015760598503740647,0.012538482216466263,
0.015810473815461346,-0.01804347056184167,
0.015860349127182045,0.002988462806417955,
0.015910224438902745,0.006915158295048751,
0.01596009975062344,0.00999237324928573,
0.01600997506234414,0.008624884190654216,
0.01605985037406484,-0.007581272417736363,
0.016109725685785538,0.04122494535050535,
0.016159600997506234,0.01870780247850384,
0.016209476309226933,0.0047127575615547,
0.016259351620947632,0.016752759044806435,
0.016309226932668328,0.036125131247267184,
0.016359102244389027,0.03318712568221581,
0.016408977556109726,0.010150193419983392,
0.016458852867830425,0.018858847954836593,
0.01650872817955112,0.03382108538561803,
0.01655860349127182,0.0034773441588796163,
0.01660847880299252,0.006716892601654991,
0.01665835411471322,0.016054583127322077,
0.016708229426433914,0.0048249207633524055,
0.016758104738154613,0.0024602401716587816,
0.016807980049875312,0.0009984591838613933,
0.01685785536159601,0.028549112433333086,
0.016907730673316707,-0.010531124539273967,
0.016957605985037406,0.015893529502994122,
0.017007481296758106,0.019237363404803292,
0.0170573566084788,0.022200166903882945,
0.0171072319201995,0.023266261474917574,
0.0171571072319202,0.023651129967541963,
0.0172069825436409,0.004184606288162283,
0.017256857855361595,0.029752114421620065,
0.017306733167082294,0.016320467896869383,
0.017356608478802993,0.01093788723962169,
0.017406483790523692,0.0024017110022845033,
0.017456359102244388,-0.0037408146438042376,
0.017506234413965087,0.012590062700886251,
0.017556109725685786,0.007696031635123286,
0.017605985037406485,0.040302619885288396,
0.01765586034912718,0.009474741925365515,
0.01770573566084788,0.008886082606589725,
0.01775561097256858,0.011261282458398008,
0.01780548628428928,0.009381079663438208,
0.017855361596009974,0.009004810467601463,
0.017905236907730673,0.024187759761800612,
0.017955112219451373,-0.004823092293876043,
0.018004987531172068,0.025293215576108707,
0.018054862842892767,0.022481111127255267,
0.018104738154613467,0.010000892250406651,
0.018154613466334166,-0.029099010827561677,
0.01820448877805486,0.034010384609574965,
0.01825436408977556,0.028171983109689644,
0.01830423940149626,0.005734989588048328,
0.01835411471321696,0.009130005134342922,
0.018403990024937655,0.03193089465438418,
0.018453865336658354,0.006693158596453468,
0.018503740648379053,-0.004746277272697209,
0.018553615960099752,-0.006878109941297148,
0.018603491271820448,0.017297768078921295,
0.018653366583541147,0.040285366162091156,
0.018703241895261846,-0.002017805370647604,
0.018753117206982542,0.01858904422693723,
0.01880299251870324,0.02632074051135484,
0.01885286783042394,0.033094254940282265,
0.01890274314214464,0.04548258275729483,
0.018952618453865335,0.026305845480526276,
0.019002493765586034,0.03109448686477014,
0.019052369077306733,0.026759289112268055,
0.019102244389027433,0.0404879660617489,
0.01915211970074813,0.03798010226172341,
0.019201995012468828,0.044852655929743176,
0.019251870324189527,0.032106972859376956,
0.019301745635910226,0.01994473005158894,
0.01935162094763092,0.02973841356529371,
0.01940149625935162,-0.020684441357049842,
0.01945137157107232,0.013813678751878175,
0.01950124688279302,0.020494687334122647,
0.019551122194513715,-0.0018735569057225128,
0.019600997506234414,0.05739974066437839,
0.019650872817955113,0.03684171258323145,
0.01970074812967581,0.033335524467186704,
0.019750623441396508,0.04724541260883843,
0.019800498753117207,0.009031538727794563,
0.019850374064837906,0.017445558095389033,
0.019900249376558602,-0.0032719330832757937,
0.0199501246882793,0.023692108103637605,
0.02,0.04213292982572153,
0.0200498753117207,0.03319986699654445,
0.020099750623441395,0.008493178694133846,
0.020149625935162094,0.00486223410034509,
0.020199501246882794,0.03135739406743873,
0.020249376558603493,0.039334731240654904,
0.02029925187032419,0.031767625157318756,
0.020349127182044888,0.03765660128183132,
0.020399002493765587,0.02484122501833476,
0.020448877805486283,0.00610784337818019,
0.02049875311720698,0.007802320029795695,
0.02054862842892768,0.012596637220511842,
0.02059850374064838,0.01200457930009353,
0.020648379052369076,0.017770074603124554,
0.020698254364089775,0.013405506955055227,
0.020748129675810474,-0.0045374140824124345,
0.020798004987531173,0.024880006167584644,
0.02084788029925187,0.014558226343670457,
0.020897755610972568,0.033993829706831645,
0.020947630922693267,0.039144790121079354,
0.020997506234413967,0.006648721551093945,
0.021047381546134662,-0.006513438007486862,
0.02109725685785536,0.03380079674975624,
0.02114713216957606,0.004723381383462795,
0.02119700748129676,0.0023119371012984904,
0.021246882793017455,0.02084986617859393,
0.021296758104738155,0.01616907230277422,
0.021346633416458854,0.03508947821681291,
0.02139650872817955,0.012831929693342365,
0.02144638403990025,0.02192886821920295,
0.021496259351620948,0.01863719633709911,
0.021546134663341647,0.0017916029271658283,
0.021596009975062343,0.026188297750115767,
0.021645885286783042,0.007428854522424774,
0.02169576059850374,0.008870678340292214,
0.02174563591022444,0.013855893162403706,
0.021795511221945136,-0.010852862741614708,
0.021845386533665835,0.03404573864689116,
0.021895261845386534,0.024377496887526044,
0.021945137157107233,0.0052698853409756385,
0.02199501246882793,0.010324897537648276,
0.02204488778054863,0.0032776571036938016,
0.022094763092269327,-0.016771798288089647,
0.022144638403990027,0.02382782021564691,
0.022194513715710722,0.01641083902523576,
0.02224438902743142,0.0008617148729380877,
0.02229426433915212,0.024656253322491172,
0.022344139650872816,0.016995014013057905,
0.022394014962593516,0.014628178809413977,
0.022443890274314215,0.007285389493968062,
0.022493765586034914,0.0173233259046828,
0.02254364089775561,0.017484662783149016,
0.02259351620947631,-0.002558492354232925,
0.022643391521197008,0.029434364870006124,
0.022693266832917707,0.009097637474003675,
0.022743142144638403,0.017633040253590637,
0.022793017456359102,0.006889581963328961,
0.0228428927680798,0.011537574131447039,
0.0228927680798005,-0.016979280041098745,
0.022942643391521196,-0.0020692159936098655,
0.022992518703241895,0.010719407852497528,
0.023042394014962594,0.01640861414819572,
0.02309226932668329,-0.0028140054162641964,
0.02314214463840399,0.02125409028830702,
0.02319201995012469,0.012616192925967983,
0.023241895261845388,0.009501333197123795,
0.023291770573566083,0.01736633824141083,
0.023341645885286783,0.026380364012501052,
0.02339152119700748,0.02283838543131395,
0.02344139650872818,0.03227118744873231,
0.023491271820448877,0.02106416949924843,
0.023541147132169576,0.0025474944530080833,
0.023591022443890275,0.021677996029793867,
0.023640897755610974,0.02337948617250806,
0.02369077306733167,-0.011229312378896792,
0.02374064837905237,0.009941205147911842,
0.023790523690773068,-0.020357279127399753,
0.023840399002493767,-0.004746281687650771,
0.023890274314214463,0.01917904657547235,
0.023940149625935162,-0.009310519073512723,
0.02399002493765586,-9.195880713517256e-05,
0.024039900249376557,0.015091677745567564,
0.024089775561097256,0.03524897148509706,
0.024139650872817955,-0.007826617458185248,
0.024189526184538655,0.03324017097880391,
0.02423940149625935,0.005133886032248411,
0.02428927680798005,0.01548110192686476,
0.02433915211970075,0.015667098714153196,
0.024389027431421448,-0.00443128571989302,
0.024438902743142144,-0.002261235863828647,
0.024488778054862843,-0.02219359581434559,
0.024538653366583542,-0.021097220262955317,
0.02458852867830424,0.0010128190921707798,
0.024638403990024937,-0.012834858055457343,
0.024688279301745636,0.003853107278093697,
0.024738154613466335,-0.012135688366325255,
0.02478802992518703,0.0177124159627341,
0.02483790523690773,-0.031918628247957964,
0.02488778054862843,-0.004971709657648382,
0.02493765586034913,-0.030174363068757256,
0.024987531172069824,-0.03219740390173137,
0.025037406483790523,-0.0067551802621254615,
0.025087281795511222,-0.01467749474077497,
0.02513715710723192,-0.036123405723105184,
0.025187032418952617,-0.021997631973791724,
0.025236907730673316,0.01943412709391648,
0.025286783042394016,0.011982920513312924,
0.025336658354114715,-0.015293271750176203,
0.02538653366583541,-0.04895970977569157,
0.02543640897755611,-0.012655807415718888,
0.02548628428927681,-0.004607562537355623,
0.025536159600997508,-0.010289180418088927,
0.025586034912718204,-0.019253090486243338,
0.025635910224438903,0.001237361837064876,
0.025685785536159602,-0.010172348347199125,
0.025735660847880298,-0.0033604805976398143,
0.025785536159600997,-0.015194264175965843,
0.025835411471321696,-0.024403146341790038,
0.025885286783042395,0.016528129892281994,
0.02593516209476309,-0.014821865209349416,
0.02598503740648379,-0.0228029166713646,
0.02603491271820449,-0.012520387573284018,
0.02608478802992519,-0.013108789444328264,
0.026134663341645884,-0.023058238437674714,
0.026184538653366583,-0.02232428823936739,
0.026234413965087282,-0.008199416381920064,
0.02628428927680798,-0.0020601931173150198,
0.026334164588528677,-0.011885756860562403,
0.026384039900249377,-0.01637094918931043,
0.026433915211970076,-0.023705151449023416,
0.02648379052369077,-0.030488721856450577,
0.02653366583541147,-0.044976959861723016,
0.02658354114713217,-0.01121687813644179,
0.02663341645885287,-0.03493257522785084,
0.026683291770573565,-0.03606921571349686,
0.026733167082294264,-0.01201306164111521,
0.026783042394014963,-0.012512783845371031,
0.026832917705735662,0.0013794024433839147,
0.026882793017456358,-0.0020468581937207863,
0.026932668329177057,-0.008415281390253715,
0.026982543640897756,-0.013980614418141862,
0.027032418952618455,0.0005989956007569439,
0.02708229426433915,-0.014638332756922681,
0.02713216957605985,-0.020766746021569808,
0.02718204488778055,-0.005764572562952236,
0.02723192019950125,-0.03253235886514321,
0.027281795511221944,-0.013467624608001993,
0.027331670822942643,0.007949280019114406,
0.027381546134663343,-0.0053048381301245215,
0.02743142144638404,-0.02822863547868358,
0.027481296758104738,-0.028832736118960485,
0.027531172069825437,-0.031822679155897614,
0.027581047381546136,-0.019052872906684348,
0.02763092269326683,-0.007957674237939808,
0.02768079800498753,0.005063143847926766,
0.02773067331670823,-0.017749614100822556,
0.02778054862842893,0.009660477638736256,
0.027830423940149625,-0.013720638962756434,
0.027880299251870324,-0.03333452355661259,
0.027930174563591023,-0.012428706164074982,
0.027980049875311722,0.0036221858722516077,
0.028029925187032418,-0.022195535263411233,
0.028079800498753117,-0.005667849844222025,
0.028129675810473816,-0.004403128563127275,
0.028179551122194512,0.014160484950210384,
0.02822942643391521,-0.021334997538669295,
0.02827930174563591,-0.031756399895314556,
0.02832917705735661,-0.03767638901761883,
0.028379052369077305,-0.05857644705627353,
0.028428927680798004,-0.025282397703004902,
0.028478802992518704,-0.01928352858958998,
0.028528678304239403,-0.02310951437639657,
0.0285785536159601,-0.0117680705340317,
0.028628428927680798,-0.024606690488147225,
0.028678304239401497,-0.022022964845719712,
0.028728179551122196,-0.019048568854403283,
0.02877805486284289,-0.027004230130141763,
0.02882793017456359,-0.026683077252460344,
0.02887780548628429,-0.009521181294041262,
0.02892768079800499,-0.0077235136108850955,
0.028977556109725685,-0.010932886521625614,
0.029027431421446384,-0.012917117428319226,
0.029077306733167083,-0.006229202231602567,
0.02912718204488778,-0.02763111562728491,
0.029177057356608478,-0.04109617670207613,
0.029226932668329177,-0.02533297213746473,
0.029276807980049877,-0.00829720198081673,
0.029326683291770572,-0.027722953898129454,
0.02937655860349127,-0.03589096244823724,
0.02942643391521197,0.001730398490324428,
0.02947630922693267,0.018611048707224853,
0.029526184538653365,-0.03064273118740337,
0.029576059850374065,0.014399274066714304,
0.029625935162094764,0.009235192704164424,
0.029675810473815463,-0.019146446116715666,
0.02972568578553616,-0.03569870178591124,
0.029775561097256858,-0.01793801521810953,
0.029825436408977557,-0.026348097374590474,
0.029875311720698253,-0.03333544270381386,
0.029925187032418952,-0.007704700300294621,
0.02997506234413965,-0.044281191267291936,
0.03002493765586035,0.00850444352137067,
0.030074812967581046,-0.01921730298943205,
0.030124688279301745,-0.007578347743008343,
0.030174563591022444,-0.004490289256132934,
0.030224438902743143,-0.00011179260046033021,
0.03027431421446384,-0.014185323899221145,
0.03032418952618454,-0.01086095391487754,
0.030374064837905237,0.02117897571340484,
0.030423940149625937,-0.0034468920343975248,
0.030473815461346632,-0.021839390657391086,
0.03052369077306733,-0.024482132638142938,
0.03057356608478803,-0.016794256745726897,
0.03062344139650873,-0.03562217257685937,
0.030673316708229426,-0.009867416344787522,
0.030723192019950125,-0.017529576677263747,
0.030773067331670824,-0.02652415032074791,
0.03082294264339152,-0.008011618890437949,
0.03087281795511222,-0.024476200613420446,
0.030922693266832918,-0.0339541326709621,
0.030972568578553617,-0.03805382898270717,
0.031022443890274313,-0.019014281175899112,
0.031072319201995012,-0.009699745489719159,
0.03112219451371571,-0.008817840990964696,
0.03117206982543641,-0.02393848728325104,
0.031221945137157106,-0.009339420081851482,
0.03127182044887781,-0.019775442134140092,
0.031321695760598504,-0.0052057954693097985,
0.0313715710723192,-0.03506827717306852,
0.0314214463840399,-0.0157609613042672,
0.0314713216957606,-0.004421248706519033,
0.031521197007481294,-0.019599498079170476,
0.031571072319202,-0.006579093319781205,
0.03162094763092269,-0.022115589397426003,
0.03167082294264339,-0.006989140363539117,
0.03172069825436409,-0.023399947864376356,
0.03177057356608479,-0.01733373709363233,
0.03182044887780549,-0.027231166039719548,
0.031870324189526185,-0.002998671538753368,
0.03192019950124688,-0.0271635600763825,
0.03197007481296758,0.02251952517185086,
0.03201995012468828,-0.015965459544375987,
0.032069825436408975,-0.038256482955185335,
0.03211970074812968,-0.011368160154125674,
0.03216957605985037,0.004178419964756073,
0.032219451371571076,-0.021617491145711803,
0.03226932668329177,0.002713500506370205,
0.03231920199501247,-0.011292764986523575,
0.03236907730673317,-0.004609603718125672,
0.032418952618453865,-0.0007092015671450857,
0.03246882793017456,0.017205105588072665,
0.032518703241895264,0.0014207626382309307,
0.03256857855361596,0.003075514662908004,
0.032618453865336655,-0.007385205247701417,
0.03266832917705736,-0.010586802005583568,
0.032718204488778053,-0.015143076218706707,
0.032768079800498756,-0.007861773256716805,
0.03281795511221945,0.005663295409825303,
0.03286783042394015,0.015373536405254618,
0.03291770573566085,-0.015242052582235845,
0.032967581047381546,-0.00641956693528583,
0.03301745635910224,0.0163954784982312,
0.033067331670822944,-0.003121918440496661,
0.03311720698254364,0.0015661763304225702,
0.03316708229426434,-0.013429454968117541,
0.03321695760598504,0.0033951943495119452,
0.033266832917705734,-0.018182536756197545,
0.03331670822942644,0.007566639060232897,
0.03336658354114713,-0.004959382731007899,
0.03341645885286783,-0.0004271249392199289,
0.03346633416458853,-0.012111587452221502,
0.033516209476309226,0.00515987573458491,
0.03356608478802992,0.0001125518763224029,
0.033615960099750625,-0.028702445572586444,
0.03366583541147132,-0.01851267391743453,
0.03371571072319202,-0.005836744401196905,
0.03376558603491272,0.0029023081394902762,
0.033815461346633414,0.016144154538706188,
0.03386533665835412,0.01000524866206385,
0.03391521197007481,0.009424064224203707,
0.03396508728179551,-0.0018572449006779169,
0.03401496259351621,-0.016464108463284863,
0.03406483790523691,-0.020361810021127837,
0.0341147132169576,-0.012112490344392655,
0.034164588528678305,0.008634776025839855,
0.034214463840399,-0.005327401475495587,
0.034264339152119704,-0.019231795163688538,
0.0343142144638404,-0.013689031919343,
0.034364089775561095,-0.013224511385083574,
0.0344139650872818,0.01708245035168162,
0.03446384039900249,0.017029204708714146,
0.03451371571072319,0.008966731538755355,
0.03456359102244389,0.009993041913247484,
0.03461346633416459,0.004280127544424961,
0.03466334164588529,0.008994926590277551,
0.034713216957605986,0.0012447449219418123,
0.03476309226932668,0.03313175180040457,
0.034812967581047384,0.005276043283820833,
0.03486284289276808,0.013111865788458972,
0.034912718204488775,-0.0064958342897104586,
0.03496259351620948,0.009098498522303593,
0.035012468827930174,0.012567717259834372,
0.03506234413965087,-0.007697872513819295,
0.03511221945137157,0.0047158669009987305,
0.03516209476309227,-0.01804431058688068,
0.03521197007481297,-0.00903489566741028,
0.035261845386533666,0.0031598008153304706,
0.03531172069825436,-0.005085691853252201,
0.035361596009975065,0.014680855437224805,
0.03541147132169576,0.016071163626337856,
0.035461346633416456,0.014829068840678913,
0.03551122194513716,0.017902306247250317,
0.035561097256857854,0.01055257954594643,
0.03561097256857856,0.003113958438393229,
0.03566084788029925,0.022384119454805108,
0.03571072319201995,-0.0007946226415633997,
0.03576059850374065,0.0018446073611013258,
0.03581047381546135,0.009885824613984993,
0.03586034912718204,0.0037833044015440544,
0.035910224438902745,0.020198685890760217,
0.03596009975062344,0.013531599593712657,
0.036009975062344136,0.010197223577817171,
0.03605985037406484,0.017260721073933033,
0.036109725685785535,0.011691260867887942,
0.03615960099750624,0.04151739569223344,
0.03620947630922693,0.007090553189955275,
0.03625935162094763,-0.0009529494679066126,
0.03630922693266833,-0.005809507351000512,
0.03635910224438903,0.019426734840970072,
0.03640897755610972,0.032928506774756824,
0.036458852867830426,0.02083472463394752,
0.03650872817955112,0.007790339983581209,
0.036558603491271824,0.016891730235667216,
0.03660847880299252,0.014718721100430767,
0.036658354114713215,0.012278814531086157,
0.03670822942643392,0.036107882314749554,
0.036758104738154614,0.035411695158336365,
0.03680798004987531,0.007837071611460402,
0.03685785536159601,0.012341697106711432,
0.03690773067331671,0.008300575243914204,
0.0369576059850374,0.016767994518801593,
0.037007481296758106,0.02909500083964916,
0.0370573566084788,0.017686143485206477,
0.037107231920199504,0.021601455300125052,
0.0371571072319202,0.01072322370934777,
0.037206982543640896,-0.006850812876434919,
0.0372568578553616,0.012314479046202063,
0.037306733167082294,0.025236380891042767,
0.03735660847880299,0.004305266832096151,
0.03740648379052369,0.04061461006064347,
0.03745635910224439,0.003639512659585965,
0.037506234413965084,0.005497995743626876,
0.037556109725685786,0.03131445366164308,
0.03760598503740648,-0.004519536513302381,
0.037655860349127185,0.006988627362310942,
0.03770573566084788,0.029345421531003866,
0.037755610972568576,0.029905486504705925,
0.03780548628428928,0.037290522451486695,
0.037855361596009975,0.024500042185382074,
0.03790523690773067,0.028022264057541987,
0.03795511221945137,0.028729366600589466,
0.03800498753117207,0.028944814931570962,
0.03805486284289277,0.029991929108189885,
0.03810473815461347,0.0271341107406017,
0.03815461346633416,0.04418685535130573,
0.038204488778054865,0.04167635634281196,
0.03825436408977556,0.007985927394171002,
0.03830423940149626,0.02000072370441425,
0.03835411471321696,0.015536610092460351,
0.038403990024937655,0.02199538559830687,
0.03845386533665835,0.0018338125993817601,
0.03850374064837905,0.025650089277493703,
0.03855361596009975,0.036912579942329646,
0.03860349127182045,0.003151320596211867,
0.03865336658354115,0.04337111921136892,
0.03870324189526184,-0.0015538943774144227,
0.038753117206982546,0.023918764350532334,
0.03880299251870324,0.014138888067234026,
0.03885286783042394,0.007724168763677172,
0.03890274314214464,0.02358192013386515,
0.038952618453865336,0.03293389003546804,
0.03900249376558604,0.03999374496214766,
0.039052369077306734,0.01066061735070058,
0.03910224438902743,0.010334502883712106,
0.03915211970074813,0.03861671270652847,
0.03920199501246883,0.01392591078023473,
0.039251870324189524,0.004262225632109016,
0.039301745635910226,0.01852752642527435,
0.03935162094763092,0.05594992785149128,
0.03940149625935162,0.011777960423520948,
0.03945137157107232,0.022221194759875756,
0.039501246882793016,0.04115096612719127,
0.03955112219451372,0.02243341119411133,
0.039600997506234414,0.01170438370769047,
0.03965087281795511,0.04037744356125976,
0.03970074812967581,0.022365476419882922,
0.03975062344139651,0.03432460395983123,
0.039800498753117204,0.012705055624712637,
0.03985037406483791,0.03159070178442035,
0.0399002493765586,0.017504037201530098,
0.039950124688279305,0.021984942420848932,
0.04,6.762030970916197e-05,
0.0400498753117207,0.01955976265735971,
0.0400997506234414,0.024704729469483395,
0.040149625935162095,0.04315254157793988,
0.04019950124688279,0.004636279951336128,
0.04024937655860349,-0.005754653840588372,
0.04029925187032419,0.009330146672593898,
0.040349127182044885,0.023644322905031934,
0.04039900249376559,0.03313133054975953,
0.04044887780548628,0.027596394106722287,
0.040498753117206986,0.019834339166338495,
0.04054862842892768,0.010824752370421567,
0.04059850374064838,0.005181007673128107,
0.04064837905236908,-0.003566606368965622,
0.040698254364089775,0.017829755727675027,
0.04074812967581047,0.04810715867484146,
0.040798004987531174,0.04156370869535875,
0.04084788029925187,0.01563784652322627,
0.040897755610972565,0.02472361051616693,
0.04094763092269327,-0.00010108916642252025,
0.04099750623441396,0.011458239771248924,
0.041047381546134666,0.03067253977333119,
0.04109725685785536,0.01885599592098146,
0.04114713216957606,0.014728281314966563,
0.04119700748129676,0.04009089012292856,
0.041246882793017456,0.011901360836789533,
0.04129675810473815,-0.004357964005391381,
0.041346633416458854,-0.014091618834630098,
0.04139650872817955,0.01927406160719153,
0.04144638403990025,0.03619571295677523,
0.04149625935162095,0.015046430737670093,
0.041546134663341644,0.001232679503922432,
0.04159600997506235,0.02573112066195849,
0.04164588528678304,0.02358606564553838,
0.04169576059850374,0.013428880759157186,
0.04174563591022444,0.004207357468831026,
0.041795511221945136,0.03240039063922424,
0.04184538653366583,0.006623658775129928,
0.041895261845386535,0.028410126673829972,
0.04194513715710723,0.04780744691033502,
0.04199501246882793,-0.003477625546448211,
0.04204488778054863,0.02581839573946356,
0.042094763092269324,0.0005815193672378191,
0.04214463840399003,0.032812161399181215,
0.04219451371571072,0.009258583229844491,
0.04224438902743142,0.013953915300830311,
0.04229426433915212,0.02073184111720435,
0.04234413965087282,0.0329248836280256,
0.04239401496259352,0.007937798174838237,
0.042443890274314215,0.005739709446304317,
0.04249376558603491,0.0021364326390078143,
0.042543640897755614,0.029378916766927353,
0.04259351620947631,0.028269301290533143,
0.042643391521197005,-0.0001634454783629221,
0.04269326683291771,0.022414559852222644,
0.0427431421446384,0.034554705558121054,
0.0427930174563591,0.017264243985812062,
0.0428428927680798,-0.010771974841992448,
0.0428927680798005,0.016552759112177736,
0.0429426433915212,0.0010056625640930978,
0.042992518703241896,0.00773976185856116,
0.04304239401496259,0.004561934390090296,
0.043092269326683294,0.015728777241060546,
0.04314214463840399,0.015487242183076119,
0.043192019950124685,0.034410959056411713,
0.04324189526184539,0.012669945166055912,
0.043291770573566084,0.008289405236052183,
0.043341645885286786,-0.017347998859764454,
0.04339152119700748,0.008847451995757389,
0.04344139650872818,0.01864885942949146,
0.04349127182044888,0.0061680672701692136,
0.043541147132169576,0.011981188640749301,
0.04359102244389027,0.02398328477577031,
0.043640897755610975,-0.0155235109452046,
0.04369077306733167,0.008886958619742986,
0.043740648379052366,0.03458525925490176,
0.04379052369077307,-0.001513582191713072,
0.043840399002493764,-0.014652917137393659,
0.04389027431421447,0.012857752095888495,
0.04394014962593516,-0.014415586067376727,
0.04399002493765586,-0.011092009970206691,
0.04403990024937656,0.01926586259038497,
0.04408977556109726,-0.005480350179233406,
0.04413965087281795,0.011940400103580976,
0.044189526184538655,-0.01544979947515654,
0.04423940149625935,0.000843841207032119,
0.04428927680798005,0.002588975118473622,
0.04433915211970075,0.007123598552792776,
0.044389027431421445,0.01596475112276607,
0.04443890274314215,-0.00735917186936199,
0.04448877805486284,0.014572622363773378,
0.04453865336658354,-0.017014233223786705,
0.04458852867830424,3.6135433513255315e-05,
0.04463840399002494,0.019973630109044956,
0.04468827930174563,-0.0025932066606771656,
0.044738154613466335,-0.018606508333584047,
0.04478802992518703,-0.014103429386878086,
0.044837905236907734,-0.0016612370492550175,
0.04488778054862843,0.003589811113146519,
0.044937655860349125,-0.01281783720182987,
0.04498753117206983,-0.003001792931915424,
0.045037406483790524,0.011232735315527044,
0.04508728179551122,0.01481825245186469,
0.04513715710723192,-0.013970787600076745,
0.04518703241895262,-0.0007348327105651973,
0.04523690773067331,0.00785828974484052,
0.045286783042394016,-0.003596552476134358,
0.04533665835411471,-0.025311277803536352,
0.045386533665835414,-0.023594959812955008,
0.04543640897755611,0.0030186057188168838,
0.045486284289276806,-0.0010694542798984309,
0.04553615960099751,-0.01332837175284471,
0.045586034912718204,0.025949111702513825,
0.0456359102244389,0.015535789973051006,
0.0456857855361596,0.012418956104867023,
0.0457356608478803,-0.008005780323090208,
0.045785536159601,-0.01974434904112189,
0.045835411471321696,-0.013319324884734049,
0.04588528678304239,0.013261399767821667,
0.045935162094763095,-0.0030270571916033813,
0.04598503740648379,0.0032996002613260933,
0.046034912718204486,-0.0018283026515542372,
0.04608478802992519,0.03329077299552136,
0.046134663341645885,-0.036937464743440195,
0.04618453865336658,-0.04433094218870305,
0.04623441396508728,0.006556080251242198,
0.04628428927680798,-0.02480045582033447,
0.04633416458852868,0.016037400599998985,
0.04638403990024938,-0.012821854089271542,
0.04643391521197007,-0.021949631959725067,
0.046483790523690775,-0.006668850847670269,
0.04653366583541147,-0.0027025539984731955,
0.04658354114713217,-0.01067498414838659,
0.04663341645885287,-0.026369127848073895,
0.046683291770573565,-0.04294922087845998,
0.04673316708229427,-0.03842154951876132,
0.04678304239401496,-0.02403449696787717,
0.04683291770573566,-0.01685863164427075,
0.04688279301745636,-0.008011388623377783,
0.04693266832917706,-0.025998538279668394,
0.04698254364089775,-0.035797369524234665,
0.047032418952618456,-0.015386197672644895,
0.04708229426433915,0.025298058364589975,
0.04713216957605985,-0.003894194517905009,
0.04718204488778055,-0.018813352787027268,
0.047231920199501246,-0.006575068519548632,
0.04728179551122195,-0.018687622193207853,
0.047331670822942644,-0.02686559944363745,
0.04738154613466334,-0.024144704639725133,
0.04743142144638404,-0.013536395590428095,
0.04748129675810474,-0.050020738072245906,
0.047531172069825434,-0.017585204449126188,
0.047581047381546136,-0.022988341694142704,
0.04763092269326683,0.007453958304113245,
0.047680798004987535,-0.026449645366984686,
0.04773067331670823,-0.008042812560626604,
0.047780548628428926,-0.010711743069672897,
0.04783042394014963,-0.003972018841146901,
0.047880299251870324,-0.00845996885959491,
0.04793017456359102,-0.015194588630092673,
0.04798004987531172,-0.026137255704588636,
0.04802992518703242,-0.020757084422303656,
0.048079800498753114,0.002303805217101624,
0.04812967581047382,-0.013130590843988354,
0.04817955112219451,-0.011025427957654647,
0.048229426433915215,-0.010524203472313054,
0.04827930174563591,-0.03406467453668541,
0.048329177057356607,-0.014168340751233752,
0.04837905236907731,-0.030787331384387447,
0.048428927680798005,-0.016286371759547235,
0.0484788029925187,-0.04050178757591526,
0.0485286783042394,-0.03211533588698182,
0.0485785536159601,-0.03419130227359855,
0.048628428927680795,-0.014714517697151671,
0.0486783042394015,-0.029048165783277298,
0.04872817955112219,-0.005394780148155899,
0.048778054862842896,-0.021815196124378617,
0.04882793017456359,-0.008862416502409806,
0.04887780548628429,-0.01145710906110986,
0.04892768079800499,-0.005947928785269957,
0.048977556109725685,-0.04549453408253652,
0.04902743142144638,-0.02400292032190099,
0.049077306733167084,-0.03275199160677692,
0.04912718204488778,-0.01984262265794079,
0.04917705735660848,-0.0025118290960943496,
0.04922693266832918,-0.019249761504198267,
0.04927680798004987,-0.0275637140918081,
0.049326683291770576,-0.021382772472148363,
0.04937655860349127,-0.025022570513219967,
0.04942643391521197,-0.02739872936860774,
0.04947630922693267,-0.01620482335524683,
0.049526184538653366,-0.020767870184752603,
0.04957605985037406,-0.04443551522311097,
0.049625935162094764,-0.03747555277834251,
0.04967581047381546,-0.0037673737128258757,
0.04972568578553616,-0.01226662510832319,
0.04977556109725686,-0.01807153897673959,
0.049825436408977554,-0.026946640346059224,
0.04987531172069826,-0.006583430381835868,
0.04992518703241895,0.005490756668112672,
0.04997506234413965,0.0027931402309491933,
0.05002493765586035,-0.023317925021810765,
0.050074812967581046,-0.054559034139267534,
0.05012468827930175,-0.010699438210975082,
0.050174563591022445,-0.017039580239710604,
0.05022443890274314,-0.01011817798080128,
0.05027431421446384,-0.04727873844706157,
0.05032418952618454,-0.004030983419211825,
0.050374064837905234,0.0055809352270725365,
0.05042394014962594,-0.001421113482318423,
0.05047381546134663,-0.02856576506446956,
0.05052369077306733,-0.00851013836147042,
0.05057356608478803,-0.018959677928999885,
0.05062344139650873,-0.02207609476662773,
0.05067331670822943,-0.00670247139558835,
0.050723192019950125,-0.026518537132464763,
0.05077306733167082,-0.01948459995013889,
0.050822942643391524,0.005900711334276177,
0.05087281795511222,-0.001328690414648349,
0.050922693266832915,0.0006916376240322323,
0.05097256857855362,-0.017124937652072895,
0.05102244389027431,-0.033909943406331224,
0.051072319201995016,-0.0008193681959514417,
0.05112219451371571,0.004064724814519223,
0.05117206982543641,-0.0377324230477888,
0.05122194513715711,-0.010210555962048604,
0.051271820448877806,-0.007915106315606553,
0.0513216957605985,0.005442978486010644,
0.051371571072319204,0.006855211067930361,
0.0514214463840399,-0.010244394701496174,
0.051471321695760595,-0.015940662657641394,
0.0515211970074813,-0.009763831207335916,
0.051571072319201994,-0.027420961641407872,
0.051620947630922696,-0.009395709029674374,
0.05167082294264339,-0.0019743100804809222,
0.05172069825436409,-0.029443316964591144,
0.05177057356608479,-0.005671079607554035,
0.051820448877805486,-0.00514100610895729,
0.05187032418952618,0.015425028201394974,
0.051920199501246884,0.0026704643322451056,
0.05197007481296758,-0.008028245280302436,
0.052019950124688276,-0.0056378321375446915,
0.05206982543640898,-0.019619229854745693,
0.052119700748129674,-0.009353902014727302,
0.05216957605985038,0.00503581875053374,
0.05221945137157107,0.0009403907318367224,
0.05226932668329177,-0.007714299775658923,
0.05231920199501247,-0.019035191277087193,
0.05236907730673317,-0.020894617012881644,
0.05241895261845386,0.014716265282695293,
0.052468827930174565,-0.01603956279743218,
0.05251870324189526,-0.02348251807891146,
0.05256857855361596,0.02767663514985582,
0.05261845386533666,-0.02385246261850706,
0.052668329177057355,-0.02806431485512413,
0.05271820448877806,-0.006858203399727156,
0.05276807980049875,-0.012614620674951192,
0.05281795511221945,-0.016812379404873904,
0.05286783042394015,0.014615177631732871,
0.05291770573566085,0.020781269565641497,
0.05296758104738154,0.010718502793729169,
0.053017456359102245,0.022388566925815607,
0.05306733167082294,0.007700866520282836,
0.053117206982543644,-0.005310364488702705,
0.05316708229426434,0.00412577288443926,
0.053216957605985035,-0.014989023895534744,
0.05326683291770574,-0.0026732008163665756,
0.053316708229426434,-0.016983627077365417,
0.05336658354114713,0.015203280911377922,
0.05341645885286783,0.003142022937747382,
0.05346633416458853,0.00200456124651026,
0.05351620947630923,0.01454352196414643,
0.053566084788029926,0.03157252911895148,
0.05361596009975062,0.008560647759712735,
0.053665835411471324,0.003336689672049485,
0.05371571072319202,-0.02176385704671443,
0.053765586034912716,0.003602997634384725,
0.05381546134663342,0.0003333678260074208,
0.053865336658354114,-0.035960410838092226,
0.05391521197007481,-0.0009319096995934935,
0.05396508728179551,-0.016356974254051946,
0.05401496259351621,-0.0037555403630138238,
0.05406483790523691,0.009945891629949617,
0.054114713216957606,0.010830803796982716,
0.0541645885286783,-0.0341621025261224,
0.054214463840399005,0.020263485383160047,
0.0542643391521197,-0.0007539735264819438,
0.054314214463840396,0.0012029652939655236,
0.0543640897755611,-0.010066050892785073,
0.054413965087281795,0.0027095316568342296,
0.0544638403990025,0.00426150646871089,
0.05451371571072319,0.005440165683716871,
0.05456359102244389,0.001450066330658313,
0.05461346633416459,-0.006660718914553512,
0.05466334164588529,0.006009274977199575,
0.05471321695760598,-0.009861586518394394,
0.054763092269326685,-0.005646878906974703,
0.05481296758104738,0.025429955966514026,
0.05486284289276808,-0.0013474108702884076,
0.05491271820448878,0.0014884284325929215,
0.054962593516209475,0.0019486239138910184,
0.05501246882793018,0.02481878315088853,
0.05506234413965087,0.027504620461981447,
0.05511221945137157,0.006865875977519074,
0.05516209476309227,-0.00045564190364627034,
0.05521197007481297,0.008052741315976143,
0.05526184538653366,-0.0038525686360352963,
0.055311720698254366,0.014711957058215555,
0.05536159600997506,0.020943279750490706,
0.05541147132169576,0.03939769551153249,
0.05546134663341646,0.0015875821891667505,
0.055511221945137156,0.019048171831048226,
0.05556109725685786,0.02458483568526247,
0.055610972568578554,0.029047400652059983,
0.05566084788029925,-0.00048637486464298517,
0.05571072319201995,-0.0011803299930909974,
0.05576059850374065,0.00906314711803679,
0.055810473815461344,0.005358570758722151,
0.055860349127182046,0.017242369417206527,
0.05591022443890274,0.003506438069940075,
0.055960099750623445,0.028953755276168364,
0.05600997506234414,0.02185958919184395,
0.056059850374064836,0.02279156593782091,
0.05610972568578554,0.028130812591498015,
0.056159600997506234,0.023655146050074363,
0.05620947630922693,0.005318502651814105,
0.05625935162094763,0.01622209700333667,
0.05630922693266833,-0.003015534041332698,
0.056359102244389024,0.001858851597082642,
0.05640897755610973,0.025706494331495695,
0.05645885286783042,0.03052221129382915,
0.056508728179551125,0.01213229624840256,
0.05655860349127182,0.02508737612731564,
0.056608478802992516,0.02795780057229201,
0.05665835411471322,0.047926459762491866,
0.056708229426433915,0.022417300600510608,
0.05675810473815461,0.03149738041038772,
0.05680798004987531,0.014104441048418662,
0.05685785536159601,0.013119423142195032,
0.05690773067331671,0.020211168967034163,
0.05695760598503741,0.043514536005231426,
0.0570074812967581,0.0018973211268431406,
0.057057356608478806,0.005656136660992246,
0.0571072319201995,0.013583982841704806,
0.0571571072319202,-0.005344702969867457,
0.0572069825436409,0.04337353681439378,
0.057256857855361595,0.0006599817851172841,
0.05730673316708229,0.018694503174200718,
0.057356608478802994,0.009418471042186906,
0.05740648379052369,0.0008635105681222138,
0.05745635910224439,0.007998884251372592,
0.05750623441396509,0.01063032618996971,
0.05755610972568578,0.02357060247923721,
0.057605985037406486,0.003198175135522629,
0.05765586034912718,0.016634652306481045,
0.05770573566084788,-0.01877258952066236,
0.05775561097256858,0.035029633296112424,
0.057805486284289276,0.06491279121801856,
0.05785536159600998,-0.00905245215071588,
0.057905236907730674,-0.0011197481683343016,
0.05795511221945137,0.028786665848340248,
0.05800498753117207,0.003726346780305999,
0.05805486284289277,0.02434952939730001,
0.058104738154613464,0.019658438664267135,
0.05815461346633417,0.028680787155029315,
0.05820448877805486,0.026511889106030286,
0.05825436408977556,0.015608734544787884,
0.05830423940149626,0.02938942194453857,
0.058354114713216956,0.030065838710572286,
0.05840399002493766,0.0026915588366166997,
0.058453865336658355,0.02372025118514951,
0.05850374064837905,0.03429582718236141,
0.05855361596009975,0.05604341322166038,
0.05860349127182045,-0.006010193689798635,
0.058653366583541144,0.04027688659181421,
0.05870324189526185,0.02729440248312225,
0.05875311720698254,0.03504155664490278,
0.05880299251870324,0.021354856834821852,
0.05885286783042394,0.03391811513292802,
0.05890274314214464,0.004183528339342185,
0.05895261845386534,0.018329060886089505,
0.059002493765586035,0.022107469961655763,
0.05905236907730673,0.023306352061356384,
0.059102244389027433,0.031112392338778366,
0.05915211970074813,0.008432012081680897,
0.059201995012468825,0.044151791124820636,
0.05925187032418953,0.010565060038154737,
0.05930174563591022,0.03307284236541052,
0.059351620947630926,0.03178956771772829,
0.05940149625935162,0.057810742876026056,
0.05945137157107232,-0.01740347973451045,
0.05950124688279302,0.0064747182802000515,
0.059551122194513716,0.03836420416611768,
0.05960099750623441,0.015991706361645326,
0.059650872817955114,0.053091191480402256,
0.05970074812967581,0.030030389084372184,
0.059750623441396505,0.019359712513875565,
0.05980049875311721,0.03660918158273373,
0.059850374064837904,0.0036454259163858395,
0.059900249376558606,0.020644604277506987,
0.0599501246882793,0.025394430216877206,
0.06,0.03982441437961419,
0.0600498753117207,0.011039358930185579,
0.060099750623441396,0.02931464502494767,
0.06014962593516209,0.03264243908979891,
0.060199501246882794,0.011110977297304326,
0.06024937655860349,0.03988172403904797,
0.06029925187032419,0.02224236325270478,
0.06034912718204489,0.023905126542486783,
0.060399002493765584,0.030638400202936292,
0.06044887780548629,0.025575037336941817,
0.06049875311720698,0.04579293449059889,
0.06054862842892768,0.005634631800800441,
0.06059850374064838,0.04663040646016384,
0.06064837905236908,0.034943562648175705,
0.06069825436408977,0.011834533474317975,
0.060748129675810475,-0.003381654687919372,
0.06079800498753117,0.028658578545940457,
0.06084788029925187,0.03240488633878376,
0.06089775561097257,0.015387624080396933,
0.060947630922693265,0.052949292677505436,
0.06099750623441397,0.012033249129535665,
0.06104738154613466,0.02824004285797532,
0.06109725685785536,0.028709344373064702,
0.06114713216957606,0.03052619450564836,
0.06119700748129676,-0.0015981828256924,
0.06124688279301746,0.011262465108703129,
0.061296758104738155,0.03780986239950597,
0.06134663341645885,0.040753318883804165,
0.061396508728179554,0.021877075289007515,
0.06144638403990025,0.013153749777010289,
0.061496259351620945,0.054249213242454734,
0.06154613466334165,0.019530602380361382,
0.061596009975062344,0.01989564725195768,
0.06164588528678304,-0.0006938070194128267,
0.06169576059850374,-0.0033324860186192233,
0.06174563591022444,0.002715327795554199,
0.06179551122194514,0.03278891101799011,
0.061845386533665836,0.02886983145473778,
0.06189526184538653,0.012068621109593385,
0.061945137157107234,0.01676096336366987,
0.06199501246882793,0.026540504273815997,
0.062044887780548626,0.028491700808757403,
0.06209476309226933,0.006656331749288088,
0.062144638403990024,0.0042982603622169855,
0.06219451371571072,0.04046723905080153,
0.06224438902743142,0.012119482297145889,
0.06229426433915212,0.009501118312475344,
0.06234413965087282,0.032740978097019396,
0.062394014962593516,0.03041268360398825,
0.06244389027431421,0.0300284964108194,
0.062493765586034915,-0.008897169723181879,
0.06254364089775562,0.02617061617018157,
0.06259351620947631,0.02040585767355612,
0.06264339152119701,0.029307038737594833,
0.0626932668329177,-0.0027106179541334964,
0.0627431421446384,0.017219475461431533,
0.0627930174563591,-0.013785523088905466,
0.0628428927680798,0.0030812268200637975,
0.0628927680798005,0.010664736098884122,
0.0629426433915212,0.017804904936676802,
0.06299251870324189,0.02313505792640877,
0.06304239401496259,0.03685556431463336,
0.0630922693266833,-0.004455478952307572,
0.063142144638404,0.01779140950007344,
0.06319201995012469,0.024643584098333705,
0.06324189526184539,0.018867064089683725,
0.06329177057356608,-0.0023045773971316734,
0.06334164588528678,0.016493173321142314,
0.06339152119700749,-0.017636613966985907,
0.06344139650872818,0.027369814195979832,
0.06349127182044888,0.02230577947225431,
0.06354114713216957,0.011495042927735665,
0.06359102244389027,0.02795508069188237,
0.06364089775561098,0.0026936155880747112,
0.06369077306733167,0.00764333719573166,
0.06374064837905237,-0.004955539824769319,
0.06379052369077307,0.0214815435033033,
0.06384039900249376,-0.0012561436607402676,
0.06389027431421446,0.005952252061278224,
0.06394014962593517,0.005785194503038892,
0.06399002493765586,0.006507729789483352,
0.06403990024937656,0.003516605854119334,
0.06408977556109725,0.0009294756644276743,
0.06413965087281795,0.010605268121785753,
0.06418952618453866,0.02131167691119342,
0.06423940149625935,0.01471103236834026,
0.06428927680798005,0.01463582025486181,
0.06433915211970075,-0.007898582787448729,
0.06438902743142144,0.0074110016110554835,
0.06443890274314215,-0.012738620075370227,
0.06448877805486285,0.0008713017688463461,
0.06453865336658354,-0.004403546211780401,
0.06458852867830424,-0.0006330324065905155,
0.06463840399002493,-0.000951569188957948,
0.06468827930174563,-0.0028443940033251315,
0.06473815461346634,0.03384419922607877,
0.06478802992518704,-0.004594401308173299,
0.06483790523690773,0.027727372587304473,
0.06488778054862843,0.015657060524142032,
0.06493765586034912,-0.009692802816446322,
0.06498753117206983,0.002092284613049951,
0.06503740648379053,-0.0008100522934746939,
0.06508728179551122,-8.346795571430418e-05,
0.06513715710723192,0.01329674046500608,
0.06518703241895261,-0.010077033940463095,
0.06523690773067331,-0.022822757403255657,
0.06528678304239402,0.00716476473418371,
0.06533665835411472,-0.002943110864905687,
0.06538653366583541,-0.00685768223573924,
0.06543640897755611,0.018671030800688673,
0.0654862842892768,-0.012195494775032241,
0.06553615960099751,0.004186467670263373,
0.06558603491271821,-0.0349298674332967,
0.0656359102244389,-0.011458598514606894,
0.0656857855361596,0.00457321933790572,
0.0657356608478803,0.018274870153466804,
0.06578553615960099,0.0007241159477284166,
0.0658354114713217,-0.01346979849643161,
0.0658852867830424,-0.01276975698547989,
0.06593516209476309,-0.021392722952605792,
0.06598503740648379,0.0194934251560518,
0.06603491271820448,-0.028996666471860083,
0.06608478802992519,-0.01449696660372509,
0.06613466334164589,-0.007922440527283756,
0.06618453865336658,0.00577894425811922,
0.06623441396508728,-0.005151200143883259,
0.06628428927680798,0.0011882766061845022,
0.06633416458852869,-0.019748299501748997,
0.06638403990024938,-0.01419390040863604,
0.06643391521197008,-0.00960163479354601,
0.06648379052369077,-0.021444065741872825,
0.06653366583541147,-0.015331473949160452,
0.06658354114713216,-0.029977703506346983,
0.06663341645885287,0.016660549593930908,
0.06668329177057357,0.0007384549357700512,
0.06673316708229426,0.002272563127555624,
0.06678304239401496,-0.015978182888301464,
0.06683291770573566,0.001967097060199643,
0.06688279301745637,-0.02740732982743284,
0.06693266832917706,-0.012778290309780784,
0.06698254364089776,-0.032377202923357704,
0.06703241895261845,-0.007071543589592213,
0.06708229426433915,-0.010151231511026253,
0.06713216957605984,0.00463791078499406,
0.06718204488778055,0.01214538005537429,
0.06723192019950125,-0.006131287472345307,
0.06728179551122195,-0.041565365152787685,
0.06733167082294264,0.010528583403790306,
0.06738154613466334,-0.03233015015668088,
0.06743142144638405,0.002940164727203036,
0.06748129675810474,-0.023954005639655895,
0.06753117206982544,-0.004349987960944848,
0.06758104738154613,-0.028103861482478773,
0.06763092269326683,-0.011213562787695837,
0.06768079800498752,0.00804434247261404,
0.06773067331670823,-0.007747978284192598,
0.06778054862842893,-0.04757267661705675,
0.06783042394014963,-0.01893571516428123,
0.06788029925187032,0.015294449491755678,
0.06793017456359102,-0.03181595797186728,
0.06798004987531173,-0.019397206727284417,
0.06802992518703242,-0.006644148964418774,
0.06807980049875312,0.0014761605846801019,
0.06812967581047381,0.010713363045830666,
0.06817955112219451,-0.008294638036371326,
0.0682294264339152,-0.04309298122945833,
0.06827930174563591,-0.01528114846518584,
0.06832917705735661,-0.014426402849484663,
0.0683790523690773,-0.0036548917022518144,
0.068428927680798,-0.012515203049982106,
0.0684788029925187,0.0028196004655637076,
0.06852867830423941,0.006998823145371787,
0.0685785536159601,-0.011076573510256236,
0.0686284289276808,0.00027376999450960844,
0.0686783042394015,0.0011560075908527406,
0.06872817955112219,0.004015251937790853,
0.0687780548628429,-0.020824130010167998,
0.0688279301745636,0.004943782338674856,
0.06887780548628429,-0.005914644110654491,
0.06892768079800499,0.0077896623004758345,
0.06897755610972568,-0.05380220406772428,
0.06902743142144638,-0.019744044726617484,
0.06907730673316709,-0.05607898702192729,
0.06912718204488778,-0.02111507098287059,
0.06917705735660848,-0.0011733379775117122,
0.06922693266832917,0.005092077382083572,
0.06927680798004987,-0.026571477857967794,
0.06932668329177058,-0.021635035171163025,
0.06937655860349128,-0.029104796267387854,
0.06942643391521197,-0.006793970819222353,
0.06947630922693267,-0.011474328019052824,
0.06952618453865336,-0.018923798833358915,
0.06957605985037406,0.00019798643234222348,
0.06962593516209477,0.02035169725009217,
0.06967581047381546,-0.009939312655222188,
0.06972568578553616,-0.01774222091828376,
0.06977556109725686,-0.011901616654293344,
0.06982543640897755,-0.001933805664509217,
0.06987531172069826,0.021365257476523253,
0.06992518703241896,-0.016029874861572403,
0.06997506234413965,-0.03238720491823821,
0.07002493765586035,-0.027745891243543503,
0.07007481296758104,-0.006826873734067705,
0.07012468827930174,-0.007555055638433131,
0.07017456359102245,-0.0037365298452130026,
0.07022443890274314,-0.01891329480206524,
0.07027431421446384,-0.012250879704797657,
0.07032418952618454,0.0034006236031581434,
0.07037406483790523,-0.025348654459223775,
0.07042394014962594,-0.009269217792037293,
0.07047381546134664,-0.007200853621133266,
0.07052369077306733,-0.009466768215424023,
0.07057356608478803,-0.022387386165226952,
0.07062344139650872,-0.0071199639281508955,
0.07067331670822943,-0.0161804888573607,
0.07072319201995013,-0.04200754918983268,
0.07077306733167082,0.00040429618208510064,
0.07082294264339152,-0.005195512791317752,
0.07087281795511222,-0.010043728788347587,
0.07092269326683291,-0.004214295176280023,
0.07097256857855362,-0.0107227965752631,
0.07102244389027432,-0.024538430754504015,
0.07107231920199501,-0.01269516906961908,
0.07112219451371571,0.004045117835054091,
0.0711720698254364,0.005339367616439243,
0.07122194513715711,-0.04126772815109213,
0.07127182044887781,-0.013240316623976643,
0.0713216957605985,-0.0026329959744928657,
0.0713715710723192,0.022755628772992885,
0.0714214463840399,-0.000654075208291029,
0.07147132169576059,0.0027249354432849707,
0.0715211970074813,0.0027023901059971753,
0.071571072319202,-0.009899796564326144,
0.0716209476309227,-0.016151026951568004,
0.07167082294264339,-0.001789780471954612,
0.07172069825436408,-0.010127076133693562,
0.0717705735660848,-0.016194231045753425,
0.07182044887780549,0.0285105648215756,
0.07187032418952619,-0.03065232781682438,
0.07192019950124688,-0.016965795082172493,
0.07197007481296758,-0.01683680730629092,
0.07201995012468827,0.014062761545272291,
0.07206982543640898,-0.016169628273767077,
0.07211970074812968,-0.01692529790433816,
0.07216957605985037,0.007827331693181415,
0.07221945137157107,-0.04086306008384018,
0.07226932668329177,-0.004399031095663755,
0.07231920199501247,-0.0015207755334031734,
0.07236907730673317,-0.005511991639032079,
0.07241895261845387,-0.014890576886430501,
0.07246882793017456,0.01290846751000968,
0.07251870324189526,-0.020449622859482278,
0.07256857855361595,0.008723436189956213,
0.07261845386533666,-0.002320133708449728,
0.07266832917705736,-0.008239233750611714,
0.07271820448877805,-0.0007462235847821002,
0.07276807980049875,-0.025674443054106415,
0.07281795511221945,0.023756383647766045,
0.07286783042394016,-0.013987692301174684,
0.07291770573566085,-0.000643169619027331,
0.07296758104738155,0.020058579173138136,
0.07301745635910224,0.017381062487522293,
0.07306733167082294,-0.018087338794088675,
0.07311720698254365,0.012688187649724784,
0.07316708229426434,-0.005991641314343547,
0.07321695760598504,-0.028965503681194313,
0.07326683291770573,-0.0005906737925763256,
0.07331670822942643,0.009098830684201243,
0.07336658354114713,-0.0034602154406032652,
0.07341645885286784,0.003612740856046766,
0.07346633416458853,-0.018916056824557232,
0.07351620947630923,-0.003289639711134043,
0.07356608478802992,0.0016902372224546207,
0.07361596009975062,-0.009365377883357905,
0.07366583541147133,0.005196493983176752,
0.07371571072319202,0.005932378111002979,
0.07376558603491272,-0.02369351524305637,
0.07381546134663342,-0.005017521932218183,
0.07386533665835411,0.03278031586587756,
0.0739152119700748,-0.021801804720027934,
0.07396508728179552,0.006587346935113736,
0.07401496259351621,0.015410469421516103,
0.07406483790523691,-0.011733683156129207,
0.0741147132169576,0.021020940768286932,
0.0741645885286783,0.032054430599532814,
0.07421446384039901,0.018727889224594035,
0.0742643391521197,0.005974979533215652,
0.0743142144638404,0.027523837021317974,
0.0743640897755611,0.00847868562368665,
0.07441396508728179,0.008513888169948197,
0.07446384039900249,0.02271550959306888,
0.0745137157107232,-0.0027392734029738916,
0.07456359102244389,-0.0005820627909807257,
0.07461346633416459,0.032291586916389496,
0.07466334164588528,0.01926142199456658,
0.07471321695760598,-0.0015985925745431607,
0.07476309226932669,-0.015058300182194579,
0.07481296758104738,0.0006559331355468871,
0.07486284289276808,-0.013230449195623257,
0.07491271820448878,0.030695240609422147,
0.07496259351620947,0.017123347393149038,
0.07501246882793017,0.020780185625971632,
0.07506234413965088,-0.007291998443062428,
0.07511221945137157,-0.010932185612899012,
0.07516209476309227,0.016527160777747872,
0.07521197007481296,-0.00969591146247712,
0.07526184538653366,0.026970749059492233,
0.07531172069825437,-0.0034979388641593334,
0.07536159600997507,-0.010829377464784178,
0.07541147132169576,-0.006434291566677559,
0.07546134663341646,0.006991604575489544,
0.07551122194513715,0.026692585822508566,
0.07556109725685786,0.022455142010562645,
0.07561097256857856,0.02288156531701746,
0.07566084788029925,0.005636071087772524,
0.07571072319201995,-0.007133658821599751,
0.07576059850374064,0.019408226756998128,
0.07581047381546134,0.016212272413290253,
0.07586034912718205,0.009598119993221505,
0.07591022443890275,0.015435984636662636,
0.07596009975062344,0.011434357858953836,
0.07600997506234414,-0.010219621173524821,
0.07605985037406483,0.025380826657771874,
0.07610972568578554,0.010288741512799744,
0.07615960099750624,-0.005424602243987876,
0.07620947630922693,0.004632867798180078,
0.07625935162094763,0.012668219557923917,
0.07630922693266833,0.0124403423084709,
0.07635910224438902,0.01485087616794985,
0.07640897755610973,0.018001036718031754,
0.07645885286783043,0.023507267888065196,
0.07650872817955112,0.014461899089477384,
0.07655860349127182,0.03156003396165576,
0.07660847880299251,0.01730022805088752,
0.07665835411471322,0.04310098170897014,
0.07670822942643392,0.009176594210172353,
0.07675810473815461,0.02730221627583227,
0.07680798004987531,0.030425599327162177,
0.076857855361596,0.024694904400126103,
0.0769077306733167,-0.0017456207017860943,
0.07695760598503741,-0.004320772504740701,
0.0770074812967581,0.027205663885495807,
0.0770573566084788,0.04775929587422274,
0.0771072319201995,0.007247176105972171,
0.0771571072319202,0.029828266091763707,
0.0772069825436409,-0.010894236285419679,
0.0772568578553616,0.043906226796542366,
0.0773067331670823,0.011543206860668813,
0.07735660847880299,0.04877652211820539,
0.07740648379052369,0.026559844799407376,
0.0774563591022444,-0.014724036222862731,
0.07750623441396509,0.03855230474762256,
0.07755610972568579,0.021516122853167147,
0.07760598503740648,0.03574103761967239,
0.07765586034912718,0.026194225035706578,
0.07770573566084787,0.008185157022336156,
0.07775561097256858,0.023184209949997606,
0.07780548628428928,0.014087398798407482,
0.07785536159600998,0.04168656488709357,
0.07790523690773067,0.02500619583656729,
0.07795511221945137,0.02319735881852945,
0.07800498753117208,0.0024217614049258894,
0.07805486284289277,0.018671735900771015,
0.07810473815461347,0.024237532289262627,
0.07815461346633416,0.012951336508201818,
0.07820448877805486,0.05584886227313042,
0.07825436408977555,0.028642601707581157,
0.07830423940149626,0.01932559310983542,
0.07835411471321696,0.012376116628112256,
0.07840399002493766,0.021573439369167086,
0.07845386533665835,0.025662948900305956,
0.07850374064837905,0.029408089605653748,
0.07855361596009976,0.04112046172393266,
0.07860349127182045,-0.00433032781102111,
0.07865336658354115,0.03991486280985589,
0.07870324189526184,0.006661998470533573,
0.07875311720698254,0.024055439460774767,
0.07880299251870324,0.04866521469186835,
0.07885286783042394,0.03707618212103897,
0.07890274314214464,0.03219385150120667,
0.07895261845386534,0.012534628297392365,
0.07900249376558603,0.010919935803386266,
0.07905236907730673,0.0013394331672404412,
0.07910224438902744,0.04418942466847027,
0.07915211970074813,0.012381289717870938,
0.07920199501246883,0.008297279626187804,
0.07925187032418952,0.034636763062014006,
0.07930174563591022,0.021712962046056956,
0.07935162094763092,0.005180969101672435,
0.07940149625935163,0.0235120110027215,
0.07945137157107232,0.01610014129381762,
0.07950124688279302,0.020052438697166042,
0.07955112219451371,0.046104020514468644,
0.07960099750623441,0.01796306147567186,
0.07965087281795512,0.02765229387271596,
0.07970074812967581,0.016346629090349736,
0.07975062344139651,0.023580221878706228,
0.0798004987531172,0.027153025103068214,
0.0798503740648379,0.029363993125614288,
0.07990024937655861,0.039822128394804646,
0.0799501246882793,0.011815679263915366,
0.08,0.02520880294714754,
0.0800498753117207,0.052420469381217895,
0.0800997506234414,0.013153665682059707,
0.08014962593516209,0.019935458985735125,
0.0801995012468828,0.02917494859963861,
0.0802493765586035,0.021212911308421796,
0.08029925187032419,0.02305520071365945,
0.08034912718204489,0.029441244835661566,
0.08039900249376558,0.018964961230055,
0.08044887780548629,0.021543584233333826,
0.08049875311720699,0.051599801230091016,
0.08054862842892768,0.002662493104936641,
0.08059850374064838,0.026484517294218614,
0.08064837905236907,0.03610091933434152,
0.08069825436408977,0.016558691831378487,
0.08074812967581048,-0.0007694237002312809,
0.08079800498753117,0.03686276387752159,
0.08084788029925187,0.0076298623241217375,
0.08089775561097257,0.021939210621094187,
0.08094763092269326,-0.004276313902527019,
0.08099750623441397,0.03294593777403718,
0.08104738154613467,0.022335644325156997,
0.08109725685785536,0.01563662737750614,
0.08114713216957606,0.023218189132233932,
0.08119700748129675,0.00420335861009704,
0.08124688279301745,0.035155813120049256,
0.08129675810473816,0.027303130024288455,
0.08134663341645886,0.030314672535346355,
0.08139650872817955,0.005359530745676227,
0.08144638403990025,0.022925269772427353,
0.08149625935162094,-0.007273183843966,
0.08154613466334165,0.016259612972129547,
0.08159600997506235,0.04527882480571589,
0.08164588528678304,0.032606609154661646,
0.08169576059850374,0.018776952806763215,
0.08174563591022443,-0.013134657983225453,
0.08179551122194513,0.014935207594727419,
0.08184538653366584,0.020973967465962015,
0.08189526184538654,0.03079172661619533,
0.08194513715710723,-0.028524666162761433,
0.08199501246882793,0.025681064399752367,
0.08204488778054862,0.003409502714740543,
0.08209476309226933,0.01617994835975863,
0.08214463840399003,0.022809191281406682,
0.08219451371571072,0.02709624137284749,
0.08224438902743142,0.034393591059450966,
0.08229426433915212,0.011698730943341302,
0.08234413965087282,0.012917010868561948,
0.08239401496259352,0.02132511324058822,
0.08244389027431422,0.01017176292897123,
0.08249376558603491,0.015164937751013815,
0.08254364089775561,0.03626018624712374,
0.0825935162094763,0.02638310757752302,
0.08264339152119701,0.03360268404936728,
0.08269326683291771,0.018241459423135525,
0.0827431421446384,0.014023976675624918,
0.0827930174563591,0.04367339007687741,
0.0828428927680798,-0.0033446821449594384,
0.0828927680798005,0.027818483575997602,
0.0829426433915212,0.0207514252565038,
0.0829925187032419,0.025871661571319902,
0.08304239401496259,0.03484970683663237,
0.08309226932668329,-0.012471833945037784,
0.08314214463840398,-0.0017491580327220254,
0.0831920199501247,0.025684848443022937,
0.08324189526184539,0.010544860199512028,
0.08329177057356608,0.007108957390407418,
0.08334164588528678,0.0016744076191085536,
0.08339152119700748,0.04959191993163244,
0.08344139650872819,0.03959313604888316,
0.08349127182044888,0.030428871600114267,
0.08354114713216958,0.01632335086978723,
0.08359102244389027,0.027454381038092574,
0.08364089775561097,0.009973535074804838,
0.08369077306733166,0.006820148349881609,
0.08374064837905237,0.00998832120355795,
0.08379052369077307,0.023846131797876983,
0.08384039900249377,0.018039366733661355,
0.08389027431421446,0.035588343694781005,
0.08394014962593516,0.02628422586569614,
0.08399002493765587,0.03673214914825002,
0.08403990024937656,-0.0034019302637771816,
0.08408977556109726,-0.0005213895934137024,
0.08413965087281795,-0.0167545305486808,
0.08418952618453865,0.015552412226308765,
0.08423940149625936,0.03161911414217063,
0.08428927680798005,0.012367427941753342,
0.08433915211970075,0.009007930762853928,
0.08438902743142145,0.005683589998542943,
0.08443890274314214,0.0026287469027910727,
0.08448877805486284,0.008599003224573708,
0.08453865336658355,0.026864241098423787,
0.08458852867830424,0.011814373537684351,
0.08463840399002494,0.006773762449414356,
0.08468827930174563,0.02271640150807896,
0.08473815461346633,0.013969179535108732,
0.08478802992518704,0.008764771490556291,
0.08483790523690773,0.014228003380442507,
0.08488778054862843,-0.0049115647386080725,
0.08493765586034913,0.004163340131076305,
0.08498753117206982,-0.0012433526184948644,
0.08503740648379052,-0.01052373467274522,
0.08508728179551123,0.007798284923284667,
0.08513715710723192,0.025038978293342073,
0.08518703241895262,0.0012799161914009342,
0.08523690773067331,0.002685248324978442,
0.08528678304239401,-0.033945797050278115,
0.08533665835411472,0.038801445753977454,
0.08538653366583542,0.005725776587465095,
0.08543640897755611,-0.013870573835584089,
0.0854862842892768,-0.012167716276661092,
0.0855361596009975,-0.014239773083787896,
0.0855860349127182,-0.03904024976862906,
0.08563591022443891,-0.023315396477331097,
0.0856857855361596,0.03325855642926328,
0.0857356608478803,-0.0037817700328288293,
0.085785536159601,0.009962538648455255,
0.08583541147132169,0.019590271437470386,
0.0858852867830424,-0.003135557398311613,
0.0859351620947631,-0.011958634210927903,
0.08598503740648379,0.01653536057041083,
0.08603491271820449,-0.01185081789278987,
0.08608478802992518,0.008606449562616521,
0.08613466334164588,-0.010080972095702306,
0.08618453865336659,-0.01794705885452159,
0.08623441396508728,-0.009052772672006694,
0.08628428927680798,-0.016125245004262313,
0.08633416458852868,-0.02528593388194641,
0.08638403990024937,0.01200952023616505,
0.08643391521197008,0.015464928452128438,
0.08648379052369078,-0.01464948064921237,
0.08653366583541147,-0.020294899943178367,
0.08658354114713217,-0.0037032403302495287,
0.08663341645885286,0.016468322552452855,
0.08668329177057357,-0.004251251813363881,
0.08673316708229427,0.01102546630296725,
0.08678304239401496,-0.010752215338839896,
0.08683291770573566,-0.0030495266559363472,
0.08688279301745636,-0.004343256719378264,
0.08693266832917705,-0.0076161736651600585,
0.08698254364089776,0.02387502625236532,
0.08703241895261846,-0.002437001250861294,
0.08708229426433915,-0.010566174383296533,
0.08713216957605985,-0.0049753663616458905,
0.08718204488778054,-0.03172030753382886,
0.08723192019950125,-0.010717142369015362,
0.08728179551122195,0.02209781214847783,
0.08733167082294264,-0.00337720356344952,
0.08738154613466334,-0.02352826830358188,
0.08743142144638404,-0.026267542233317558,
0.08748129675810473,0.0009822325927765687,
0.08753117206982544,-0.023451977030136864,
0.08758104738154614,-0.014509913704551972,
0.08763092269326683,-0.00795666228277657,
0.08768079800498753,0.010075204034041628,
0.08773067331670822,-0.02047264373462948,
0.08778054862842893,0.0012300613152921702,
0.08783042394014963,-0.006273097232188099,
0.08788029925187033,-0.02293112000509987,
0.08793017456359102,-0.0059025320673059024,
0.08798004987531172,-0.050040042350732505,
0.08802992518703241,-0.024928594940015123,
0.08807980049875312,-0.042526829008721616,
0.08812967581047382,0.0027487632929931623,
0.08817955112219451,-0.005390117523098724,
0.08822942643391521,0.011588704791481592,
0.0882793017456359,-0.014640278231158498,
0.08832917705735661,0.01648982430709225,
0.08837905236907731,-0.03104066442500749,
0.088428927680798,-0.03122675436180152,
0.0884788029925187,0.018148488722559152,
0.0885286783042394,0.006408266251674861,
0.0885785536159601,-0.018667069042846117,
0.0886284289276808,-0.04072429741558589,
0.0886783042394015,-0.02114222001562,
0.0887281795511222,-0.009756287278045641,
0.08877805486284289,-0.02117860734029114,
0.08882793017456359,-0.026039097491494405,
0.0888778054862843,-0.0024077117602525865,
0.08892768079800499,-0.019686989095879927,
0.08897755610972569,-0.024880818957104263,
0.08902743142144638,-0.01724623190759048,
0.08907730673316708,-0.027293932490248557,
0.08912718204488779,-0.013212351169702858,
0.08917705735660848,-0.020181799785643793,
0.08922693266832918,0.0037918686470415665,
0.08927680798004987,-0.018191022979529334,
0.08932668329177057,0.02423835277557264,
0.08937655860349127,-0.018611589641519058,
0.08942643391521198,0.0062431355434913495,
0.08947630922693267,-0.024876317338631257,
0.08952618453865337,-0.02283743393618242,
0.08957605985037406,0.017911068232362916,
0.08962593516209476,0.006722974525022522,
0.08967581047381547,-0.022641954185893782,
0.08972568578553616,0.01794690271872056,
0.08977556109725686,0.012369039814304754,
0.08982543640897755,-0.007664913257064181,
0.08987531172069825,-0.02056741419595482,
0.08992518703241895,-0.021294720427737383,
0.08997506234413966,-0.01962454251400548,
0.09002493765586035,-0.03578441935549556,
0.09007481296758105,-0.02326550334057224,
0.09012468827930174,-0.01949591333286186,
0.09017456359102244,-0.05176843977535811,
0.09022443890274315,-0.009161377789858873,
0.09027431421446384,-0.017813574856462164,
0.09032418952618454,-0.014834226134724134,
0.09037406483790524,0.001231569821790176,
0.09042394014962593,-0.0046552791183862635,
0.09047381546134663,-0.002617041110199149,
0.09052369077306734,-0.019220091163183354,
0.09057356608478803,-0.018553576252787484,
0.09062344139650873,-0.014584412827597284,
0.09067331670822942,-0.04472784979449493,
0.09072319201995012,-0.028583532619019057,
0.09077306733167083,-0.014763280424278059,
0.09082294264339152,-0.016324774597007485,
0.09087281795511222,0.004660946008648708,
0.09092269326683292,0.0014922088929892243,
0.09097256857855361,-0.006167182502446343,
0.09102244389027432,-0.0262217877919891,
0.09107231920199502,-0.024263949513184106,
0.09112219451371571,-0.01664891781425722,
0.09117206982543641,-0.016919349391839776,
0.0912219451371571,-0.004117964781630934,
0.0912718204488778,-0.01927824878633528,
0.09132169576059851,-0.01844760042668788,
0.0913715710723192,-0.01787766764796979,
0.0914214463840399,-0.019328591291350148,
0.0914713216957606,-0.026150360100389507,
0.09152119700748129,-0.004425659855178391,
0.091571072319202,-0.0070780684136852725,
0.0916209476309227,-0.012703424147188568,
0.09167082294264339,0.008839092052378213,
0.09172069825436409,-0.008822078229129431,
0.09177057356608478,-0.011924966443836022,
0.09182044887780548,0.01105108335288698,
0.09187032418952619,-0.044516969605987174,
0.09192019950124689,-0.002568573850419824,
0.09197007481296758,-0.004669226140013046,
0.09201995012468828,-0.014306218159842034,
0.09206982543640897,-0.015598926529746347,
0.09211970074812968,-0.021698123465471893,
0.09216957605985038,-0.003330689441883756,
0.09221945137157107,-0.008006496143538044,
0.09226932668329177,-0.023743617963601228,
0.09231920199501246,0.017786274333467078,
0.09236907730673316,-0.005864534621823663,
0.09241895261845387,0.006033751889234161,
0.09246882793017457,-0.014610166833226988,
0.09251870324189526,-0.031209666696671527,
0.09256857855361596,-0.014801350478621078,
0.09261845386533665,-0.013080074708854167,
0.09266832917705736,-0.010011611566803323,
0.09271820448877806,0.015906203364658117,
0.09276807980049875,0.0314295965287424,
0.09281795511221945,0.0014681952035429909,
0.09286783042394015,0.008128516909287902,
0.09291770573566084,0.011794353598090859,
0.09296758104738155,0.01897039570734068,
0.09301745635910225,-0.006041491740911363,
0.09306733167082294,0.015035720520409492,
0.09311720698254364,0.007986359227106872,
0.09316708229426433,-0.009256636827292337,
0.09321695760598504,0.021911947370876837,
0.09326683291770574,-0.026757804271639336,
0.09331670822942643,0.014396793070360174,
0.09336658354114713,-0.0026507318752038477,
0.09341645885286783,0.033767291970856525,
0.09346633416458854,0.026044505471087925,
0.09351620947630923,-0.011113607377034682,
0.09356608478802993,0.026961525171017006,
0.09361596009975062,0.011302595266134943,
0.09366583541147132,-0.005461788271999911,
0.09371571072319201,0.0024084659827670754,
0.09376558603491272,0.009352185639424623,
0.09381546134663342,-0.0024851987831815644,
0.09386533665835411,0.017172794217383998,
0.09391521197007481,0.009745855523876823,
0.0939650872817955,0.009253496350890216,
0.09401496259351622,0.01574557477932967,
0.09406483790523691,0.027722539458606053,
0.09411471321695761,0.001677842634395293,
0.0941645885286783,0.021913095988048102,
0.094214463840399,0.016860622938329854,
0.0942643391521197,0.00044718220353981604,
0.0943142144638404,0.003640904214912721,
0.0943640897755611,-0.005816809613803096,
0.0944139650872818,0.020738475298428767,
0.09446384039900249,-0.01240404895560224,
0.09451371571072319,0.040385425661575665,
0.0945635910224439,0.003998536987149017,
0.09461346633416459,0.025673035758462415,
0.09466334164588529,-0.03154431423626558,
0.09471321695760598,-0.009639300646421187,
0.09476309226932668,-0.004767871852390361,
0.09481296758104737,0.007376466721942339,
0.09486284289276808,-0.0019458420905421707,
0.09491271820448878,0.005975065181208389,
0.09496259351620948,0.023079468563969134,
0.09501246882793017,-0.004573774639635202,
0.09506234413965087,-0.011090336476819389,
0.09511221945137158,0.004550123141278169,
0.09516209476309227,0.01107849764718255,
0.09521197007481297,0.006802671536655289,
0.09526184538653366,-0.016885618773274116,
0.09531172069825436,0.016571704520211873,
0.09536159600997507,0.018413600814938553,
0.09541147132169576,-0.005136817858394382,
0.09546134663341646,0.03830190195224043,
0.09551122194513716,0.01048180714295772,
0.09556109725685785,-0.004014822548355359,
0.09561097256857855,0.010654917886456458,
0.09566084788029926,0.022080287861703945,
0.09571072319201995,0.022163556098133884,
0.09576059850374065,0.04667022279392319,
0.09581047381546134,0.012738631052108493,
0.09586034912718204,0.010947141125260379,
0.09591022443890275,0.03774226778780287,
0.09596009975062345,0.004210261559141934,
0.09600997506234414,0.029922877657400537,
0.09605985037406484,0.035759996742696976,
0.09610972568578553,0.010098480621409278,
0.09615960099750623,0.024673061797853463,
0.09620947630922694,-0.009545562055328277,
0.09625935162094763,-0.013431016487734052,
0.09630922693266833,0.013944907413067378,
0.09635910224438902,0.012684532804658588,
0.09640897755610972,0.017576361159181476,
0.09645885286783043,-0.01674994084386533,
0.09650872817955113,0.039019842849352934,
0.09655860349127182,0.02250478857515847,
0.09660847880299252,0.02655517414265714,
0.09665835411471321,0.0460984984315906,
0.09670822942643391,0.03208052714134613,
0.09675810473815462,0.048519937678464506,
0.09680798004987531,0.018445503215684472,
0.09685785536159601,0.027365615894293076,
0.0969077306733167,0.039812095360985025,
0.0969576059850374,0.02285364111352258,
0.09700748129675811,0.06361546493942974,
0.0970573566084788,0.03983901976700309,
0.0971072319201995,0.027497080765551567,
0.0971571072319202,0.05102856146776407,
0.0972069825436409,0.02622969111287581,
0.09725685785536159,0.021113789406149126,
0.0973067331670823,0.025331494550747208,
0.097356608478803,0.009794919439448088,
0.09740648379052369,0.019687734291446553,
0.09745635910224439,0.0483454427172641,
0.09750623441396508,0.018385252066297174,
0.09755610972568579,0.03577242142794048,
0.09760598503740649,0.010183182805863063,
0.09765586034912718,0.03417062373661803,
0.09770573566084788,0.0306337640289413,
0.09775561097256857,0.0153560911015931,
0.09780548628428928,0.010751385612522528,
0.09785536159600998,0.02336396066815711,
0.09790523690773068,0.004407659283823667,
0.09795511221945137,0.006692344570177703,
0.09800498753117207,0.026489643112978946,
0.09805486284289276,0.015560291244757518,
0.09810473815461347,0.035873764090838686,
0.09815461346633417,0.022681922276298266,
0.09820448877805486,0.025058951658689536,
0.09825436408977556,0.040773495186938145,
0.09830423940149625,0.012041155354035764,
0.09835411471321696,0.04581505152525797,
0.09840399002493766,0.010404795815108291,
0.09845386533665836,0.05108920809213061,
0.09850374064837905,0.03578739087212017,
0.09855361596009975,0.022859138540205888,
0.09860349127182044,0.03167380959902626,
0.09865336658354115,0.01963426235802261,
0.09870324189526185,0.06206928546257802,
0.09875311720698254,0.014768184171213755,
0.09880299251870324,-0.008539242921073293,
0.09885286783042393,0.01913795997146906,
0.09890274314214464,0.00032760319201090293,
0.09895261845386534,0.009421878852329486,
0.09900249376558604,0.014365745596802962,
0.09905236907730673,-0.011712461558110742,
0.09910224438902743,0.022794119834118172,
0.09915211970074812,0.030713622666231677,
0.09920199501246883,0.03583127208338426,
0.09925187032418953,0.03549124908334152,
0.09930174563591022,0.019742512200568493,
0.09935162094763092,0.0165946963148152,
0.09940149625935162,0.004006688055799578,
0.09945137157107233,0.023553598964735183,
0.09950124688279302,0.02447933670723996,
0.09955112219451372,0.021477890794551483,
0.09960099750623441,0.011395301896876878,
0.09965087281795511,0.03837765211160877,
0.0997007481296758,0.034819422642091466,
0.09975062344139651,-0.004806200671916845,
0.09980049875311721,0.042980846000887224,
0.0998503740648379,0.03319504558409288,
0.0999002493765586,0.021722258795419218,
0.0999501246882793,0.007448120573063766,
0.1,0.0018181515493310603,
0.1000498753117207,0.0014774390246645348,
0.1000997506234414,0.05408558617244778,
0.10014962593516209,0.009722057055186872,
0.10019950124688279,0.03328496545221492,
0.1002493765586035,0.02932740256918063,
0.1002992518703242,0.041366260273109814,
0.10034912718204489,0.020372249041276106,
0.10039900249376559,0.04736100957887171,
0.10044887780548628,0.0533750999745264,
0.10049875311720698,0.044086093245403135,
0.10054862842892769,0.043563073493550486,
0.10059850374064838,0.004109539509235861,
0.10064837905236908,0.018738177406429204,
0.10069825436408977,0.022445807810547835,
0.10074812967581047,0.030006341395039906,
0.10079800498753118,0.025677485029859476,
0.10084788029925187,0.030627063676722167,
0.10089775561097257,0.04776281404894893,
0.10094763092269327,0.013604695380145864,
0.10099750623441396,0.05030915824085888,
0.10104738154613466,0.020878104325328606,
0.10109725685785537,0.020000053453128427,
0.10114713216957606,0.039776177393252836,
0.10119700748129676,-0.00829943616040488,
0.10124688279301745,0.017594782547631915,
0.10129675810473815,0.040239171413180494,
0.10134663341645886,0.02929362850994375,
0.10139650872817955,0.027782269351598266,
0.10144638403990025,-0.006651504134898064,
0.10149625935162095,0.002802217834918134,
0.10154613466334164,0.023021295508969343,
0.10159600997506234,0.020684968829369273,
0.10164588528678305,0.043043431349939744,
0.10169576059850374,0.028678149540436158,
0.10174563591022444,0.0129963751148628,
0.10179551122194513,0.034042032775863866,
0.10184538653366583,0.010274820034522434,
0.10189526184538654,0.03703998873570995,
0.10194513715710724,0.004213629338818102,
0.10199501246882793,0.029372160955890604,
0.10204488778054863,0.031789878041092165,
0.10209476309226932,-0.0015359979899789294,
0.10214463840399003,0.034825332323761296,
0.10219451371571073,0.022747531914601448,
0.10224438902743142,0.00500337372023146,
0.10229426433915212,0.016445305652455076,
0.10234413965087281,0.022810643499341483,
0.10239401496259351,0.005754206106544778,
0.10244389027431422,0.03179256175661298,
0.10249376558603492,0.01575572806667243,
0.10254364089775561,0.030793249315264445,
0.10259351620947631,0.02522947269997239,
0.102643391521197,0.025309832894986284,
0.10269326683291771,0.016157381370017487,
0.10274314214463841,0.017837017406796767,
0.1027930174563591,0.03103017538052836,
0.1028428927680798,0.060413758820714605,
0.1028927680798005,0.025457114856387564,
0.10294264339152119,0.034778408645447983,
0.1029925187032419,-0.006941430774241669,
0.1030423940149626,0.04496614576369467,
0.10309226932668329,0.04791265071925892,
0.10314214463840399,0.014640805120515304,
0.10319201995012468,-0.006325447183537579,
0.10324189526184539,0.03328420510361587,
0.10329177057356609,-0.0018050946263359034,
0.10334164588528678,0.0146859156436894,
0.10339152119700748,-0.008401776889383445,
0.10344139650872818,-0.00409416453799216,
0.10349127182044887,-0.005247420189850263,
0.10354114713216958,0.03397983406690898,
0.10359102244389028,0.026298215457484495,
0.10364089775561097,0.010231705672612744,
0.10369077306733167,-0.007198044461171119,
0.10374064837905236,0.00791330465412317,
0.10379052369077307,0.021246337170328332,
0.10384039900249377,0.0015883343485828955,
0.10389027431421446,-0.024142762017660496,
0.10394014962593516,0.002417250710385564,
0.10399002493765586,0.027977860759486696,
0.10403990024937655,-0.0031494700751594357,
0.10408977556109726,0.008203334067909435,
0.10413965087281796,0.02752781130546747,
0.10418952618453865,0.011332411273825971,
0.10423940149625935,0.008413595383095046,
0.10428927680798004,-0.016275203020515834,
0.10433915211970075,0.02275640789231493,
0.10438902743142145,0.012650281579947312,
0.10443890274314215,0.0296445920820286,
0.10448877805486284,0.005537421208467532,
0.10453865336658354,0.011700209442178738,
0.10458852867830425,0.007497608782104135,
0.10463840399002494,0.021688935995127005,
0.10468827930174564,0.0058075326536372925,
0.10473815461346633,-0.004794917025634574,
0.10478802992518703,0.0009383130790830176,
0.10483790523690772,-0.0070796873319549725,
0.10488778054862843,0.004756201358026611,
0.10493765586034913,0.007485917179547155,
0.10498753117206983,0.01644907413432616,
0.10503740648379052,0.03549572865815684,
0.10508728179551122,0.028458059977715642,
0.10513715710723193,0.01874809169055837,
0.10518703241895262,-0.0029698328841011607,
0.10523690773067332,0.007860812514058627,
0.10528678304239401,0.012529299481706186,
0.10533665835411471,-0.01703453308205005,
0.1053865336658354,-0.011391241508543737,
0.10543640897755611,-0.0014308546419679732,
0.10548628428927681,0.02457257563395295,
0.1055361596009975,-0.0015023937563596371,
0.1055860349127182,0.002010571951665096,
0.1056359102244389,0.01484849109481909,
0.10568578553615961,-0.021633255989467432,
0.1057356608478803,-0.020196100391970152,
0.105785536159601,-0.005554688893698929,
0.1058354114713217,-0.013219764251075307,
0.10588528678304239,-0.011978863716743829,
0.10593516209476309,-0.025945609369038437,
0.1059850374064838,-0.002591860869157179,
0.10603491271820449,-0.006986496862478403,
0.10608478802992519,-0.023650215006547744,
0.10613466334164588,0.0023153520510079033,
0.10618453865336658,-0.019118583114634054,
0.10623441396508729,-0.007625434976426323,
0.10628428927680798,-0.022178288907258713,
0.10633416458852868,0.020470417584024632,
0.10638403990024937,0.013552875323693026,
0.10643391521197007,0.0067726187309606715,
0.10648379052369077,-0.008867041671145565,
0.10653366583541148,0.004343012207743423,
0.10658354114713217,-0.013587935435593904,
0.10663341645885287,-0.0345195719591669,
0.10668329177057356,-0.019092036053229833,
0.10673316708229426,-0.007656976539961622,
0.10678304239401497,-0.019326708835533495,
0.10683291770573566,-0.004972690194207933,
0.10688279301745636,-0.0019369262183920833,
0.10693266832917706,0.008641828243881357,
0.10698254364089775,-0.01521868201054441,
0.10703241895261846,-0.008666611709572655,
0.10708229426433916,-0.007077254823480321,
0.10713216957605985,-0.009993575522373621,
0.10718204488778055,-0.004490037942065862,
0.10723192019950124,0.003513898678190356,
0.10728179551122194,0.0011609154911479177,
0.10733167082294265,0.008950931413880758,
0.10738154613466334,-0.026451150499987634,
0.10743142144638404,-0.01638737156659694,
0.10748129675810474,-0.03225124731863463,
0.10753117206982543,-0.007978485341545709,
0.10758104738154614,-0.0071686384685438215,
0.10763092269326684,-0.011748502979693237,
0.10768079800498753,-0.018994202554317823,
0.10773067331670823,-0.015469262207723801,
0.10778054862842892,-0.01695226470398183,
0.10783042394014962,-0.023596252037009956,
0.10788029925187033,-0.020164371459450648,
0.10793017456359102,-0.03202936287480215,
0.10798004987531172,-0.016841600763023726,
0.10802992518703242,-0.018632913532840023,
0.10807980049875311,-0.006387450607528843,
0.10812967581047382,-0.054767654298327466,
0.10817955112219452,-0.009089453808523279,
0.10822942643391521,-0.0004175037807408518,
0.10827930174563591,0.003980003464882002,
0.1083291770573566,-0.0202876476303335,
0.1083790523690773,-0.005214250797326772,
0.10842892768079801,0.008856245492307775,
0.1084788029925187,0.010678255283508319,
0.1085286783042394,-0.0068316284650858945,
0.1085785536159601,-0.005977314681898749,
0.10862842892768079,-0.013159125072696289,
0.1086783042394015,0.005065308588989001,
0.1087281795511222,-0.0017573559977015606,
0.1087780548628429,-0.013052512211180456,
0.10882793017456359,-0.010354340766745365,
0.10887780548628428,-0.02470678062921051,
0.108927680798005,0.009567699963503533,
0.10897755610972569,-0.013472350363414211,
0.10902743142144639,-0.023070786032247208,
0.10907730673316708,-0.00398710671952715,
0.10912718204488778,-0.006746473530361313,
0.10917705735660847,-0.004700385223680048,
0.10922693266832918,-0.04550991616991357,
0.10927680798004988,-0.02152186627582403,
0.10932668329177057,-0.020000022781803878,
0.10937655860349127,0.007466942045979625,
0.10942643391521197,0.00903367697726605,
0.10947630922693267,-0.027849008645460596,
0.10952618453865337,-0.004329228673410704,
0.10957605985037407,-0.04615838179978783,
0.10962593516209476,0.019791662194847875,
0.10967581047381546,-0.026591057680889103,
0.10972568578553615,-0.0002523755058499947,
0.10977556109725686,-0.009595048216938752,
0.10982543640897756,-0.0026382707991338405,
0.10987531172069825,-0.03364051358780949,
0.10992518703241895,-0.014131138398029257,
0.10997506234413965,-0.004087271465895372,
0.11002493765586036,-0.005840631405378147,
0.11007481296758105,-0.024952872049712596,
0.11012468827930175,-0.0015542165622879963,
0.11017456359102244,-0.020235865959916166,
0.11022443890274314,-0.026507688718138227,
0.11027431421446383,-0.05052143508362503,
0.11032418952618454,0.0007559802481323704,
0.11037406483790524,-0.005205572498965047,
0.11042394014962593,0.012472898824692932,
0.11047381546134663,0.011972641449379345,
0.11052369077306733,-0.003869114372536831,
0.11057356608478804,0.010370858959900333,
0.11062344139650873,-0.006462227279618604,
0.11067331670822943,-0.03087657131686094,
0.11072319201995012,-0.029069158561443407,
0.11077306733167082,0.01588354535918677,
0.11082294264339151,-0.01370183536170909,
0.11087281795511222,-0.0023165937318766726,
0.11092269326683292,-0.022547061427940964,
0.11097256857855362,-0.020980671347850366,
0.11102244389027431,-0.027420949338149682,
0.111072319201995,-0.017511206307280126,
0.11112219451371572,-0.019872468144801696,
0.11117206982543641,0.005517652323144256,
0.11122194513715711,0.023673977158044604,
0.1112718204488778,-0.030535164345858137,
0.1113216957605985,0.005328360598779926,
0.11137157107231921,-0.036735293667700814,
0.1114214463840399,-0.015477971438849922,
0.1114713216957606,0.0029731805126681395,
0.1115211970074813,0.0030590318067444406,
0.11157107231920199,-0.013365452875302887,
0.11162094763092269,0.015752455723962343,
0.1116708229426434,0.018983772150410867,
0.11172069825436409,-0.0017112627354587372,
0.11177057356608479,0.0009310354802120994,
0.11182044887780548,-0.008003976140886328,
0.11187032418952618,-0.049287205398784464,
0.11192019950124689,-0.019492367472816095,
0.11197007481296758,0.013039453491635095,
0.11201995012468828,-0.016137085405494925,
0.11206982543640898,-0.0033920496054575693,
0.11211970074812967,-0.007088159996568956,
0.11216957605985037,0.00040336340762322804,
0.11221945137157108,-0.01958274732436968,
0.11226932668329177,-0.002790154850340373,
0.11231920199501247,-0.030896730352831418,
0.11236907730673316,0.0010951332373052708,
0.11241895261845386,0.005311297597216496,
0.11246882793017457,-0.004919578181858108,
0.11251870324189527,0.021456051180207297,
0.11256857855361596,0.017776264592666277,
0.11261845386533666,0.016598586606383046,
0.11266832917705735,0.0042193793261230085,
0.11271820448877805,-0.005232554035387442,
0.11276807980049876,-0.014450327175288661,
0.11281795511221945,-0.0018921941974741861,
0.11286783042394015,-0.012953052193768867,
0.11291770573566084,0.03023600749153569,
0.11296758104738154,0.004937759674187081,
0.11301745635910225,-0.006278765587739644,
0.11306733167082295,0.00611357326000226,
0.11311720698254364,0.0018211719175036923,
0.11316708229426434,0.02686539419187032,
0.11321695760598503,-0.0001485590772257522,
0.11326683291770574,0.01858799707740229,
0.11331670822942644,-0.0027303162224083678,
0.11336658354114713,-0.015729705719077388,
0.11341645885286783,-0.005624951578807,
0.11346633416458853,0.038506606693934,
0.11351620947630922,-0.009293416917926726,
0.11356608478802993,0.007328958253371674,
0.11361596009975063,-0.009754921067045126,
0.11366583541147132,0.0030189049742824527,
0.11371571072319202,0.0018417041167168558,
0.11376558603491271,0.014784383489197448,
0.11381546134663342,-0.0019548950139302284,
0.11386533665835412,0.021143894556389944,
0.11391521197007481,-0.00866839439764121,
0.11396508728179551,0.015448979589469636,
0.1140149625935162,-0.0007214528348857838,
0.1140648379052369,0.026461385258814016,
0.11411471321695761,0.005985003683004638,
0.1141645885286783,0.004412157371359518,
0.114214463840399,0.014667556218537341,
0.1142643391521197,-0.018349475913452453,
0.1143142144638404,0.01933020664174477,
0.1143640897755611,-0.0020245872294070762,
0.1144139650872818,0.01995139763487904,
0.1144638403990025,0.0031592237417827664,
0.11451371571072319,-0.011908790266218432,
0.11456359102244389,-0.018562196405040393,
0.11461346633416458,-0.007644884913329113,
0.11466334164588529,-0.02774062267860274,
0.11471321695760599,0.011873868596732885,
0.11476309226932668,0.026012069728960786,
0.11481296758104738,0.013809051037033806,
0.11486284289276807,0.01164332013425645,
0.11491271820448878,0.011217599622987365,
0.11496259351620948,0.009650296251754082,
0.11501246882793018,0.01531225021225623,
0.11506234413965087,0.008558540067910618,
0.11511221945137157,-0.002351601133580218,
0.11516209476309226,0.01481579017663158,
0.11521197007481297,0.003328282301319546,
0.11526184538653367,0.0073054285507111036,
0.11531172069825436,0.027761594516932483,
0.11536159600997506,0.007914958929933814,
0.11541147132169575,0.020472157910618363,
0.11546134663341646,0.01429304064262569,
0.11551122194513716,0.0035299376731272626,
0.11556109725685786,-0.0029796710838325448,
0.11561097256857855,0.005879355607095691,
0.11566084788029925,0.01095037933180951,
0.11571072319201996,0.013984398722102331,
0.11576059850374065,0.008296764272866594,
0.11581047381546135,0.01030112050757932,
0.11586034912718204,0.025176526598562392,
0.11591022443890274,-0.010974671719859733,
0.11596009975062344,0.05592564728227604,
0.11600997506234415,0.022181426899074142,
0.11605985037406484,0.007864277696755607,
0.11610972568578554,-0.005329162054799424,
0.11615960099750623,0.012158078456629057,
0.11620947630922693,0.013649777387108705,
0.11625935162094764,0.020789996522610824,
0.11630922693266833,0.045019568372601404,
0.11635910224438903,0.006016640379457983,
0.11640897755610972,0.021387571053916865,
0.11645885286783042,0.021262702920333113,
0.11650872817955112,0.02461246227067079,
0.11655860349127183,-0.009350084576730092,
0.11660847880299252,0.022175770949665163,
0.11665835411471322,0.03329273057178358,
0.11670822942643391,0.048832605630421286,
0.11675810473815461,0.03342322832610327,
0.11680798004987532,0.02352978259337803,
0.11685785536159601,0.016786599240675805,
0.11690773067331671,-0.0019638027810007334,
0.1169576059850374,0.033358854165253256,
0.1170074812967581,0.03098835284902085,
0.1170573566084788,0.017828536800765314,
0.1171072319201995,0.03663235687278606,
0.1171571072319202,0.024479678670877535,
0.1172069825436409,0.019131614792483414,
0.1172568578553616,0.0512459347323009,
0.11730673316708229,0.00825440993600585,
0.117356608478803,0.0328450994273563,
0.1174064837905237,0.02152663532222731,
0.11745635910224439,0.03291965025129501,
0.11750623441396509,0.017923969785695187,
0.11755610972568578,0.025647063925767905,
0.11760598503740648,0.05035329106223094,
0.11765586034912719,0.03039565132489746,
0.11770573566084788,0.010631686244127157,
0.11775561097256858,0.02281336470776475,
0.11780548628428927,0.03350887196787846,
0.11785536159600997,0.015940424803751265,
0.11790523690773068,0.036068981050699125,
0.11795511221945137,0.033795695140899897,
0.11800498753117207,0.020088445490522296,
0.11805486284289277,0.05139139163890833,
0.11810473815461346,0.03960710021532607,
0.11815461346633417,0.05146592162381661,
0.11820448877805487,0.021121091252030225,
0.11825436408977556,0.03939083031783419,
0.11830423940149626,0.019356652385597924,
0.11835411471321695,0.051721438598205646,
0.11840399002493765,0.045484785882574985,
0.11845386533665836,0.037707153409258266,
0.11850374064837906,0.05322942781189762,
0.11855361596009975,0.011444798663446179,
0.11860349127182045,0.024883132799249794,
0.11865336658354114,0.00539222367971242,
0.11870324189526185,0.017528051812355595,
0.11875311720698255,0.032909264932065384,
0.11880299251870324,0.03378107480646197,
0.11885286783042394,0.015343943581124918,
0.11890274314214463,0.038287387170526675,
0.11895261845386533,0.04436591129368677,
0.11900249376558604,0.03877867667608982,
0.11905236907730674,0.009702113417275695,
0.11910224438902743,0.024339592272843942,
0.11915211970074813,0.03734394981781348,
0.11920199501246882,0.00451656000377507,
0.11925187032418953,-0.0010973154066823143,
0.11930174563591023,0.026572333858153496,
0.11935162094763092,0.015786026641783982,
0.11940149625935162,0.046778508939055954,
0.11945137157107232,0.02826154674239387,
0.11950124688279301,0.040934855206661305,
0.11955112219451372,0.03050995282105256,
0.11960099750623442,0.024901625537996616,
0.11965087281795511,0.036129765057656874,
0.11970074812967581,0.03463035304451433,
0.1197506234413965,0.026560898420498098,
0.11980049875311721,0.03774527969870506,
0.11985037406483791,0.01972266928663387,
0.1199002493765586,0.022081481628317516,
0.1199501246882793,0.03458266424156597,
0.12,0.0588347615409354,
0.1200498753117207,0.024409967549517037,
0.1200997506234414,0.014988208379859473,
0.1201496259351621,0.061507422855514325,
0.12019950124688279,0.01626526224234569,
0.12024937655860349,0.02336170790481685,
0.12029925187032418,0.021979960196317105,
0.1203491271820449,0.04365900387708942,
0.12039900249376559,0.041182938997581624,
0.12044887780548628,0.046710304110703565,
0.12049875311720698,0.04068808021982921,
0.12054862842892768,-0.00986474716520603,
0.12059850374064839,0.028281601979204075,
0.12064837905236908,0.05508189795857081,
0.12069825436408978,0.04358494026975963,
0.12074812967581047,0.05515978827679794,
0.12079800498753117,0.018959717152593147,
0.12084788029925186,0.04879066541464197,
0.12089775561097257,0.023139950841024038,
0.12094763092269327,0.033112730793636705,
0.12099750623441397,0.034948533398423576,
0.12104738154613466,0.02330851946194453,
0.12109725685785536,0.03147291797826786,
0.12114713216957607,-0.01972699402203003,
0.12119700748129676,0.029426738272036606,
0.12124688279301746,0.01761446273626381,
0.12129675810473815,0.039130612256912424,
0.12134663341645885,0.020751665714377716,
0.12139650872817954,0.017878524804684187,
0.12144638403990025,0.01864007863898462,
0.12149625935162095,0.01713443007197786,
0.12154613466334165,0.036419384873979416,
0.12159600997506234,-0.004299962889710129,
0.12164588528678304,0.04131986957178603,
0.12169576059850375,0.04345737521083183,
0.12174563591022444,0.034289025821448736,
0.12179551122194514,0.04169161519164349,
0.12184538653366583,0.022571437329900013,
0.12189526184538653,0.0426393598564076,
0.12194513715710723,0.03920105182450288,
0.12199501246882793,0.023502242724410614,
0.12204488778054863,0.02417271788752648,
0.12209476309226933,0.05535187000495605,
0.12214463840399002,0.04158874003285812,
0.12219451371571072,0.03265012739251448,
0.12224438902743143,0.008545599896327973,
0.12229426433915212,0.02123797750666104,
0.12234413965087282,0.019447750783255863,
0.12239401496259351,0.020032521590996465,
0.12244389027431421,0.04006655547381592,
0.12249376558603492,0.04864595926695082,
0.12254364089775562,0.02933913601772309,
0.12259351620947631,0.06768513572748738,
0.122643391521197,0.010730575821557849,
0.1226932668329177,0.030530092153092717,
0.1227431421446384,0.016266119779972287,
0.12279301745635911,0.028442008732182274,
0.1228428927680798,0.0208421345189512,
0.1228927680798005,0.009003309966279403,
0.1229426433915212,0.01707034896997851,
0.12299251870324189,0.013094216054040445,
0.1230423940149626,0.0028626309968257033,
0.1230922693266833,0.05206420954441425,
0.12314214463840399,0.012098647672885463,
0.12319201995012469,0.05719896209479074,
0.12324189526184538,0.019794586929110174,
0.12329177057356608,0.004524764606916452,
0.12334164588528679,0.004728975838888892,
0.12339152119700748,0.009808171679904602,
0.12344139650872818,0.015792474575055122,
0.12349127182044888,0.004846177652024506,
0.12354114713216957,-0.00870598592269799,
0.12359102244389028,0.00922160728206636,
0.12364089775561098,0.021747511911336156,
0.12369077306733167,0.007415589554421925,
0.12374064837905237,-0.014750603309109834,
0.12379052369077306,0.002921281651477368,
0.12384039900249376,-0.011252703446783146,
0.12389027431421447,0.03157524247823089,
0.12394014962593516,-0.007408917523967315,
0.12399002493765586,-0.0014219253283797757,
0.12403990024937656,0.03603080671051564,
0.12408977556109725,0.023117771347361964,
0.12413965087281796,-0.00818549267346245,
0.12418952618453866,0.017257290310563403,
0.12423940149625935,0.03489049611601741,
0.12428927680798005,0.015766078558802264,
0.12433915211970074,0.015070658439213376,
0.12438902743142144,0.008286038146193967,
0.12443890274314215,-0.009879514750914992,
0.12448877805486284,0.019779772599744144,
0.12453865336658354,0.025270325537653144,
0.12458852867830424,0.0006992170940408431,
0.12463840399002493,0.004544638704109543,
0.12468827930174564,0.01880846499784181,
0.12473815461346634,0.005924793095188612,
0.12478802992518703,0.028013230007466045,
0.12483790523690773,-0.010595059828706215,
0.12488778054862842,-0.003540365773602349,
0.12493765586034913,-0.01316278398144325,
0.12498753117206983,0.031905203677626615,
0.12503740648379053,-0.0014686824642426875,
0.12508728179551123,0.0010644061578636132,
0.12513715710723192,0.005293561568959131,
0.12518703241895263,0.024476272084366337,
0.1252369077306733,0.039307056570004946,
0.12528678304239402,0.019302027922094192,
0.1253366583541147,0.03453659806279144,
0.1253865336658354,-0.0028661043906631142,
0.12543640897755612,-0.0129958737120118,
0.1254862842892768,0.009776517483897459,
0.1255361596009975,-0.021619463184261632,
0.1255860349127182,-0.02215882685957122,
0.1256359102244389,-0.012602314324821399,
0.1256857855361596,0.008496971640694444,
0.1257356608478803,0.004595618782275002,
0.125785536159601,-0.005307166576461443,
0.12583541147132168,0.009039790972932591,
0.1258852867830424,-0.007944735360418132,
0.1259351620947631,0.017984830981899597,
0.12598503740648379,-0.015418704779457523,
0.1260349127182045,-0.02040399165607342,
0.12608478802992518,0.02709351530580599,
0.1261346633416459,-0.01051936254658084,
0.1261845386533666,-0.003935355965195019,
0.12623441396508728,0.0026882010659324855,
0.126284289276808,-0.017703253773348276,
0.12633416458852867,0.0064366311791150335,
0.12638403990024938,0.006610105400952212,
0.1264339152119701,-0.0066571227954136695,
0.12648379052369077,0.013375890891538152,
0.12653366583541148,-0.004221317483736822,
0.12658354114713216,-0.00854015350653064,
0.12663341645885287,0.013055465999486433,
0.12668329177057355,0.006775570138960043,
0.12673316708229426,-0.005983845909758318,
0.12678304239401497,-0.023902129834341028,
0.12683291770573565,-0.004367034116413085,
0.12688279301745636,0.01134218747830954,
0.12693266832917705,0.00782244255274981,
0.12698254364089775,-0.0017383145750315384,
0.12703241895261846,-0.016588611359853005,
0.12708229426433915,-0.02025859777601126,
0.12713216957605986,-0.030522977137379274,
0.12718204488778054,-0.021290195464483144,
0.12723192019950125,-0.00419967116372313,
0.12728179551122196,-0.019415892542352067,
0.12733167082294264,-0.01076587010110044,
0.12738154613466335,-0.02042596995378827,
0.12743142144638403,-0.022644996448411187,
0.12748129675810474,-0.007628401367803189,
0.12753117206982545,-0.012479503332851208,
0.12758104738154613,-0.014813098948079003,
0.12763092269326684,-3.8356708927118205e-05,
0.12768079800498752,-0.016034264915154764,
0.12773067331670823,-0.017829280363984065,
0.1277805486284289,0.015100924258782067,
0.12783042394014962,-0.011211083972738692,
0.12788029925187033,-0.02155114135539977,
0.12793017456359101,0.016797572081342013,
0.12798004987531172,-0.0063121279033145315,
0.1280299251870324,-0.000805077260207337,
0.12807980049875312,-0.00968578665138601,
0.12812967581047383,0.006150253769594025,
0.1281795511221945,0.000105936882646495,
0.12822942643391522,0.014428319544029337,
0.1282793017456359,-0.015331384843334848,
0.1283291770573566,-0.02239549103290464,
0.12837905236907732,0.00023275345741683058,
0.128428927680798,-0.018295300712946112,
0.1284788029925187,-0.021028480236236092,
0.1285286783042394,-0.048833565616864284,
0.1285785536159601,-0.013022702981860293,
0.1286284289276808,-0.007069975132650732,
0.1286783042394015,0.0030577815490410477,
0.1287281795511222,0.00027654968721990865,
0.12877805486284288,0.004649211101765456,
0.1288279301745636,-0.011780229009564118,
0.1288778054862843,-0.00036296541168804285,
0.12892768079800498,-0.0020830790416086903,
0.1289775561097257,0.00042829479226825715,
0.12902743142144638,-0.01458220563913689,
0.12907730673316709,-0.023079723219575295,
0.12912718204488777,-0.004897986377364498,
0.12917705735660848,-0.004672278036941217,
0.1292269326683292,-0.00019777471900878432,
0.12927680798004987,0.0027291127219415,
0.12932668329177058,-0.015487511359953413,
0.12937655860349126,-0.01811991274861218,
0.12942643391521197,-0.01490935879803002,
0.12947630922693268,-0.010933119282821277,
0.12952618453865336,-0.005313385680895372,
0.12957605985037407,-0.02914359566218442,
0.12962593516209475,-0.006936013402473432,
0.12967581047381546,-0.015691450086104064,
0.12972568578553617,0.007964130294978713,
0.12977556109725685,-0.006275214201150053,
0.12982543640897756,-0.009194312749926208,
0.12987531172069824,0.0014518173630204707,
0.12992518703241895,-0.017817938624564704,
0.12997506234413966,0.03033203891206157,
0.13002493765586035,-0.00014729568224174094,
0.13007481296758105,0.011970812456598525,
0.13012468827930174,0.010009310032724773,
0.13017456359102245,-0.00568930193581179,
0.13022443890274316,0.005032851766625844,
0.13027431421446384,-0.018438246889632217,
0.13032418952618455,-0.021675873435030694,
0.13037406483790523,0.02632913395953066,
0.13042394014962594,0.0004987376306318948,
0.13047381546134662,-0.012373692877520033,
0.13052369077306733,-0.034380624054431964,
0.13057356608478804,-0.04179986053629064,
0.13062344139650872,-0.019385639987762358,
0.13067331670822943,-0.007348477924999417,
0.1307231920199501,-0.015063963142044837,
0.13077306733167082,-0.037223659894458944,
0.13082294264339153,-0.010893040744901343,
0.13087281795511221,-0.008251787437463704,
0.13092269326683292,0.02573737171965529,
0.1309725685785536,-0.017468609991476522,
0.13102244389027431,-0.009712418201413529,
0.13107231920199502,0.00347959070226528,
0.1311221945137157,-0.006009706726290643,
0.13117206982543642,0.003483004832151913,
0.1312219451371571,-0.01841063577257957,
0.1312718204488778,-0.022909666256322573,
0.13132169576059852,0.00945087960167672,
0.1313715710723192,-0.02496432439594335,
0.1314214463840399,-0.0009553872860248672,
0.1314713216957606,-0.010751344020588718,
0.1315211970074813,0.005844122381449669,
0.13157107231920198,-0.005852499611349203,
0.1316209476309227,-0.012424299696583808,
0.1316708229426434,-0.01258100273205895,
0.13172069825436408,-0.021065008349702846,
0.1317705735660848,0.013709046604694918,
0.13182044887780547,0.005260849980951108,
0.13187032418952618,-0.024818708154625953,
0.1319201995012469,0.012907878400541006,
0.13197007481296757,0.01333635917883448,
0.13201995012468828,0.002769612668727132,
0.13206982543640897,-0.021929522119387194,
0.13211970074812968,-0.004464293097580766,
0.13216957605985039,0.01281918217632573,
0.13221945137157107,-0.0176883124967656,
0.13226932668329178,-0.002829459904293509,
0.13231920199501246,-0.007521888437475776,
0.13236907730673317,0.0007640845780054564,
0.13241895261845388,0.006225319369773184,
0.13246882793017456,0.014084143529880225,
0.13251870324189527,0.017797025965670746,
0.13256857855361595,0.01792771346826308,
0.13261845386533666,0.011337616159186444,
0.13266832917705737,-0.01378153159584055,
0.13271820448877805,-0.04673331245951114,
0.13276807980049876,-0.004218347506084094,
0.13281795511221944,0.023019125506442896,
0.13286783042394015,-0.008692944693329319,
0.13291770573566083,0.0005535308346700444,
0.13296758104738154,-0.029028133274095657,
0.13301745635910225,-0.03966473906120421,
0.13306733167082294,-0.0016115883306764035,
0.13311720698254365,0.010212936941554875,
0.13316708229426433,-0.03600197882625291,
0.13321695760598504,0.006493777887150054,
0.13326683291770575,-0.0013751366762119214,
0.13331670822942643,-0.013349459140564865,
0.13336658354114714,-0.004371202663163201,
0.13341645885286782,0.006515426587933097,
0.13346633416458853,0.02495821323772858,
0.13351620947630924,-0.004867579671992704,
0.13356608478802992,-0.0009478112587389398,
0.13361596009975063,-0.025315948160248902,
0.1336658354114713,-0.001462582046534851,
0.13371571072319202,-0.002108027827383347,
0.13376558603491273,0.03595060962830392,
0.1338154613466334,0.01853353670302873,
0.13386533665835412,0.017605096021204334,
0.1339152119700748,-0.001906963027964885,
0.13396508728179551,-0.011190027555540133,
0.1340149625935162,0.017223828592811588,
0.1340648379052369,-0.02005140570684371,
0.13411471321695762,-0.005085329189098589,
0.1341645885286783,0.0334492756400319,
0.134214463840399,0.004489544632925556,
0.1342643391521197,0.02769892244484036,
0.1343142144638404,0.014593615625391246,
0.1343640897755611,0.012535366087975145,
0.1344139650872818,0.012399490292197106,
0.1344638403990025,-0.030272467365495413,
0.13451371571072318,0.024733415725857986,
0.1345635910224439,0.03529019419900743,
0.1346134663341646,0.008110713917449879,
0.13466334164588528,0.02190924723841175,
0.134713216957606,-0.002134298329000082,
0.13476309226932667,0.030662587250969757,
0.13481296758104738,-0.005989041675355676,
0.1348628428927681,-5.66907907157202e-06,
0.13491271820448877,0.020448023941732608,
0.13496259351620948,0.001359732289174135,
0.13501246882793017,0.02431683104104311,
0.13506234413965088,0.01840583158518553,
0.13511221945137158,0.01431621084155066,
0.13516209476309227,0.016721309741861735,
0.13521197007481298,0.03632158601660499,
0.13526184538653366,-0.00522181212313234,
0.13531172069825437,0.026290927493802033,
0.13536159600997505,0.023508530857809868,
0.13541147132169576,-0.0019821229707742485,
0.13546134663341647,0.016646644500644528,
0.13551122194513715,0.025222445283887618,
0.13556109725685786,0.02258285108536833,
0.13561097256857854,-0.004792256321335366,
0.13566084788029925,0.0511185847577913,
0.13571072319201996,0.014771909580169603,
0.13576059850374064,0.01935359745442019,
0.13581047381546135,0.023146837623566868,
0.13586034912718203,0.026428003168886764,
0.13591022443890274,0.017769674156378125,
0.13596009975062345,0.01794209740517261,
0.13600997506234414,0.03102290115629698,
0.13605985037406484,-0.0030792291442174394,
0.13610972568578553,0.024033581655072928,
0.13615960099750624,0.01359287082258789,
0.13620947630922695,0.022981775603347233,
0.13625935162094763,0.038383921022421684,
0.13630922693266834,-0.01668621843491478,
0.13635910224438902,0.0022170749161599702,
0.13640897755610973,0.02739107947190151,
0.1364588528678304,0.03450650939108957,
0.13650872817955112,0.015207977087734015,
0.13655860349127183,0.03908631231186878,
0.1366084788029925,0.029220931437660372,
0.13665835411471322,0.044268368252209686,
0.1367082294264339,0.023684783058660976,
0.1367581047381546,0.011739778121650708,
0.13680798004987532,-0.008376010105527465,
0.136857855361596,0.000812721656011383,
0.1369077306733167,0.030032263420448957,
0.1369576059850374,0.036312877610428715,
0.1370074812967581,0.009533740150395468,
0.13705735660847881,0.02841296424734817,
0.1371072319201995,0.022319941684686363,
0.1371571072319202,0.015923960303822385,
0.1372069825436409,0.049664025928795374,
0.1372568578553616,0.020297904315309347,
0.1373067331670823,0.047840835263437353,
0.137356608478803,0.04482921741823288,
0.1374064837905237,0.02184841313478169,
0.13745635910224438,0.014779266591757146,
0.1375062344139651,0.04110989952195373,
0.1375561097256858,0.028204032308735444,
0.13760598503740648,0.021293992010477224,
0.1376558603491272,0.022411608988667082,
0.13770573566084787,0.03178006369472673,
0.13775561097256858,0.03617676171879354,
0.13780548628428926,0.025348742382996975,
0.13785536159600997,0.030927596295021356,
0.13790523690773068,0.04793691278271099,
0.13795511221945136,0.05344958693294891,
0.13800498753117207,0.056826446709811,
0.13805486284289276,0.016950996153761184,
0.13810473815461347,0.027745760003690653,
0.13815461346633418,0.0020433913090261435,
0.13820448877805486,0.04188047010437255,
0.13825436408977557,0.034861317069927567,
0.13830423940149625,-0.016265785610764565,
0.13835411471321696,0.03751938006735246,
0.13840399002493767,0.030838838248211764,
0.13845386533665835,0.03301763183593969,
0.13850374064837906,0.03248460166690377,
0.13855361596009974,0.03217442493556687,
0.13860349127182045,0.01470807308609225,
0.13865336658354116,0.03636442507549619,
0.13870324189526184,-0.0158086131519769,
0.13875311720698255,0.022128951022799215,
0.13880299251870323,0.02296361939665336,
0.13885286783042394,0.03760003675934244,
0.13890274314214462,0.031207838663707722,
0.13895261845386533,-0.00044869506548910615,
0.13900249376558604,0.023944188576466754,
0.13905236907730673,0.03994318975624448,
0.13910224438902744,0.017554845585718366,
0.13915211970074812,0.016784104949943812,
0.13920199501246883,0.025656210349924706,
0.13925187032418954,0.03496963894996305,
0.13930174563591022,0.028450441550889563,
0.13935162094763093,0.019022525495512137,
0.1394014962593516,0.003943816310037748,
0.13945137157107232,0.011937485310859204,
0.13950124688279303,0.024397720982160594,
0.1395511221945137,0.034655447198235656,
0.13960099750623442,0.017062979266390926,
0.1396508728179551,0.04149237082165727,
0.1397007481296758,0.04464998100248523,
0.13975062344139652,0.04281458841042444,
0.1398004987531172,0.031199369494087442,
0.1398503740648379,0.05102686243738082,
0.1399002493765586,0.01686471255822885,
0.1399501246882793,0.04331488361310051,
0.14,0.03815233696617104,
0.1400498753117207,0.026073723947058564,
0.1400997506234414,0.033069021165747045,
0.1401496259351621,0.041091549651113654,
0.1401995012468828,0.032918854103518344,
0.14024937655860348,0.03011706982990164,
0.1402992518703242,0.03657261307307292,
0.1403491271820449,0.0394945695586992,
0.14039900249376558,-0.004627649746581926,
0.1404488778054863,0.04834093477284642,
0.14049875311720697,0.0008189340579067422,
0.14054862842892768,0.022427411721566523,
0.1405985037406484,0.032510201604786966,
0.14064837905236907,0.025896026955245486,
0.14069825436408978,0.027397773054721478,
0.14074812967581046,0.0484444410817243,
0.14079800498753117,0.012734259654617566,
0.14084788029925188,0.04420399358873628,
0.14089775561097256,0.016512005133390666,
0.14094763092269327,0.024858368238992283,
0.14099750623441396,0.0020643085123651962,
0.14104738154613466,0.028982582147531265,
0.14109725685785537,0.046147860608004417,
0.14114713216957606,0.020896133553204337,
0.14119700748129677,0.02656184062473145,
0.14124688279301745,-0.006266228206064612,
0.14129675810473816,0.02277497822085525,
0.14134663341645887,0.024904246882186374,
