time,amplitude,label
0.0,0.016431837484707657,
4.987531172069826e-05,0.014273576276475242,
9.975062344139652e-05,0.03996823892400213,
0.00014962593516209475,0.018989476843776606,
0.00019950124688279303,0.033387678333984545,
0.00024937655860349125,0.026586834489867393,
0.0002992518703241895,0.04290670839101762,
0.00034912718204488776,0.05447933405587027,
0.00039900249376558606,0.0253833393797378,
0.0004488778054862843,0.028848369654154334,
0.0004987531172069825,0.04747178275141577,
0.0005486284289276808,0.01098248239946472,
0.000598503740648379,0.0007625199825925973,
0.0006483790523690773,0.033685957799095216,
0.0006982543640897755,0.019671889824523354,
0.0007481296758104738,0.021433172712459824,
0.0007980049875311721,0.040802566867112436,
0.0008478802992518703,0.025479917427713977,
0.0008977556109725686,0.053052730026213295,
0.0009476309226932668,0.006166123590363301,
0.000997506234413965,0.02189039823648286,
0.0010473815461346633,0.021538225914976682,
0.0010972568578553616,0.024961454047493777,
0.00114713216957606,0.03222371644129775,
0.001197007481296758,0.018159623804529706,
0.0012468827930174563,0.02936077045093865,
0.0012967581047381546,0.01996546843826871,
0.001346633416458853,0.04455009344946838,
0.001396508728179551,0.002124326906871459,
0.0014463840399002493,0.012307275422324293,
0.0014962593516209476,0.003847909141878318,
0.001546134663341646,0.005620181890840589,
0.0015960099750623442,0.021330905838196697,
0.0016458852867830423,0.023150486753807674,
0.0016957605985037406,0.003533007377153362,
0.001745635910224439,-0.0030832424625279985,
0.0017955112219451373,0.05128409842156685,
0.0018453865336658353,0.0007073777016010363,
0.0018952618453865336,0.061127093654846865,
0.001945137157107232,0.016688697704084376,
0.00199501246882793,0.009389888267319728,
0.0020448877805486283,0.0004599659960755724,
0.0020947630922693266,0.00011142938717156187,
0.002144638403990025,0.02707267587419593,
0.0021945137157107233,0.031026188306329028,
0.0022443890274314216,0.017511944535511054,
0.00229426433915212,0.03410331178600705,
0.0023441396508728177,0.015661205332563568,
0.002394014962593516,0.02780521448859615,
0.0024438902743142144,0.01636974074845265,
0.0024937655860349127,0.022373683742172037,
0.002543640897755611,-0.008021778884782324,
0.0025935162094763093,0.004703368523492594,
0.0026433915211970076,0.042058019371296176,
0.002693266832917706,0.041888511202484865,
0.002743142144638404,0.025985683245360505,
0.002793017456359102,0.02214519732640459,
0.0028428927680798004,0.006925924058251062,
0.0028927680798004987,-0.011330923290984098,
0.002942643391521197,0.020724336680005735,
0.0029925187032418953,0.011437288016971633,
0.0030423940149625936,-0.00798160624868437,
0.003092269326683292,-0.0002205112626550796,
0.00314214463840399,0.0014878521439914364,
0.0031920199501246885,0.015252971345022612,
0.0032418952618453864,0.02028695900396321,
0.0032917705735660847,-0.009779576706505519,
0.003341645885286783,0.023934720894729346,
0.0033915211970074813,0.011017427670856726,
0.0034413965087281796,0.01263034266784412,
0.003491271820448878,0.021372434723055653,
0.003541147132169576,0.023016710066821412,
0.0035910224438902745,0.01865917957692241,
0.0036408977556109724,0.049083955971077356,
0.0036907730673316707,-0.000586193969314773,
0.003740648379052369,0.022481390187549764,
0.0037905236907730673,0.0014866514436951798,
0.0038403990024937656,0.028941965011190923,
0.003890274314214464,0.013866059216909185,
0.003940149625935162,-0.005169501089865216,
0.00399002493765586,0.022787178400486097,
0.004039900249376558,-0.00025742110122583227,
0.004089775561097257,0.023938843367513306,
0.004139650872817955,0.006780369634388171,
0.004189526184538653,0.0031817463514694656,
0.004239401496259352,0.007529857115506175,
0.00428927680798005,0.005103232000226277,
0.004339152119700748,0.03938885647428129,
0.0043890274314214465,0.0024473831090130954,
0.004438902743142145,0.004481432254471381,
0.004488778054862843,-0.009888164162500481,
0.004538653366583541,-0.006732638576570854,
0.00458852867830424,-0.008926986173502655,
0.004638403990024938,0.020104727728473583,
0.0046882793017456355,0.007762001694073015,
0.004738154613466334,-0.0029660355330108574,
0.004788029925187032,0.00801121184948515,
0.00483790523690773,0.0231120091297217,
0.004887780548628429,-0.010041697878239952,
0.004937655860349127,0.01603276355954631,
0.004987531172069825,0.009578087480815397,
0.005037406483790524,-0.0008211840388274889,
0.005087281795511222,-0.024247504017515884,
0.00513715710723192,-0.006604676457607071,
0.0051870324189526185,-0.006407732881306184,
0.005236907730673317,0.0018766974381171243,
0.005286783042394015,0.0008860195835273615,
0.0053366583541147134,-0.01521563131856428,
0.005386533665835412,0.028156031698863253,
0.00543640897755611,0.022873231349452707,
0.005486284289276808,0.009941480392442963,
0.005536159600997507,0.009723524856141284,
0.005586034912718204,0.008592264558592943,
0.005635910224438902,0.004003482905146186,
0.005685785536159601,-0.016716677337610245,
0.005735660847880299,0.01497263701665631,
0.005785536159600997,0.009277466224858552,
0.005835411471321696,-0.009446370424667236,
0.005885286783042394,-0.031187577884358518,
0.005935162094763092,0.014163259784848765,
0.0059850374064837905,-0.015169052257692522,
0.006034912718204489,-0.014279262423177178,
0.006084788029925187,0.0006910846652289884,
0.0061346633416458855,-0.010860444137106217,
0.006184538653366584,-0.0018883986361058448,
0.006234413965087282,0.0014772494258139981,
0.00628428927680798,-0.004261439582558069,
0.006334164588528679,0.013931858251924181,
0.006384039900249377,-0.002999714351710628,
0.006433915211970074,0.0016784645402460707,
0.006483790523690773,-0.012739773229180611,
0.006533665835411471,0.023495772112796583,
0.006583541147132169,-0.027624147788456926,
0.006633416458852868,0.007004546911144292,
0.006683291770573566,-0.019156043514970314,
0.006733167082294264,0.004813812940984107,
0.0067830423940149626,-0.023993000890933175,
0.006832917705735661,-0.006709189230024632,
0.006882793017456359,0.015482840993666402,
0.0069326683291770575,-0.009023024620084258,
0.006982543640897756,-0.006922464862074646,
0.007032418952618454,0.0160427668237776,
0.007082294264339152,-0.021690032491431734,
0.007132169576059851,0.017850203484789717,
0.007182044887780549,0.007538891536806433,
0.007231920199501247,0.007207618701096392,
0.007281795511221945,-0.005830682087022667,
0.007331670822942643,-0.026010896352349634,
0.007381546134663341,-0.012663875377055274,
0.00743142144638404,0.013837919860433874,
0.007481296758104738,-0.04380956566642905,
0.007531172069825436,-0.011049778633952708,
0.007581047381546135,-0.026192584747410902,
0.007630922693266833,-0.027015710610884994,
0.007680798004987531,-0.021100604050226006,
0.0077306733167082295,-0.024848600386025974,
0.007780548628428928,-0.03413737107314951,
0.007830423940149626,-0.01720308427291469,
0.007880299251870324,-0.014948222560091571,
0.007930174563591023,0.0018350757766767232,
0.00798004987531172,-0.038854110318127084,
0.00802992518703242,-0.001756402906093333,
0.008079800498753117,-0.0024434631892375318,
0.008129675810473816,-0.02671299105320487,
0.008179551122194513,-0.0294311890912671,
0.008229426433915213,-0.00016867039140951168,
0.00827930174563591,0.010041448873356815,
0.00832917705735661,-0.021050466111352188,
0.008379052369077307,-0.023713111658213326,
0.008428927680798006,-0.02249919955568328,
0.008478802992518703,-0.013728243685930036,
0.0085286783042394,0.010242654094531782,
0.0085785536159601,-0.02083014595456393,
0.008628428927680797,-0.0017286613500178214,
0.008678304239401496,-0.02700968786811494,
0.008728179551122194,-0.025600744763821126,
0.008778054862842893,-0.038524151301007226,
0.00882793017456359,-0.019189450385038307,
0.00887780548628429,-0.018722518543932642,
0.008927680798004987,-0.008144173788537823,
0.008977556109725686,-0.0198121647700102,
0.009027431421446384,0.01015776810015757,
0.009077306733167083,-0.04337693449665181,
0.00912718204488778,0.01633398594622052,
0.00917705735660848,-0.02595836628245792,
0.009226932668329177,-0.026021976756645106,
0.009276807980049876,-0.02373240994103195,
0.009326683291770574,-0.016220947069729937,
0.009376558603491271,-0.01979623629049449,
0.00942643391521197,-0.037215735263274596,
0.009476309226932668,-0.042057111731494054,
0.009526184538653367,-0.005492346780003482,
0.009576059850374064,-0.013146641997231187,
0.009625935162094763,-0.020508744699478908,
0.00967581047381546,-0.032276179191251704,
0.00972568578553616,-0.017063976871624968,
0.009775561097256857,-0.02351076330063341,
0.009825436408977557,-0.010788396974098283,
0.009875311720698254,-0.017326107696669733,
0.009925187032418953,0.006279131798032085,
0.00997506234413965,-0.033358247526187455,
0.01002493765586035,-0.01291200687715937,
0.010074812967581047,-0.041012323159036676,
0.010124688279301746,-0.029641454391343497,
0.010174563591022444,-0.039482966572187306,
0.010224438902743141,-0.026142938561246915,
0.01027431421446384,-0.011488141261688605,
0.010324189526184538,-0.03412015937218629,
0.010374064837905237,-0.03547999272815372,
0.010423940149625935,-0.004518623105860861,
0.010473815461346634,-0.010497782163946836,
0.010523690773067331,-0.001492744262647682,
0.01057356608478803,-0.009455116479087176,
0.010623441396508728,-0.020055493913459326,
0.010673316708229427,-0.039733766803968146,
0.010723192019950124,-0.05815404405107459,
0.010773067331670824,-0.012321605042820406,
0.010822942643391521,-0.017550626080090777,
0.01087281795511222,-0.02252284763969867,
0.010922693266832918,-0.018951307735011493,
0.010972568578553617,-0.03513713857101408,
0.011022443890274314,-0.023952232368069263,
0.011072319201995013,-0.04208475985844518,
0.01112219451371571,-0.005488646779161964,
0.011172069825436408,-0.015455665721309481,
0.011221945137157107,-0.046775317641535696,
0.011271820448877805,-0.011081640201634086,
0.011321695760598504,-0.037360367627998416,
0.011371571072319201,-0.040657842506226435,
0.0114214463840399,-0.009696381816573837,
0.011471321695760598,-0.003248490457819272,
0.011521197007481297,-0.011412194722942522,
0.011571072319201995,-0.02340797741420181,
0.011620947630922694,-0.02813459138534244,
0.011670822942643391,-0.016917262971891736,
0.01172069825436409,0.005610236672410875,
0.011770573566084788,-0.009070040634188044,
0.011820448877805487,-0.038611667333430605,
0.011870324189526184,-0.016730560129121816,
0.011920199501246884,0.009792706105174711,
0.011970074812967581,-0.039266855918265245,
0.012019950124688279,-0.03296627223757445,
0.012069825436408978,-0.025255431085239734,
0.012119700748129675,-0.0009187032375085336,
0.012169576059850374,-0.036964983357795175,
0.012219451371571072,-0.023337532681475297,
0.012269326683291771,-0.018866218131032696,
0.012319201995012468,-0.031263563296362505,
0.012369077306733168,-0.0013396476238545733,
0.012418952618453865,-0.009412194176356737,
0.012468827930174564,-0.02201127395089314,
0.012518703241895262,-0.028582673306798,
0.01256857855361596,-0.03185793337636762,
0.012618453865336658,-0.006394591677630139,
0.012668329177057357,-0.04402884408823849,
0.012718204488778055,0.0014071780747041875,
0.012768079800498754,-0.007231269875883545,
0.012817955112219451,0.003273678850666888,
0.012867830423940149,-0.021438025369662977,
0.012917705735660848,-0.009890197156749448,
0.012967581047381545,-0.006007453017299144,
0.013017456359102245,0.0026477706506376243,
0.013067331670822942,-0.037595346717202154,
0.013117206982543641,0.0019458917595850493,
0.013167082294264339,-0.0003115026847668352,
0.013216957605985038,0.022129102525904637,
0.013266832917705735,-0.03178571058098708,
0.013316708229426434,-0.00931931426884407,
0.013366583541147132,-0.004289147590281338,
0.013416458852867831,-0.03334062960784978,
0.013466334164588529,-0.0025411874808460074,
0.013516209476309228,-0.01603851978707086,
0.013566084788029925,-0.02451628624328095,
0.013615960099750624,-0.00974067093260184,
0.013665835411471322,0.003002975913087083,
0.01371571072319202,-0.021674996579193535,
0.013765586034912718,0.0016850317606968354,
0.013815461346633416,0.01578603669968142,
0.013865336658354115,-0.03485685801414335,
0.013915211970074812,-0.0038742965182333887,
0.013965087281795512,-0.01900330274232965,
0.014014962593516209,-0.012313263941969254,
0.014064837905236908,-0.01426146566824367,
0.014114713216957606,0.0031276156156407973,
0.014164588528678305,-0.018166226861759317,
0.014214463840399002,-0.008038512503890812,
0.014264339152119701,0.004752837539293385,
0.014314214463840399,-0.01858195679996142,
0.014364089775561098,0.0005809043179692743,
0.014413965087281795,-0.02718935314367902,
0.014463840399002495,-0.009630259143220094,
0.014513715710723192,-0.002180156511354654,
0.01456359102244389,0.007387897430069117,
0.014613466334164589,-0.018366411646988472,
0.014663341645885286,0.004121972115302351,
0.014713216957605985,0.0049249015590040095,
0.014763092269326683,-0.015424602817817396,
0.014812967581047382,-0.004101268567984319,
0.01486284289276808,0.021086518166788765,
0.014912718204488778,-0.010499742113422993,
0.014962593516209476,-0.024789434128991684,
0.015012468827930175,0.005609399753160609,
0.015062344139650873,0.0010804217356192,
0.015112219451371572,-0.022869809386409493,
0.01516209476309227,-0.010077902169547955,
0.015211970074812968,-0.0017654345725023812,
0.015261845386533666,-0.0031268749194045767,
0.015311720698254365,0.019910910947548113,
0.015361596009975062,-0.018321433580648784,
0.01541147132169576,0.0011867218465507444,
0.015461346633416459,-0.03765803823735542,
0.015511221945137156,0.011867719950469207,
0.015561097256857856,0.019650003439724242,
0.015610972568578553,0.001842124209236613,
0.015660847880299252,-0.00634372372484919,
0.01571072319201995,0.01283076121519749,
0.015760598503740647,0.029574565201103985,
0.015810473815461346,0.0032621659702728803,
0.015860349127182045,0.02158405429703414,
0.015910224438902745,-0.017357348385503266,
0.01596009975062344,-0.0051563626886722645,
0.01600997506234414,0.006324957371757118,
0.01605985037406484,0.008292855347047049,
0.016109725685785538,0.02326044272390379,
0.016159600997506234,0.021309395247110924,
0.016209476309226933,-0.0018222547041959148,
0.016259351620947632,0.0002507116453196994,
0.016309226932668328,-0.012712678841503003,
0.016359102244389027,0.01311413648516363,
0.016408977556109726,0.01686556835541568,
0.016458852867830425,0.058413510271860154,
0.01650872817955112,0.0043734395497959004,
0.01655860349127182,0.04414085798232174,
0.01660847880299252,-0.020133549578827393,
0.01665835411471322,0.015151927306669978,
0.016708229426433914,-0.0006482488926791378,
0.016758104738154613,0.034718582982729,
0.016807980049875312,0.011322025722570931,
0.01685785536159601,-0.018636932948555514,
0.016907730673316707,0.0300692828514176,
0.016957605985037406,0.02041108684767582,
0.017007481296758106,-0.008989399737855943,
0.0170573566084788,0.0075725154155082235,
0.0171072319201995,0.012277543021778213,
0.0171571072319202,0.02490718310434597,
0.0172069825436409,-0.011957648009803784,
0.017256857855361595,0.0280173256403877,
0.017306733167082294,0.021888663850196652,
0.017356608478802993,0.019805301582167888,
0.017406483790523692,0.019696795432375576,
0.017456359102244388,0.002661726820574528,
0.017506234413965087,0.008208362712496725,
0.017556109725685786,-0.010009977649160052,
0.017605985037406485,0.027152736854467223,
0.01765586034912718,0.02034734754822255,
0.01770573566084788,0.010159754454409883,
0.01775561097256858,0.020733770685127967,
0.01780548628428928,0.0011537043128236092,
0.017855361596009974,0.00033777492889992995,
0.017905236907730673,0.0011787090602076791,
0.017955112219451373,0.011825012485782771,
0.018004987531172068,0.0147905631943271,
0.018054862842892767,0.007754438881578779,
0.018104738154613467,0.02172996824934134,
0.018154613466334166,0.017890346753176488,
0.01820448877805486,0.03880520747578601,
0.01825436408977556,0.02495996329173775,
0.01830423940149626,0.04285050282500249,
0.01835411471321696,-0.00745479549373864,
0.018403990024937655,0.005673719998114581,
0.018453865336658354,0.029495711131849414,
0.018503740648379053,0.009215320727154124,
0.018553615960099752,-0.0021232185478939312,
0.018603491271820448,-0.00862243860661915,
0.018653366583541147,0.023878564154751574,
0.018703241895261846,0.005219233324208579,
0.018753117206982542,-0.001494686626479575,
0.01880299251870324,0.013573603722237893,
0.01885286783042394,0.020199095146981177,
0.01890274314214464,0.037716589996803496,
0.018952618453865335,0.02455082498213347,
0.019002493765586034,-0.01499244500790091,
0.019052369077306733,0.03164903608058875,
0.019102244389027433,0.004474863414471095,
0.01915211970074813,0.026654910701467822,
0.019201995012468828,-0.0005512385135757678,
0.019251870324189527,0.036728423899747474,
0.019301745635910226,0.031470990844533774,
0.01935162094763092,0.03045018254140082,
0.01940149625935162,0.008313619067083165,
0.01945137157107232,0.016533178354384677,
0.01950124688279302,0.04081739757043561,
0.019551122194513715,0.017516251791213917,
0.019600997506234414,0.026411687281753984,
0.019650872817955113,0.04463597807938989,
0.01970074812967581,0.010482340273944549,
0.019750623441396508,0.03411387499036407,
0.019800498753117207,-0.002675387305488112,
0.019850374064837906,0.005597661093550598,
0.019900249376558602,0.015610180715454898,
0.0199501246882793,0.042801272509354046,
0.02,0.01768157129258388,
0.0200498753117207,0.01793325091940441,
0.020099750623441395,0.027565101414871243,
0.020149625935162094,0.023705356497970415,
0.020199501246882794,0.036902098156595134,
0.020249376558603493,0.02293871044836081,
0.02029925187032419,0.008079864983588952,
0.020349127182044888,0.03894926077783441,
0.020399002493765587,0.016370497932855964,
0.020448877805486283,-0.008501014919784129,
0.02049875311720698,0.02564915508489699,
0.02054862842892768,0.02824915917578791,
0.02059850374064838,-0.023073821543264015,
0.020648379052369076,0.012789983828925754,
0.020698254364089775,0.029552695629997246,
0.020748129675810474,0.026255749634553203,
0.020798004987531173,0.018718759985238698,
0.02084788029925187,0.021694200359714217,
0.020897755610972568,0.013506451727468328,
0.020947630922693267,0.046001520708800765,
0.020997506234413967,0.021767341731592293,
0.021047381546134662,0.02531805420697386,
0.02109725685785536,0.022169910134587835,
0.02114713216957606,0.038227178912584085,
0.02119700748129676,0.008314705401840188,
0.021246882793017455,0.03799608342226318,
0.021296758104738155,0.01350684594454579,
0.021346633416458854,0.021974061876969413,
0.02139650872817955,0.04779174776686098,
0.02144638403990025,-0.0037858759069627768,
0.021496259351620948,0.008924310722668074,
0.021546134663341647,0.01835278059968809,
0.021596009975062343,0.012323214173227185,
0.021645885286783042,0.04169038444375954,
0.02169576059850374,0.008721696195517862,
0.02174563591022444,0.008350754276609439,
0.021795511221945136,0.03443487467152802,
0.021845386533665835,0.02397505851456234,
0.021895261845386534,0.01672785025302445,
0.021945137157107233,0.02437402975890107,
0.02199501246882793,0.007107420297623698,
0.02204488778054863,0.012191969620151405,
0.022094763092269327,0.013011723948947219,
0.022144638403990027,0.04772210526773616,
0.022194513715710722,0.047520622305242094,
0.02224438902743142,-0.010764051661359793,
0.02229426433915212,0.022149020876398324,
0.022344139650872816,0.02316310859315262,
0.022394014962593516,0.013912271877893269,
0.022443890274314215,0.003496840291262458,
0.022493765586034914,0.03330249391653836,
0.02254364089775561,0.015835870421437356,
0.02259351620947631,0.003690251696397938,
0.022643391521197008,0.007899645761742888,
0.022693266832917707,0.02368071457563304,
0.022743142144638403,0.0282465634692243,
0.022793017456359102,0.014884447983409568,
0.0228428927680798,0.03256970340001609,
0.0228927680798005,0.017101522991538397,
0.022942643391521196,0.022710735849880828,
0.022992518703241895,0.03308798779926447,
0.023042394014962594,-0.0018080194208033203,
0.02309226932668329,0.016026526895325462,
0.02314214463840399,0.0264584174484587,
0.02319201995012469,0.03781701842129069,
0.023241895261845388,0.016829369926161308,
0.023291770573566083,0.02656972414462965,
0.023341645885286783,0.033956747687455144,
0.02339152119700748,0.019113630865947393,
0.02344139650872818,0.02663982672726179,
0.023491271820448877,0.033119074648426165,
0.023541147132169576,0.006847711000905729,
0.023591022443890275,0.011174098411889183,
0.023640897755610974,0.012645042158368525,
0.02369077306733167,0.016220746944366718,
0.02374064837905237,0.05595515220129365,
0.023790523690773068,-0.0011294089063772703,
0.023840399002493767,0.0432126659235443,
0.023890274314214463,0.005303416840546155,
0.023940149625935162,0.020260326454686214,
0.02399002493765586,0.013893578021116416,
0.024039900249376557,0.026201485082744613,
0.024089775561097256,0.03982374299319156,
0.024139650872817955,0.006855752869325935,
0.024189526184538655,0.03024507390686386,
0.02423940149625935,0.01929966524559199,
0.02428927680798005,-0.022011881541170383,
0.02433915211970075,-0.020303930455261847,
0.024389027431421448,0.016561979554436772,
0.024438902743142144,-0.007115909185533415,
0.024488778054862843,0.02007472748723651,
0.024538653366583542,-0.03236774273319548,
0.02458852867830424,0.015733418303652852,
0.024638403990024937,-0.015669197443195566,
0.024688279301745636,-0.003940168675681614,
0.024738154613466335,-0.01464230862906999,
0.02478802992518703,0.039013755326369054,
0.02483790523690773,-0.022731374190930083,
0.02488778054862843,0.0041937278810743155,
0.02493765586034913,-0.02263277689362284,
0.024987531172069824,0.009533925286679212,
0.025037406483790523,0.012431583954979106,
0.025087281795511222,-0.01370660771568593,
0.02513715710723192,0.01444792725636257,
0.025187032418952617,-0.009128921575488749,
0.025236907730673316,-0.0003665927571191779,
0.025286783042394016,-0.024483015808974475,
0.025336658354114715,0.022292984976802564,
0.02538653366583541,0.020332009337971364,
0.02543640897755611,0.0022371239912430847,
0.02548628428927681,-0.011356909813559031,
0.025536159600997508,0.003454291350179746,
0.025586034912718204,0.025444886708195384,
0.025635910224438903,-0.015360641592880909,
0.025685785536159602,0.01728297440107761,
0.025735660847880298,-0.012857583561545595,
0.025785536159600997,0.016693274413574887,
0.025835411471321696,-0.034038802007998976,
0.025885286783042395,-0.0010768996030336047,
0.02593516209476309,-0.014122248605477422,
0.02598503740648379,0.012344874371131553,
0.02603491271820449,-0.0012435316053993797,
0.02608478802992519,0.01032634969245946,
0.026134663341645884,0.001473760369078333,
0.026184538653366583,0.013596037480437709,
0.026234413965087282,-0.02560337664566648,
0.02628428927680798,0.01839326441889603,
0.026334164588528677,0.01857235445880449,
0.026384039900249377,-0.004417774031285582,
0.026433915211970076,-0.014022207360427598,
0.02648379052369077,-0.00452877361026194,
0.02653366583541147,0.005876440012781288,
0.02658354114713217,-0.010454162018244643,
0.02663341645885287,0.004114610557651765,
0.026683291770573565,0.007924934923036822,
0.026733167082294264,-0.010983712075310702,
0.026783042394014963,-0.008960772574355824,
0.026832917705735662,0.0019305607051383457,
0.026882793017456358,-0.0021489354597031296,
0.026932668329177057,0.033400430725838794,
0.026982543640897756,-0.013478789783805643,
0.027032418952618455,0.0004257601265005113,
0.02708229426433915,-0.0023494233878874025,
0.02713216957605985,-0.01616250909093259,
0.02718204488778055,0.011622390282932781,
0.02723192019950125,-0.002102926155331219,
0.027281795511221944,-0.010403732830894916,
0.027331670822942643,-0.020485567215792665,
0.027381546134663343,-0.012561834079625567,
0.02743142144638404,0.0043815308687720315,
0.027481296758104738,-0.004458246683584229,
0.027531172069825437,-0.0045562036777316295,
0.027581047381546136,-0.01755006001232453,
0.02763092269326683,-0.011225176925123537,
0.02768079800498753,-0.011217041272655373,
0.02773067331670823,-0.008512049198288171,
0.02778054862842893,-0.012803072957820613,
0.027830423940149625,-0.02803149996445852,
0.027880299251870324,-0.023508675365185458,
0.027930174563591023,-0.01108407232936531,
0.027980049875311722,-0.009793708312594759,
0.028029925187032418,-0.003202845969542855,
0.028079800498753117,-0.015601829542132916,
0.028129675810473816,0.013332947685423611,
0.028179551122194512,-0.005000861484643613,
0.02822942643391521,-0.010715476289758998,
0.02827930174563591,0.016911861571874038,
0.02832917705735661,0.01878449606494933,
0.028379052369077305,-0.00394800883160229,
0.028428927680798004,0.006577139598919389,
0.028478802992518704,0.010594393476637497,
0.028528678304239403,-0.024477050142354295,
0.0285785536159601,-0.017762016759048302,
0.028628428927680798,-0.02782123211057832,
0.028678304239401497,-0.022749917971212993,
0.028728179551122196,-0.009384416796680745,
0.02877805486284289,-0.02595573025855865,
0.02882793017456359,-0.018609365797608104,
0.02887780548628429,-0.00912994752947671,
0.02892768079800499,-0.004536532565349792,
0.028977556109725685,-0.017557462032896373,
0.029027431421446384,-0.022528436147125994,
0.029077306733167083,-0.018080083642270636,
0.02912718204488778,-0.01963293074946034,
0.029177057356608478,-0.02640458000936197,
0.029226932668329177,-0.020928940990553514,
0.029276807980049877,-0.006505015035388001,
0.029326683291770572,-0.014790696299924572,
0.02937655860349127,-0.038027761457473955,
0.02942643391521197,-0.036726002500058474,
0.02947630922693267,-0.013071082209410629,
0.029526184538653365,-0.011382150023779231,
0.029576059850374065,0.0010371744406092107,
0.029625935162094764,-0.010700411627830964,
0.029675810473815463,-0.012855156869790198,
0.02972568578553616,-0.007745209460548118,
0.029775561097256858,-0.027085538028238564,
0.029825436408977557,-0.0024698320991101003,
0.029875311720698253,0.01591519999238179,
0.029925187032418952,-0.004440787196049076,
0.02997506234413965,-0.030050148425364884,
0.03002493765586035,-0.028949157081272076,
0.030074812967581046,-0.039983318989776986,
0.030124688279301745,-0.049322646324318806,
0.030174563591022444,0.010881562604579068,
0.030224438902743143,-0.025279477117370143,
0.03027431421446384,-0.023848960868807643,
0.03032418952618454,0.0009989301424149465,
0.030374064837905237,-0.02593286294303284,
0.030423940149625937,-0.04283496653393855,
0.030473815461346632,-0.031040693918055924,
0.03052369077306733,-0.017139846738364536,
0.03057356608478803,-0.007622841090830824,
0.03062344139650873,-0.04310751528167947,
0.030673316708229426,-0.04471199912554945,
0.030723192019950125,-0.0381908342668572,
0.030773067331670824,-0.006924455583564713,
0.03082294264339152,-0.018569446982826813,
0.03087281795511222,-0.033973999445008715,
0.030922693266832918,-0.03228228166117539,
0.030972568578553617,-0.02587541914467209,
0.031022443890274313,-0.004149098344029252,
0.031072319201995012,-0.03830120935268724,
0.03112219451371571,-0.0077599616531052636,
0.03117206982543641,-0.02490574393142988,
0.031221945137157106,-0.03156775366807801,
0.03127182044887781,-0.028213713920246707,
0.031321695760598504,-0.023434043776032837,
0.0313715710723192,-0.024759250869311352,
0.0314214463840399,-0.04088217921405357,
0.0314713216957606,-0.004583344836378759,
0.031521197007481294,-0.0006198042884594003,
0.031571072319202,0.003804289604427094,
0.03162094763092269,-0.03509438237570503,
0.03167082294264339,-0.019119950909448156,
0.03172069825436409,-0.02503709994492026,
0.03177057356608479,-0.00167414269779622,
0.03182044887780549,-0.012935762119570596,
0.031870324189526185,-0.01237890684244964,
0.03192019950124688,0.0014618170555737824,
0.03197007481296758,-0.02523004191061432,
0.03201995012468828,-0.0008323007774846715,
0.032069825436408975,-0.010541971720687618,
0.03211970074812968,0.0030769324587343744,
0.03216957605985037,0.004157196683411118,
0.032219451371571076,0.008658252149315905,
0.03226932668329177,-0.022357624230059346,
0.03231920199501247,-0.006114351740709189,
0.03236907730673317,-0.016139652061976408,
0.032418952618453865,-0.013212872819844738,
0.03246882793017456,-0.0076018767596181674,
0.032518703241895264,-0.003875139101765887,
0.03256857855361596,-0.010538078850282837,
0.032618453865336655,-0.034297113746280285,
0.03266832917705736,-0.032404366591440734,
0.032718204488778053,0.008135912237058375,
0.032768079800498756,-0.0014551395610094848,
0.03281795511221945,-0.025561482748916384,
0.03286783042394015,0.002179910042513191,
0.03291770573566085,0.01049677785359623,
0.032967581047381546,-0.0034507732462082247,
0.03301745635910224,-0.003629080220439068,
0.033067331670822944,-0.01761500879243374,
0.03311720698254364,0.01000707837976556,
0.03316708229426434,-0.029477809075603833,
0.03321695760598504,0.009132906733429386,
0.033266832917705734,-0.007071427631672776,
0.03331670822942644,-0.012335173145883766,
0.03336658354114713,-0.026581330865595477,
0.03341645885286783,-0.02755367011160273,
0.03346633416458853,0.0027617538683335392,
0.033516209476309226,-0.026383524394112533,
0.03356608478802992,-0.012147907014247705,
0.033615960099750625,0.004787253120788131,
0.03366583541147132,0.0017823888284416393,
0.03371571072319202,-0.00017507012016207586,
0.03376558603491272,-0.0039936823311542986,
0.033815461346633414,-0.012221214860667006,
0.03386533665835412,0.01307511980150688,
0.03391521197007481,0.007275961082867315,
0.03396508728179551,0.0033663418859346886,
0.03401496259351621,-0.010877287036835034,
0.03406483790523691,-0.02219800697096172,
0.0341147132169576,0.007216855573376474,
0.034164588528678305,-0.019199802998217767,
0.034214463840399,0.002910722974755529,
0.034264339152119704,-0.012578429345542872,
0.0343142144638404,-0.008022081633127023,
0.034364089775561095,0.0014756964911428801,
0.0344139650872818,-0.0036883283844387975,
0.03446384039900249,0.010870388729844943,
0.03451371571072319,-0.008277757231573292,
0.03456359102244389,-0.015423470306409892,
0.03461346633416459,-0.0005707878739691225,
0.03466334164588529,-0.005744205107901728,
0.034713216957605986,-0.013807902561177705,
0.03476309226932668,-0.01650948352468936,
0.034812967581047384,-0.020228284638498448,
0.03486284289276808,0.005973720012290935,
0.034912718204488775,-0.030238081589841648,
0.03496259351620948,-0.0015468655679029913,
0.035012468827930174,-0.016073068619588224,
0.03506234413965087,0.00011268841575652524,
0.03511221945137157,0.010844291223640735,
0.03516209476309227,-0.0005404426783712659,
0.03521197007481297,-0.009278738546636436,
0.035261845386533666,-0.04653817092411365,
0.03531172069825436,-0.01166126990518309,
0.035361596009975065,0.015754961271222924,
0.03541147132169576,0.003712235184130613,
0.035461346633416456,0.011490312594224643,
0.03551122194513716,-0.0031063295886807167,
0.035561097256857854,-0.0035658652183558574,
0.03561097256857856,-0.009876338863615325,
0.03566084788029925,-0.01352686767394944,
0.03571072319201995,0.015379245889966104,
0.03576059850374065,0.008896600065080985,
0.03581047381546135,-0.0037232244134475477,
0.03586034912718204,0.0333136512782716,
0.035910224438902745,-0.0386855893050159,
0.03596009975062344,-0.014684525656976123,
0.036009975062344136,-0.003483221014351442,
0.03605985037406484,0.0066885024875073685,
0.036109725685785535,0.012500722422692607,
0.03615960099750624,0.0016700146548534424,
0.03620947630922693,6.483774453082923e-05,
0.03625935162094763,0.027210030683253516,
0.03630922693266833,-0.03627884902831199,
0.03635910224438903,0.012828263740051114,
0.03640897755610972,-0.0054466876974469235,
0.036458852867830426,0.015901806196737554,
0.03650872817955112,0.008303835969505713,
0.036558603491271824,0.0061472524440826645,
0.03660847880299252,0.029436659135110246,
0.036658354114713215,-0.0008010493953590318,
0.03670822942643392,-0.007814542006167782,
0.036758104738154614,0.02102775312516503,
0.03680798004987531,-0.013559774391274943,
0.03685785536159601,0.026108560795198937,
0.03690773067331671,0.004803598495695932,
0.0369576059850374,0.016640303638945454,
0.037007481296758106,0.004387699942889939,
0.0370573566084788,0.022211704455862777,
0.037107231920199504,-0.013992465393565027,
0.0371571072319202,-0.01616990433570756,
0.037206982543640896,-0.0008994050323439182,
0.0372568578553616,0.02114366591952834,
0.037306733167082294,0.022298658117196418,
0.03735660847880299,0.018243777881381706,
0.03740648379052369,0.02849908348902057,
0.03745635910224439,0.009398157718718455,
0.037506234413965084,0.006218151377125532,
0.037556109725685786,0.012427114886008036,
0.03760598503740648,0.01210382501941325,
0.037655860349127185,-0.01139398839890505,
0.03770573566084788,0.020746731157084284,
0.037755610972568576,0.019761054356725535,
0.03780548628428928,0.048357832888631214,
0.037855361596009975,0.02600872623970784,
0.03790523690773067,-0.006499123281462045,
0.03795511221945137,0.018995444934732025,
0.03800498753117207,0.006064883756893418,
0.03805486284289277,0.013532563860025128,
0.03810473815461347,0.01980706532967568,
0.03815461346633416,0.010584526859957552,
0.038204488778054865,0.03327427831281424,
0.03825436408977556,0.016080040503407052,
0.03830423940149626,0.051189432078224004,
0.03835411471321696,0.010593491840951878,
0.038403990024937655,0.031037896842716607,
0.03845386533665835,0.029064564011316116,
0.03850374064837905,0.014694638588438062,
0.03855361596009975,0.01077746630833349,
0.03860349127182045,0.02455720948431637,
0.03865336658354115,0.029971256385522956,
0.03870324189526184,0.03825492128701406,
0.038753117206982546,0.036744149709183174,
0.03880299251870324,0.03298152256027334,
0.03885286783042394,-0.004157715295495506,
0.03890274314214464,0.04346903181134857,
0.038952618453865336,0.02312858477012469,
0.03900249376558604,0.011288637594593524,
0.039052369077306734,0.030199660627130302,
0.03910224438902743,0.03226287566872075,
0.03915211970074813,0.03245243234159061,
0.03920199501246883,0.030340784966603432,
0.039251870324189524,0.020326812326845987,
0.039301745635910226,0.040141851855906546,
0.03935162094763092,0.032915322629571725,
0.03940149625935162,0.0011385461259066885,
0.03945137157107232,0.027573961114620623,
0.039501246882793016,0.013020520545652834,
0.03955112219451372,0.0194568745336383,
0.039600997506234414,0.005820671949808641,
0.03965087281795511,0.03263618852163096,
0.03970074812967581,0.025988143963276363,
0.03975062344139651,0.005101170917755138,
0.039800498753117204,0.03219877842999693,
0.03985037406483791,0.024877037423337495,
0.0399002493765586,0.003683161774209645,
0.039950124688279305,0.04259242366772935,
0.04,0.02530391303924811,
0.0400498753117207,0.0475463215334741,
0.0400997506234414,0.01289335946682488,
0.040149625935162095,0.025638748756337502,
0.04019950124688279,0.02570138262612656,
0.04024937655860349,0.023430528971560474,
0.04029925187032419,0.017837827394455566,
0.040349127182044885,0.034603310515639904,
0.04039900249376559,0.05286998082601198,
0.04044887780548628,0.027734710042600228,
0.040498753117206986,0.014003413542653212,
0.04054862842892768,0.034503800870054224,
0.04059850374064838,0.035416734243781695,
0.04064837905236908,0.00591984187522239,
0.040698254364089775,0.025543384787786255,
0.04074812967581047,0.02496473161160218,
0.040798004987531174,0.024002394713717862,
0.04084788029925187,0.03937173898718917,
0.040897755610972565,0.012326786122166531,
0.04094763092269327,0.003815441450413473,
0.04099750623441396,0.03407005517447087,
0.041047381546134666,0.0021376509260506785,
0.04109725685785536,0.008319426607858098,
0.04114713216957606,0.011691822728446419,
0.04119700748129676,0.04325960780379992,
0.041246882793017456,0.04513032651960717,
0.04129675810473815,0.03738017432712311,
0.041346633416458854,0.030699260751032798,
0.04139650872817955,0.04235018923827336,
0.04144638403990025,0.027025431518163216,
0.04149625935162095,0.031706782180821125,
0.041546134663341644,0.04247404109829664,
0.04159600997506235,0.02723195055401191,
0.04164588528678304,0.020098928718582734,
0.04169576059850374,0.024557449475655094,
0.04174563591022444,0.039992832218841604,
0.041795511221945136,0.025094374026452558,
0.04184538653366583,0.0374681241370336,
0.041895261845386535,0.031371340145322064,
0.04194513715710723,0.04104925990084497,
0.04199501246882793,0.026130015672715997,
0.04204488778054863,-0.0059153680297805294,
0.042094763092269324,0.029080035794512644,
0.04214463840399003,0.013122702355739724,
0.04219451371571072,0.031238590444440845,
0.04224438902743142,0.015547751553359763,
0.04229426433915212,0.023691640922763286,
0.04234413965087282,0.0017887220130348158,
0.04239401496259352,0.03552646582083791,
0.042443890274314215,0.04721551790887839,
0.04249376558603491,0.019025084051929122,
0.042543640897755614,0.02676608743612075,
0.04259351620947631,0.020381315415313354,
0.042643391521197005,0.015150093823374306,
0.04269326683291771,-0.0008267826208095755,
0.0427431421446384,0.013179817458864223,
0.0427930174563591,-0.006672793239666047,
0.0428428927680798,0.019421496603277962,
0.0428927680798005,0.009163023617524226,
0.0429426433915212,0.04499839325275007,
0.042992518703241896,0.004443789543923675,
0.04304239401496259,0.034363143300581975,
0.043092269326683294,0.030655396563625564,
0.04314214463840399,0.022470579044814892,
0.043192019950124685,0.01554139414295888,
0.04324189526184539,0.025266721356434284,
0.043291770573566084,0.016247834227730882,
0.043341645885286786,0.013991464055244509,
0.04339152119700748,0.00933085178935546,
0.04344139650872818,0.014153315118980787,
0.04349127182044888,0.01186653766919232,
0.043541147132169576,0.025212286592676655,
0.04359102244389027,0.007682804678704299,
0.043640897755610975,0.030516154708325673,
0.04369077306733167,0.023611135000603987,
0.043740648379052366,0.013823240762506163,
0.04379052369077307,0.018019807208110836,
0.043840399002493764,0.028749433366939244,
0.04389027431421447,0.01269053612486393,
0.04394014962593516,0.028114733107435466,
0.04399002493765586,0.01473703796358498,
0.04403990024937656,0.0040948818348744,
0.04408977556109726,0.011819303211965029,
0.04413965087281795,0.03213910358445739,
0.044189526184538655,0.011144264730298652,
0.04423940149625935,-0.0008557094055475431,
0.04428927680798005,0.014102379386190491,
0.04433915211970075,-0.001837237134502413,
0.044389027431421445,0.010690391066627822,
0.04443890274314215,-0.0021441963897191867,
0.04448877805486284,0.029670832581519948,
0.04453865336658354,0.011825806930863391,
0.04458852867830424,0.013969615930285145,
0.04463840399002494,0.012934132628421979,
0.04468827930174563,0.006858343595143477,
0.044738154613466335,0.04291224029745876,
0.04478802992518703,0.030797995350217353,
0.044837905236907734,0.0075769749497110565,
0.04488778054862843,0.03472077086892737,
0.044937655860349125,-0.010815254638257476,
0.04498753117206983,0.022892964388469658,
0.045037406483790524,0.037762679990831285,
0.04508728179551122,0.010981784453490727,
0.04513715710723192,-0.00034661975942889677,
0.04518703241895262,-0.018291900036872845,
0.04523690773067331,0.007572139661206704,
0.045286783042394016,-0.012874188419446618,
0.04533665835411471,-0.01795782952292057,
0.045386533665835414,-0.00026672989418431107,
0.04543640897755611,-0.012639614616321397,
0.045486284289276806,-0.004537437276041702,
0.04553615960099751,0.026292333760558916,
0.045586034912718204,0.018279930959596704,
0.0456359102244389,0.0036323458751283044,
0.0456857855361596,0.0005319226830151039,
0.0457356608478803,0.01805274669912381,
0.045785536159601,-0.010132267388200597,
0.045835411471321696,-0.017839648747678342,
0.04588528678304239,0.00035247736328060993,
0.045935162094763095,-0.01410151181329643,
0.04598503740648379,0.006533925260346253,
0.046034912718204486,0.01651284435645143,
0.04608478802992519,0.02993863810670192,
0.046134663341645885,-0.011733865312771471,
0.04618453865336658,0.004530113945101956,
0.04623441396508728,-0.014315824033628258,
0.04628428927680798,0.006546329884405937,
0.04633416458852868,-0.0006416302023056677,
0.04638403990024938,0.0016223074271015372,
0.04643391521197007,-0.015714570583810403,
0.046483790523690775,-0.010017538473467646,
0.04653366583541147,-0.0053056358969283835,
0.04658354114713217,0.006788290016151266,
0.04663341645885287,-0.01285648410317337,
0.046683291770573565,-0.01663044784507482,
0.04673316708229427,-0.0041608889302119575,
0.04678304239401496,-0.023258517926706135,
0.04683291770573566,-0.00593955919649955,
0.04688279301745636,-0.00963463203000542,
0.04693266832917706,-0.009947203511746416,
0.04698254364089775,-0.013661651489630658,
0.047032418952618456,0.017684888156881122,
0.04708229426433915,-0.0014480235064925988,
0.04713216957605985,0.011857036445685665,
0.04718204488778055,0.007794145456977273,
0.047231920199501246,0.019000478463570447,
0.04728179551122195,-0.0017870704118370705,
0.047331670822942644,0.027251251556962112,
0.04738154613466334,-0.01897698051320841,
0.04743142144638404,-0.014436604476978152,
0.04748129675810474,-0.021371079585817757,
0.047531172069825434,-0.013729015692917866,
0.047581047381546136,-0.02435694566777353,
0.04763092269326683,-0.019431756639721347,
0.047680798004987535,0.0017619750559367889,
0.04773067331670823,-0.014265938721299148,
0.047780548628428926,-0.04464596546819058,
0.04783042394014963,0.018051937336098018,
0.047880299251870324,-0.01973030676704398,
0.04793017456359102,-0.01049054505645071,
0.04798004987531172,-0.01266678286282322,
0.04802992518703242,0.0041608083527271186,
0.048079800498753114,-0.00575812710721276,
0.04812967581047382,0.008590348613928694,
0.04817955112219451,-0.016127497728710537,
0.048229426433915215,-0.010194002323450893,
0.04827930174563591,0.012044023933953554,
0.048329177057356607,-0.020254094664955723,
0.04837905236907731,-0.013959312279058101,
0.048428927680798005,-0.0005613356775546353,
0.0484788029925187,-0.012680689347491387,
0.0485286783042394,-0.030437187857805633,
0.0485785536159601,-0.02634621084903234,
0.048628428927680795,-0.016048136927904792,
0.0486783042394015,-0.00018039468016221166,
0.04872817955112219,-0.0018287166994284607,
0.048778054862842896,-0.021460808807870844,
0.04882793017456359,-0.012010941929890585,
0.04887780548628429,-0.02093547408275182,
0.04892768079800499,-0.0018541984097728038,
0.048977556109725685,-0.016047879096708573,
0.04902743142144638,-0.019873560856136938,
0.049077306733167084,-0.002850733232118664,
0.04912718204488778,-0.03077681152853648,
0.04917705735660848,0.010851251080178256,
0.04922693266832918,-0.016523322659987492,
0.04927680798004987,-0.030730206596478404,
0.049326683291770576,-0.012980055438450617,
0.04937655860349127,-0.009874627918363688,
0.04942643391521197,-0.011877588886301846,
0.04947630922693267,-0.036960233559075684,
0.049526184538653366,-0.00909456404428428,
0.04957605985037406,-0.02682152434507687,
0.049625935162094764,-0.030297801384078334,
0.04967581047381546,-0.027499129379287002,
0.04972568578553616,-0.03383224555617509,
0.04977556109725686,0.0025260370723985733,
0.049825436408977554,-0.014594231781528593,
0.04987531172069826,-0.02429245101810166,
0.04992518703241895,-0.015010137199686564,
0.04997506234413965,-0.030859214104065644,
0.05002493765586035,-0.02197407229869621,
0.050074812967581046,-0.021714983414068415,
0.05012468827930175,0.004010542449136439,
0.050174563591022445,-0.03270834742684928,
0.05022443890274314,0.008925656703952876,
0.05027431421446384,0.002461913588657768,
0.05032418952618454,-0.0167115587809828,
0.050374064837905234,-0.028621536964405534,
0.05042394014962594,-0.03346112243751119,
0.05047381546134663,-0.012396540653291144,
0.05052369077306733,-0.03133334533666349,
0.05057356608478803,-0.02952349007136085,
0.05062344139650873,-0.020933561480072995,
0.05067331670822943,-0.003785394922795459,
0.050723192019950125,-0.01453238657412702,
0.05077306733167082,-0.023230467556057708,
0.050822942643391524,-0.04101237266130195,
0.05087281795511222,-0.005146116214623124,
0.050922693266832915,-0.002564406514247667,
0.05097256857855362,-0.026111071661784117,
0.05102244389027431,-0.005651275346547937,
0.051072319201995016,-0.024932231090569273,
0.05112219451371571,-0.017489741342921607,
0.05117206982543641,0.010907148538194456,
0.05122194513715711,-0.004763619902248457,
0.051271820448877806,-0.02810161885300253,
0.0513216957605985,0.0012187886319023136,
0.051371571072319204,-0.03340497868876496,
0.0514214463840399,-0.013374640058021588,
0.051471321695760595,-0.003109933860440414,
0.0515211970074813,0.020490072742068717,
0.051571072319201994,-0.015136989692844079,
0.051620947630922696,-0.033645044847119956,
0.05167082294264339,-0.02284461077910136,
0.05172069825436409,-0.05625191755906154,
0.05177057356608479,-0.024531139470469657,
0.051820448877805486,-0.039790238955818624,
0.05187032418952618,-0.018045670791240042,
0.051920199501246884,0.016664941318851094,
0.05197007481296758,-0.014038820065095312,
0.052019950124688276,-0.02416962139089554,
0.05206982543640898,-0.010037810557998626,
0.052119700748129674,-0.024315119838189823,
0.05216957605985038,-0.037614246577221844,
0.05221945137157107,-0.004614233756393037,
0.05226932668329177,0.005475468743649769,
0.05231920199501247,-0.012486116328878515,
0.05236907730673317,-0.015187251199408943,
0.05241895261845386,-0.005040835666180316,
0.052468827930174565,-0.019897129072899294,
0.05251870324189526,-0.006158429721643877,
0.05256857855361596,-0.006790894355450788,
0.05261845386533666,-0.0033300175692699014,
0.052668329177057355,-0.03230916868816122,
0.05271820448877806,0.002778914345763779,
0.05276807980049875,-0.019807613498508566,
0.05281795511221945,-0.0027768119050135247,
0.05286783042394015,-0.023105170086425812,
0.05291770573566085,-0.004313207483662728,
0.05296758104738154,-0.008567746218041388,
0.053017456359102245,-0.003731360476504705,
0.05306733167082294,-0.008806796370717136,
0.053117206982543644,0.007395234449700135,
0.05316708229426434,-0.0013262399301060962,
0.053216957605985035,-0.02900385609545347,
0.05326683291770574,-0.019787930286277858,
0.053316708229426434,0.01590043112389132,
0.05336658354114713,-0.012635768398378534,
0.05341645885286783,-0.004383169266618674,
0.05346633416458853,0.015047942978853313,
0.05351620947630923,-0.019054428546543684,
0.053566084788029926,-0.009854019481984898,
0.05361596009975062,-0.026275813327443005,
0.053665835411471324,-0.008682754088340891,
0.05371571072319202,-0.022624331919696296,
0.053765586034912716,-0.02702242704808073,
0.05381546134663342,-0.009910694313172794,
0.053865336658354114,-0.007481992734595119,
0.05391521197007481,0.0042787942926376605,
0.05396508728179551,-0.004114899525748769,
0.05401496259351621,-0.014995475069551702,
0.05406483790523691,-0.018018173317061865,
0.054114713216957606,0.02343558533091599,
0.0541645885286783,-0.004328923486228115,
0.054214463840399005,-0.012211928868619961,
0.0542643391521197,0.0013498567532675117,
0.054314214463840396,-0.004218768955121731,
0.0543640897755611,0.0015666602194040922,
0.054413965087281795,-0.004814554326922334,
0.0544638403990025,0.008718368838692425,
0.05451371571072319,0.010710793968385066,
0.05456359102244389,-0.0006925964507729669,
0.05461346633416459,0.007832138097685628,
0.05466334164588529,-0.018529340825598768,
0.05471321695760598,0.000616571273513397,
0.054763092269326685,0.005064806970694539,
0.05481296758104738,-0.009919333268446164,
0.05486284289276808,0.027178828701135575,
0.05491271820448878,-0.011974433576169287,
0.054962593516209475,0.002180463418349574,
0.05501246882793018,0.0011715356190111102,
0.05506234413965087,-0.02310316634014674,
0.05511221945137157,-0.01906345780091354,
0.05516209476309227,-0.018932272227786782,
0.05521197007481297,-0.023297896181768203,
0.05526184538653366,0.0027880739561744403,
0.055311720698254366,-0.006998842438120467,
0.05536159600997506,0.024519564768957836,
0.05541147132169576,0.026173032729684454,
0.05546134663341646,-0.004025822594727143,
0.055511221945137156,-0.002965531967373698,
0.05556109725685786,0.0019435247865548155,
0.055610972568578554,-0.006548249332774503,
0.05566084788029925,0.016455559593735288,
0.05571072319201995,-0.018258143887824388,
0.05576059850374065,0.0196923057909975,
0.055810473815461344,0.005574811709753736,
0.055860349127182046,-0.008707055168223878,
0.05591022443890274,0.007529730093479646,
0.055960099750623445,0.01441713641347148,
0.05600997506234414,0.019614975577462963,
0.056059850374064836,0.0013083023413252952,
0.05610972568578554,0.00526490850304444,
0.056159600997506234,0.0066757313812429815,
0.05620947630922693,0.02537371820544462,
0.05625935162094763,0.011068071045729606,
0.05630922693266833,0.02886993783829873,
0.056359102244389024,0.010956246831398318,
0.05640897755610973,0.0037143703233257505,
0.05645885286783042,0.02375817793552646,
0.056508728179551125,0.03950082677996339,
0.05655860349127182,-0.026483377318798088,
0.056608478802992516,0.03482703764792325,
0.05665835411471322,-0.008250540107472684,
0.056708229426433915,-0.007242710447411656,
0.05675810473815461,-0.008465052444022963,
0.05680798004987531,0.020256724594191762,
0.05685785536159601,0.008185294339669283,
0.05690773067331671,0.024973758391385423,
0.05695760598503741,-0.0074750432073779,
0.0570074812967581,0.014701106929146585,
0.057057356608478806,0.012163096717083417,
0.0571072319201995,-0.0022213092743849326,
0.0571571072319202,-0.012138546502192347,
0.0572069825436409,0.022293276558048223,
0.057256857855361595,-0.008014421358715298,
0.05730673316708229,-0.021772280370771877,
0.057356608478802994,-0.001742835900822302,
0.05740648379052369,-0.001851571499859924,
0.05745635910224439,0.011616631207779431,
0.05750623441396509,0.016586077554742756,
0.05755610972568578,0.016980993865794165,
0.057605985037406486,-0.008189669974646308,
0.05765586034912718,0.030825351039236233,
0.05770573566084788,0.03326503742085285,
0.05775561097256858,0.014219617878527244,
0.057805486284289276,0.013393191451678266,
0.05785536159600998,0.01752869116672195,
0.057905236907730674,0.018549275402876007,
0.05795511221945137,-0.005883902393053225,
0.05800498753117207,0.025622552927946123,
0.05805486284289277,0.030432875244582942,
0.058104738154613464,0.01713148672997868,
0.05815461346633417,0.03726533964894005,
0.05820448877805486,-0.005911900811964521,
0.05825436408977556,0.009450324718587156,
0.05830423940149626,0.022598242456695346,
0.058354114713216956,0.013813944544257046,
0.05840399002493766,0.0060706446976310415,
0.058453865336658355,0.012911627025896107,
0.05850374064837905,0.02749590236428635,
0.05855361596009975,0.026016902580288916,
0.05860349127182045,0.02520517079792192,
0.058653366583541144,0.013297239451083907,
0.05870324189526185,0.011781871959578685,
0.05875311720698254,0.03989432805192224,
0.05880299251870324,0.031618668980973035,
0.05885286783042394,0.03654449823144725,
0.05890274314214464,0.024721516960715957,
0.05895261845386534,0.020565697677795022,
0.059002493765586035,0.014974254544666946,
0.05905236907730673,0.024255123853930367,
0.059102244389027433,0.008358662501662025,
0.05915211970074813,0.0036109263949970598,
0.059201995012468825,0.020268777978665792,
0.05925187032418953,0.033347021244869574,
0.05930174563591022,0.021183235912903838,
0.059351620947630926,0.021217762345784937,
0.05940149625935162,0.015202222124304176,
0.05945137157107232,0.03797594629623208,
0.05950124688279302,0.007534488446882686,
0.059551122194513716,0.0003965526689402206,
0.05960099750623441,0.027067730256506627,
0.059650872817955114,0.028984903610180614,
0.05970074812967581,0.0290065161632828,
0.059750623441396505,-0.00214821027554489,
0.05980049875311721,0.014790928604443967,
0.059850374064837904,0.023516822394571733,
0.059900249376558606,0.03749693407095695,
0.0599501246882793,0.023703134133875495,
0.06,0.021100707788681002,
0.0600498753117207,0.01969665078336821,
0.060099750623441396,0.00034848966456643704,
0.06014962593516209,0.033733323612817195,
0.060199501246882794,0.014385183979582121,
0.06024937655860349,0.03340453649092674,
0.06029925187032419,0.03638273738806404,
0.06034912718204489,0.014179793137189372,
0.060399002493765584,0.042486950137045815,
0.06044887780548629,0.006044119137166872,
0.06049875311720698,0.004642564249568774,
0.06054862842892768,0.026201600926903525,
0.06059850374064838,0.026657670377472634,
0.06064837905236908,0.020518341287888556,
0.06069825436408977,0.03214157252161219,
0.060748129675810475,0.0074869884267757016,
0.06079800498753117,0.041247616047779725,
0.06084788029925187,0.0011621482341370726,
0.06089775561097257,0.05156087001068495,
0.060947630922693265,0.03209866718223659,
0.06099750623441397,0.03229173277412482,
0.06104738154613466,0.026707834415809692,
0.06109725685785536,0.032919337685601624,
0.06114713216957606,0.04599127507145268,
0.06119700748129676,0.036763147017425814,
0.06124688279301746,0.04674550745542989,
0.061296758104738155,0.019509104310812205,
0.06134663341645885,0.03456311578928699,
0.061396508728179554,0.007177837210825103,
0.06144638403990025,0.052570469910296944,
0.061496259351620945,0.022278149626018474,
0.06154613466334165,0.027224033115097156,
0.061596009975062344,0.023569023912950057,
0.06164588528678304,0.03805415802622483,
0.06169576059850374,0.014586010322101604,
0.06174563591022444,0.05474571100701785,
0.06179551122194514,0.007432350346973128,
0.061845386533665836,0.00542751992873116,
0.06189526184538653,0.00010101986371689048,
0.061945137157107234,0.03325403850341387,
0.06199501246882793,0.00885713248554948,
0.062044887780548626,0.03670617442380764,
0.06209476309226933,0.03185583121005803,
0.062144638403990024,0.019594223563621668,
0.06219451371571072,0.010990105823574127,
0.06224438902743142,0.03733207616050717,
0.06229426433915212,0.014342027130421564,
0.06234413965087282,-0.020240839966072628,
0.062394014962593516,0.02670725742437851,
0.06244389027431421,0.03435410948511043,
0.062493765586034915,0.033407255120283766,
0.06254364089775562,0.0171863784565661,
0.06259351620947631,-0.018842852255870277,
0.06264339152119701,0.012317638234290018,
0.0626932668329177,0.0071337690769205184,
0.0627431421446384,0.04756947028385007,
0.0627930174563591,0.012757227949892763,
0.0628428927680798,0.026415260807317997,
0.0628927680798005,0.021218282719559632,
0.0629426433915212,0.009081112884567817,
0.06299251870324189,0.019124138692426827,
0.06304239401496259,0.03586486651156934,
0.0630922693266833,0.027068651975062953,
0.063142144638404,0.013254935001438449,
0.06319201995012469,0.03965035051439688,
0.06324189526184539,0.018094862517023254,
0.06329177057356608,0.021517271179593674,
0.06334164588528678,0.013218549378042215,
0.06339152119700749,0.018747180505285066,
0.06344139650872818,0.021145206774559267,
0.06349127182044888,0.046080445489609434,
0.06354114713216957,0.03684354719911914,
0.06359102244389027,0.02457168472834645,
0.06364089775561098,0.018373782648699634,
0.06369077306733167,0.024406752723285723,
0.06374064837905237,-0.003281444498477941,
0.06379052369077307,-0.01361414945697123,
0.06384039900249376,0.04291759820536982,
0.06389027431421446,0.023756562886844322,
0.06394014962593517,0.02150751109310143,
0.06399002493765586,-0.010374695905939422,
0.06403990024937656,0.01888336100173354,
0.06408977556109725,0.0058935213409266225,
0.06413965087281795,0.0067516468898010384,
0.06418952618453866,0.008049741525817566,
0.06423940149625935,0.03407120940655402,
0.06428927680798005,0.02982478761301365,
0.06433915211970075,0.02190923534148384,
0.06438902743142144,0.019233427861900795,
0.06443890274314215,0.02425940898097878,
0.06448877805486285,0.004921762862047084,
0.06453865336658354,0.02553615068596069,
0.06458852867830424,0.03404008808643803,
0.06463840399002493,0.019042861315909668,
0.06468827930174563,0.005683773949092956,
0.06473815461346634,0.007112726259391762,
0.06478802992518704,-0.014337856440034807,
0.06483790523690773,0.007683509029860662,
0.06488778054862843,0.01154687700649402,
0.06493765586034912,-0.0026054068014968942,
0.06498753117206983,0.004829959300747757,
0.06503740648379053,0.011943072693645852,
0.06508728179551122,0.031856796327856984,
0.06513715710723192,0.009040387970674052,
0.06518703241895261,0.021243929837064763,
0.06523690773067331,0.013505828527322364,
0.06528678304239402,0.011391390620011894,
0.06533665835411472,0.025203402238091352,
0.06538653366583541,0.0008368062149105987,
0.06543640897755611,0.0172039771656908,
0.0654862842892768,0.017657357132707115,
0.06553615960099751,0.011818661009251028,
0.06558603491271821,0.017752513025378787,
0.0656359102244389,-0.003974814483556614,
0.0656857855361596,-0.005855816695276816,
0.0657356608478803,0.0002972904460338821,
0.06578553615960099,0.0037128901015438236,
0.0658354114713217,-0.007290511944122128,
0.0658852867830424,-0.0030776050862326926,
0.06593516209476309,-0.0006622818625300077,
0.06598503740648379,0.020661162550617333,
0.06603491271820448,-0.004892874393230707,
0.06608478802992519,-0.012236522852433157,
0.06613466334164589,0.02785433731686555,
0.06618453865336658,0.026699068723099982,
0.06623441396508728,0.011881411270752373,
0.06628428927680798,0.02200005451693816,
0.06633416458852869,0.024237094933415804,
0.06638403990024938,0.013186641678066203,
0.06643391521197008,-0.01659042984159336,
0.06648379052369077,0.022933977625212137,
0.06653366583541147,-0.013716967129085766,
0.06658354114713216,-0.023586807188795054,
0.06663341645885287,0.003571966562006765,
0.06668329177057357,-0.026033891230474712,
0.06673316708229426,-0.008564600750173608,
0.06678304239401496,0.002920649402328785,
0.06683291770573566,-0.015159761751448331,
0.06688279301745637,0.002448571940373385,
0.06693266832917706,-0.006033081449658468,
0.06698254364089776,0.0242311017350477,
0.06703241895261845,-0.030249662428673843,
0.06708229426433915,-0.0034494459690137583,
0.06713216957605984,-0.0010600363156392165,
0.06718204488778055,0.013033456958023801,
0.06723192019950125,0.025496285970047543,
0.06728179551122195,0.008399285506916815,
0.06733167082294264,-0.005974008626091659,
0.06738154613466334,-0.003631225313769841,
0.06743142144638405,-0.019626664663738108,
0.06748129675810474,-0.016086375723639294,
0.06753117206982544,-0.008657573923901346,
0.06758104738154613,0.015360778689870744,
0.06763092269326683,-0.029987395055737772,
0.06768079800498752,0.008459654254591314,
0.06773067331670823,-0.0014663944499046146,
0.06778054862842893,-0.009689940377174184,
0.06783042394014963,-0.012484538446964693,
0.06788029925187032,0.009546296837433809,
0.06793017456359102,-0.017763823868702847,
0.06798004987531173,-0.016440661868675197,
0.06802992518703242,-0.009028192508979219,
0.06807980049875312,-0.026858047762296,
0.06812967581047381,-0.03786166088769902,
0.06817955112219451,-0.011718355172016028,
0.0682294264339152,-0.010612559048905883,
0.06827930174563591,0.009316193747514693,
0.06832917705735661,-0.030423586093940885,
0.0683790523690773,0.004057524852550589,
0.068428927680798,-0.010378057261943595,
0.0684788029925187,0.018699183313239616,
0.06852867830423941,0.0016151470194684138,
0.0685785536159601,0.00384371996589288,
0.0686284289276808,-0.009140169080945403,
0.0686783042394015,-0.031556778536698686,
0.06872817955112219,-0.029100168825062396,
0.0687780548628429,0.01780661942315396,
0.0688279301745636,0.00634943892645513,
0.06887780548628429,-0.0009492901592257474,
0.06892768079800499,-0.01456814198768155,
0.06897755610972568,0.008210425625228654,
0.06902743142144638,0.004880040496100357,
0.06907730673316709,-0.0356617256218089,
0.06912718204488778,-0.025145618398872166,
0.06917705735660848,-0.012823962195193874,
0.06922693266832917,-0.005565624522481611,
0.06927680798004987,0.0034734228843521283,
0.06932668329177058,-0.012751948449654025,
0.06937655860349128,-0.008524558673239537,
0.06942643391521197,-0.01194868394382183,
0.06947630922693267,0.00970321140994436,
0.06952618453865336,0.009857269451924732,
0.06957605985037406,-0.013600711094945869,
0.06962593516209477,-0.022237780647001174,
0.06967581047381546,-0.018507188095237784,
0.06972568578553616,-0.013024528323731776,
0.06977556109725686,-0.04249797528664762,
0.06982543640897755,-0.028539229126447782,
0.06987531172069826,0.006039523857842302,
0.06992518703241896,0.002366034764619683,
0.06997506234413965,-0.01014224446187967,
0.07002493765586035,-0.008337069111705273,
0.07007481296758104,-0.015227380169686323,
0.07012468827930174,-0.01214454687918481,
0.07017456359102245,0.003449381338891621,
0.07022443890274314,-0.004504364919562529,
0.07027431421446384,-0.03422147805324525,
0.07032418952618454,-0.015166016887189682,
0.07037406483790523,-0.013587655556092171,
0.07042394014962594,-0.009307804112408788,
0.07047381546134664,-0.017733161891962813,
0.07052369077306733,-0.029974051833588117,
0.07057356608478803,-0.007317960697642074,
0.07062344139650872,-0.014727727449302513,
0.07067331670822943,-0.021998134271331155,
0.07072319201995013,0.0007180401256780319,
0.07077306733167082,-0.020018900081834497,
0.07082294264339152,-0.01900928716054541,
0.07087281795511222,-0.015222904916968759,
0.07092269326683291,-0.013342140673898795,
0.07097256857855362,-0.007607472222846197,
0.07102244389027432,-0.006139067988448994,
0.07107231920199501,-0.034230869399219224,
0.07112219451371571,-0.003091228674437266,
0.0711720698254364,-0.020473239787736977,
0.07122194513715711,-0.02625705070034999,
0.07127182044887781,-0.04822471172426132,
0.0713216957605985,-0.0369419442888448,
0.0713715710723192,0.014514225170682363,
0.0714214463840399,0.003963682365275549,
0.07147132169576059,-0.021764868992032463,
0.0715211970074813,-0.01871801621010931,
0.071571072319202,-0.019683891721129894,
0.0716209476309227,-0.01073040584127758,
0.07167082294264339,-0.0376664954490889,
0.07172069825436408,-0.03313918140151388,
0.0717705735660848,8.985742092461682e-05,
0.07182044887780549,-0.0007296282332509511,
0.07187032418952619,0.005118175582144521,
0.07192019950124688,-0.008983224651799678,
0.07197007481296758,-0.027162094056302717,
0.07201995012468827,-0.004153856635335884,
0.07206982543640898,0.005402079687662067,
0.07211970074812968,-0.012157188139876053,
0.07216957605985037,-0.03106567811740378,
0.07221945137157107,0.010512287168530787,
0.07226932668329177,-0.001314652281306141,
0.07231920199501247,-0.033974941371459434,
0.07236907730673317,-0.024870869928703666,
0.07241895261845387,0.0028125564069351756,
0.07246882793017456,-0.0008539833306620594,
0.07251870324189526,-0.04471966002643023,
0.07256857855361595,-0.027335511658737936,
0.07261845386533666,-0.012647183638326323,
0.07266832917705736,-0.01204786340767843,
0.07271820448877805,-0.0028159653027936566,
0.07276807980049875,-0.018029928692032363,
0.07281795511221945,-0.018036570790252036,
0.07286783042394016,-0.01918299947199187,
0.07291770573566085,0.01762629355346611,
0.07296758104738155,-0.025926865032757478,
0.07301745635910224,-0.03485087410560473,
0.07306733167082294,-0.032875451702189244,
0.07311720698254365,-0.005392418965981248,
0.07316708229426434,0.01701298269663093,
0.07321695760598504,-0.023739245673860286,
0.07326683291770573,0.0024046725240541456,
0.07331670822942643,-0.014093983834245028,
0.07336658354114713,-0.009423405657628928,
0.07341645885286784,-0.021846567597864797,
0.07346633416458853,-0.03382844378216196,
0.07351620947630923,-0.005389190149810605,
0.07356608478802992,-0.004816524070357072,
0.07361596009975062,-0.037535632442772554,
0.07366583541147133,-0.0072304120372984485,
0.07371571072319202,-0.030776040182882967,
0.07376558603491272,-0.0024039534686259895,
0.07381546134663342,-0.01578246359673089,
0.07386533665835411,0.001566295615135483,
0.0739152119700748,-0.009828888629062102,
0.07396508728179552,0.011494511052876591,
0.07401496259351621,-0.02854447653917604,
0.07406483790523691,-0.02374679085235518,
0.0741147132169576,-0.01824469741073468,
0.0741645885286783,0.01663464411304602,
0.07421446384039901,-0.01619233384014928,
0.0742643391521197,0.01762307674206593,
0.0743142144638404,0.0030242441520039404,
0.0743640897755611,0.0051905056411201776,
0.07441396508728179,0.0169410771941367,
0.07446384039900249,-0.0018622043833556954,
0.0745137157107232,0.0022120704509506492,
0.07456359102244389,-0.028152160754454238,
0.07461346633416459,0.0022001239916732344,
0.07466334164588528,0.009111963963274398,
0.07471321695760598,-0.0062464198884909705,
0.07476309226932669,-0.012320436589422248,
0.07481296758104738,0.007297078642630269,
0.07486284289276808,-0.016063671194706627,
0.07491271820448878,-0.009509766820922659,
0.07496259351620947,-0.013141700094546366,
0.07501246882793017,-0.01099960224456429,
0.07506234413965088,0.03317074857305986,
0.07511221945137157,-0.01650734401885436,
0.07516209476309227,0.0018937976418055083,
0.07521197007481296,0.03776333314923019,
0.07526184538653366,0.02416669383110567,
0.07531172069825437,0.0054879227844219485,
0.07536159600997507,0.0037153930602321704,
0.07541147132169576,-0.01836489666725578,
0.07546134663341646,-0.007066880739736884,
0.07551122194513715,0.015263023892440412,
0.07556109725685786,0.0017289936054025257,
0.07561097256857856,0.01543536723840759,
0.07566084788029925,-0.007487117396895335,
0.07571072319201995,-0.025234564542867058,
0.07576059850374064,-0.004420585762873764,
0.07581047381546134,-0.006313661962657321,
0.07586034912718205,0.00804255372117846,
0.07591022443890275,0.009103244438658897,
0.07596009975062344,0.008861220623306805,
0.07600997506234414,0.01284132079830034,
0.07605985037406483,0.009832017170221176,
0.07610972568578554,0.011372978773398624,
0.07615960099750624,-0.0055893582660319855,
0.07620947630922693,-0.017356509483657648,
0.07625935162094763,0.018586818317324522,
0.07630922693266833,0.01415871935031019,
0.07635910224438902,0.03997143403230345,
0.07640897755610973,0.013405354617829024,
0.07645885286783043,0.027091585482273403,
0.07650872817955112,0.005890072746930738,
0.07655860349127182,-0.0019854659245760135,
0.07660847880299251,0.04117325386680018,
0.07665835411471322,0.01903909577226767,
0.07670822942643392,0.0009359340473065834,
0.07675810473815461,0.008875175064435126,
0.07680798004987531,0.004895027009478666,
0.076857855361596,-0.008906798443562344,
0.0769077306733167,0.0020932590182842856,
0.07695760598503741,0.0104121325991638,
0.0770074812967581,0.02459576895325916,
0.0770573566084788,5.24467159106895e-06,
0.0771072319201995,0.027928788710727376,
0.0771571072319202,0.042676743682728266,
0.0772069825436409,0.03309145279902705,
0.0772568578553616,0.012118667795645388,
0.0773067331670823,0.02204266335647104,
0.07735660847880299,0.013889756670993306,
0.07740648379052369,-0.0011554768377316608,
0.0774563591022444,-0.003265040211824284,
0.07750623441396509,0.010665963690069521,
0.07755610972568579,0.03305486370940751,
0.07760598503740648,0.04792232781435658,
0.07765586034912718,0.0067158598861869825,
0.07770573566084787,0.006965659368836544,
0.07775561097256858,0.02103807214835378,
0.07780548628428928,0.0170994274409753,
0.07785536159600998,0.005447493253766455,
0.07790523690773067,0.004929522310411109,
0.07795511221945137,0.016059435745574932,
0.07800498753117208,0.013343618173859977,
0.07805486284289277,0.027010706665218764,
0.07810473815461347,0.004876964825150633,
0.07815461346633416,0.01506630351771087,
0.07820448877805486,0.026027121973655164,
0.07825436408977555,0.0486378509673234,
0.07830423940149626,0.010259361250956226,
0.07835411471321696,0.010547644902537848,
0.07840399002493766,0.023882632276254968,
0.07845386533665835,0.043069064671808106,
0.07850374064837905,0.04682896548637612,
0.07855361596009976,0.026393439562305377,
0.07860349127182045,-0.006381941094978805,
0.07865336658354115,0.03527470119434817,
0.07870324189526184,0.04334327839120424,
0.07875311720698254,-0.004109351558072533,
0.07880299251870324,0.012395088950746626,
0.07885286783042394,0.023826961061755057,
0.07890274314214464,0.03807834263328193,
0.07895261845386534,0.02910245867874898,
0.07900249376558603,0.043900431462404355,
0.07905236907730673,0.04122425873636834,
0.07910224438902744,0.021251317803814153,
0.07915211970074813,0.03832513455059536,
0.07920199501246883,0.0263121903327105,
0.07925187032418952,0.02040606367521891,
0.07930174563591022,0.0228056841382481,
0.07935162094763092,0.026234292754805436,
0.07940149625935163,0.028653842051456532,
0.07945137157107232,0.0255037417455961,
0.07950124688279302,-0.020492473118798017,
0.07955112219451371,0.029808342262391634,
0.07960099750623441,0.025383088279630497,
0.07965087281795512,0.0237388748814016,
0.07970074812967581,-0.0018633873889069182,
0.07975062344139651,0.010420719911960538,
0.0798004987531172,-0.01593329989503471,
0.0798503740648379,0.02967872668694816,
0.07990024937655861,0.009578770705697133,
0.0799501246882793,0.017862223824737324,
0.08,0.034860754133464046,
0.0800498753117207,0.047082490706383706,
0.0800997506234414,0.01688799466867585,
0.08014962593516209,0.028391326261542643,
0.0801995012468828,0.033717861562880355,
0.0802493765586035,0.01051884730421817,
0.08029925187032419,0.037764071831962565,
0.08034912718204489,0.012154777086717748,
0.08039900249376558,0.010152483637056016,
0.08044887780548629,0.035947181348646995,
0.08049875311720699,0.03895227302229356,
0.08054862842892768,0.04507557430878663,
0.08059850374064838,0.023351524479590623,
0.08064837905236907,0.02227408916438359,
0.08069825436408977,0.010908040659283934,
0.08074812967581048,0.03294496691622306,
0.08079800498753117,0.039044534195163856,
0.08084788029925187,0.0387415397594476,
0.08089775561097257,0.01009097353559128,
0.08094763092269326,0.023401947578760043,
0.08099750623441397,0.023033485447984434,
0.08104738154613467,0.02100725336084034,
0.08109725685785536,0.0035986192470428002,
0.08114713216957606,0.019630917984076842,
0.08119700748129675,0.0380759232462302,
0.08124688279301745,0.030239406716952404,
0.08129675810473816,0.009570634540907029,
0.08134663341645886,0.022366234163025002,
0.08139650872817955,0.03503173925750506,
0.08144638403990025,0.02939822876038393,
0.08149625935162094,0.014736321072009255,
0.08154613466334165,0.03305144026541952,
0.08159600997506235,-0.012479846386201535,
0.08164588528678304,0.03489036743945747,
0.08169576059850374,0.01886427794315087,
0.08174563591022443,0.01965978772687065,
0.08179551122194513,0.009001283724399723,
0.08184538653366584,0.001307439212263492,
0.08189526184538654,0.015088008275472367,
0.08194513715710723,0.03656941422847727,
0.08199501246882793,0.05498364681647134,
0.08204488778054862,0.04626237826992288,
0.08209476309226933,0.012442812335380504,
0.08214463840399003,0.017558674808331915,
0.08219451371571072,0.020866060528155993,
0.08224438902743142,0.007546966513215934,
0.08229426433915212,0.011838296373580675,
0.08234413965087282,0.03891964674646679,
0.08239401496259352,-0.005323753383638982,
0.08244389027431422,-0.005549161066351133,
0.08249376558603491,0.014311805346625581,
0.08254364089775561,0.050373105910399035,
0.0825935162094763,0.03639755327371825,
0.08264339152119701,-0.0030755857382872044,
0.08269326683291771,0.012054471025435139,
0.0827431421446384,0.03504410337177808,
0.0827930174563591,0.0009962151896484618,
0.0828428927680798,0.014026211608537868,
0.0828927680798005,0.039353407437898794,
0.0829426433915212,0.016976637002488523,
0.0829925187032419,0.006464688133052277,
0.08304239401496259,0.027712403268208157,
0.08309226932668329,0.018882379431811196,
0.08314214463840398,0.03791202133193117,
0.0831920199501247,0.017817904090706233,
0.08324189526184539,0.02009693505697401,
0.08329177057356608,0.04038928347119085,
0.08334164588528678,0.02551699536042251,
0.08339152119700748,0.0006046615065981621,
0.08344139650872819,0.04271596928181003,
0.08349127182044888,0.02968125083280375,
0.08354114713216958,0.002449117175444663,
0.08359102244389027,0.01966426371084454,
0.08364089775561097,0.014098486479177719,
0.08369077306733166,0.015872243235279773,
0.08374064837905237,0.011677039538260284,
0.08379052369077307,-0.01778090385177478,
0.08384039900249377,-0.0033970711089079154,
0.08389027431421446,0.04616020410193494,
0.08394014962593516,0.0048672045505884255,
0.08399002493765587,0.0012042621501927447,
0.08403990024937656,0.016549807523436495,
0.08408977556109726,0.04614744331584246,
0.08413965087281795,0.02467791956672512,
0.08418952618453865,-0.0020588003028081253,
0.08423940149625936,-0.0067316153754736,
0.08428927680798005,0.0056388372229918375,
0.08433915211970075,0.019149507365712304,
0.08438902743142145,0.037262904185574125,
0.08443890274314214,0.0002630509122360878,
0.08448877805486284,0.02384664516480407,
0.08453865336658355,0.0066490026448854265,
0.08458852867830424,-2.202121513543258e-05,
0.08463840399002494,-0.006770233893799613,
0.08468827930174563,0.011183852102551092,
0.08473815461346633,0.008509754815076542,
0.08478802992518704,-0.004461309280473027,
0.08483790523690773,0.0051321424730867106,
0.08488778054862843,0.031025752411970565,
0.08493765586034913,0.003025667255576849,
0.08498753117206982,0.011409630266189802,
0.08503740648379052,0.01524190997289261,
0.08508728179551123,-0.031029845531126716,
0.08513715710723192,0.009946200147616699,
0.08518703241895262,0.05061529233906112,
0.08523690773067331,-0.010807561427633965,
0.08528678304239401,0.0310432323967156,
0.08533665835411472,0.01557631435312188,
0.08538653366583542,0.013933914457132171,
0.08543640897755611,0.007444256659686004,
0.0854862842892768,0.009973878277508175,
0.0855361596009975,-0.0026741418152327837,
0.0855860349127182,0.018234624242095994,
0.08563591022443891,0.02055648332084569,
0.0856857855361596,0.0197177447004811,
0.0857356608478803,-0.010102655195891826,
0.085785536159601,-0.02624887453082834,
0.08583541147132169,-0.0040330920518444335,
0.0858852867830424,0.004016663209842585,
0.0859351620947631,-0.004958740667952978,
0.08598503740648379,0.030967171924846264,
0.08603491271820449,0.020077240634571905,
0.08608478802992518,0.02377881678859845,
0.08613466334164588,0.00845702057594926,
0.08618453865336659,-0.002686196445395485,
0.08623441396508728,0.023976359696428275,
0.08628428927680798,-0.017595854586363063,
0.08633416458852868,-0.004600023536660099,
0.08638403990024937,0.027356388118085058,
0.08643391521197008,0.050537895074469874,
0.08648379052369078,-0.02444830680816746,
0.08653366583541147,0.04153133091513553,
0.08658354114713217,-0.014539640234757355,
0.08663341645885286,0.007445082829488518,
0.08668329177057357,-0.024610196149076773,
0.08673316708229427,0.01257423856165217,
0.08678304239401496,-0.01686700309075507,
0.08683291770573566,0.006595438971576482,
0.08688279301745636,-0.009023301884903447,
0.08693266832917705,0.005942076042510938,
0.08698254364089776,-0.006331470383650436,
0.08703241895261846,-0.01663249130666815,
0.08708229426433915,-0.02641752475041105,
0.08713216957605985,-0.011315339771072658,
0.08718204488778054,0.026787486932623686,
0.08723192019950125,0.0009293392618814574,
0.08728179551122195,-0.015035383932307248,
0.08733167082294264,-0.024080001220841803,
0.08738154613466334,-0.005622385029527792,
0.08743142144638404,-0.005492350913155253,
0.08748129675810473,0.017910179865735988,
0.08753117206982544,-0.012366149626277153,
0.08758104738154614,0.025053998687765467,
0.08763092269326683,0.007817824620152155,
0.08768079800498753,-0.020710373124385735,
0.08773067331670822,-0.019808527031559744,
0.08778054862842893,-0.029624103907618486,
0.08783042394014963,-0.025630415164042297,
0.08788029925187033,-0.019176148046467625,
0.08793017456359102,0.007082980276388682,
0.08798004987531172,0.005169669024433554,
0.08802992518703241,-0.006517779938521722,
0.08807980049875312,-0.014012955355156259,
0.08812967581047382,-0.014934166618862326,
0.08817955112219451,-0.01204034112088017,
0.08822942643391521,0.016018179042828432,
0.0882793017456359,-0.011114202546928516,
0.08832917705735661,-0.018829965493058137,
0.08837905236907731,-0.018886410344553697,
0.088428927680798,-0.0028538514852258197,
0.0884788029925187,0.02097209911784283,
0.0885286783042394,0.0037391103119165606,
0.0885785536159601,-0.009179504714471978,
0.0886284289276808,0.00023756046454251507,
0.0886783042394015,0.004246577875322814,
0.0887281795511222,0.0033577820029726136,
0.08877805486284289,-0.006893701478260483,
0.08882793017456359,-0.01753307287971829,
0.0888778054862843,0.000815046517798906,
0.08892768079800499,-0.010242913466333417,
0.08897755610972569,-0.014474296460512097,
0.08902743142144638,-0.013166497309349295,
0.08907730673316708,-0.006701925732569209,
0.08912718204488779,-0.023148172647062246,
0.08917705735660848,-0.00400896680863193,
0.08922693266832918,0.0020226091632069565,
0.08927680798004987,-0.03943347572650909,
0.08932668329177057,-0.0020617067090627685,
0.08937655860349127,-0.007214180210886615,
0.08942643391521198,-0.018053895186111855,
0.08947630922693267,-0.0019153295429650188,
0.08952618453865337,0.013651423265397911,
0.08957605985037406,-0.023327178504001095,
0.08962593516209476,-0.0042868760985198436,
0.08967581047381547,-0.03287647821989353,
0.08972568578553616,-0.022837857663297458,
0.08977556109725686,0.001642798205549141,
0.08982543640897755,-0.0037008331929262936,
0.08987531172069825,-0.015290824657512053,
0.08992518703241895,-0.005365872419846743,
0.08997506234413966,-0.006940705240832728,
0.09002493765586035,-0.023408703533295445,
0.09007481296758105,0.010028014909302822,
0.09012468827930174,-0.02974945496417646,
0.09017456359102244,-0.009519965828234759,
0.09022443890274315,-0.026366046239933834,
0.09027431421446384,0.00392908425013137,
0.09032418952618454,0.003163603742993626,
0.09037406483790524,-0.02566137192944179,
0.09042394014962593,0.010698788042599982,
0.09047381546134663,-0.011504816034511325,
0.09052369077306734,-0.0030131373936353734,
0.09057356608478803,0.0013111940541963765,
0.09062344139650873,-0.01935500074081877,
0.09067331670822942,-0.002480039799548023,
0.09072319201995012,-0.03083486217561635,
0.09077306733167083,-0.01682575289952308,
0.09082294264339152,-0.04430482880228585,
0.09087281795511222,-0.021745029120860355,
0.09092269326683292,-0.012936124230011045,
0.09097256857855361,-0.001059013689503568,
0.09102244389027432,-0.012596138231488904,
0.09107231920199502,-0.023391066983712655,
0.09112219451371571,-0.022392824258156856,
0.09117206982543641,-0.015612062703795693,
0.0912219451371571,-0.01927481667631884,
0.0912718204488778,-0.02363397453756879,
0.09132169576059851,0.01050572194875489,
0.0913715710723192,-0.015688713700299502,
0.0914214463840399,-0.022461192187575016,
0.0914713216957606,0.010218640399379747,
0.09152119700748129,-0.01025976887321193,
0.091571072319202,0.01016464952304427,
0.0916209476309227,-0.008349449425281437,
0.09167082294264339,-0.013747627232348722,
0.09172069825436409,-0.02473762573539757,
0.09177057356608478,0.005421876053729364,
0.09182044887780548,-0.00034157978222825076,
0.09187032418952619,-0.02260172320083293,
0.09192019950124689,-0.036738418092732254,
0.09197007481296758,-0.013770527129024959,
0.09201995012468828,-0.02350304859647631,
0.09206982543640897,-0.045906120649058954,
0.09211970074812968,-0.00764673846853817,
0.09216957605985038,-0.00017958874198674077,
0.09221945137157107,-0.034346801853780966,
0.09226932668329177,-0.009553602887683515,
0.09231920199501246,-0.013072347645287936,
0.09236907730673316,0.015085588314488398,
0.09241895261845387,0.0036751124014195082,
0.09246882793017457,0.004116540784616117,
0.09251870324189526,-0.008414577043271783,
0.09256857855361596,0.00609435261847989,
0.09261845386533665,-0.035264809235433056,
0.09266832917705736,-0.02882340818228627,
0.09271820448877806,-0.017932457471997686,
0.09276807980049875,-0.016593413159783927,
0.09281795511221945,-0.0073317962154689775,
0.09286783042394015,0.000791094434372518,
0.09291770573566084,0.02045558880004918,
0.09296758104738155,-0.028975638221506863,
0.09301745635910225,-0.015715395274427498,
0.09306733167082294,-0.02292645090922721,
0.09311720698254364,-0.011471221837309701,
0.09316708229426433,0.008036903304284939,
0.09321695760598504,-0.001991966114365352,
0.09326683291770574,-0.010365693423688035,
0.09331670822942643,-0.0020839121353249095,
0.09336658354114713,0.013567520982011576,
0.09341645885286783,-0.014770642838474297,
0.09346633416458854,-0.01488979387049658,
0.09351620947630923,0.010107271950903133,
0.09356608478802993,0.001609095230389223,
0.09361596009975062,0.0017923734748016389,
0.09366583541147132,0.001177632275189815,
0.09371571072319201,-0.014095297269759357,
0.09376558603491272,-0.015880069318385277,
0.09381546134663342,-0.026263839416879375,
0.09386533665835411,-0.00481545079669918,
0.09391521197007481,-0.014534744178815805,
0.0939650872817955,-0.0011514297428546756,
0.09401496259351622,-0.0017348916313179718,
0.09406483790523691,-0.008031229481524512,
0.09411471321695761,-0.025932085897237143,
0.0941645885286783,-0.01626920980135883,
0.094214463840399,0.0007896368765565698,
0.0942643391521197,0.019875824781743837,
0.0943142144638404,-0.042513265561346714,
0.0943640897755611,-0.006734506034942793,
0.0944139650872818,0.009640972198967434,
0.09446384039900249,-0.018827375998033496,
0.09451371571072319,-0.0038343535156171093,
0.0945635910224439,0.0030967624021119747,
0.09461346633416459,-0.00752563057242112,
0.09466334164588529,0.01715468647087052,
0.09471321695760598,-0.015028956729581357,
0.09476309226932668,-0.004876487660784034,
0.09481296758104737,0.012660063555008233,
0.09486284289276808,-0.01774644581160159,
0.09491271820448878,0.00231447229957626,
0.09496259351620948,-0.004385250238740471,
0.09501246882793017,0.008693828477708963,
0.09506234413965087,0.015062127483364163,
0.09511221945137158,-0.0033748698814033183,
0.09516209476309227,-0.013850098385755138,
0.09521197007481297,-0.008429918027132314,
0.09526184538653366,0.0356802670226448,
0.09531172069825436,-0.0030698724624406105,
0.09536159600997507,-0.011211710845911703,
0.09541147132169576,0.02058672920559069,
0.09546134663341646,-0.008135770857726215,
0.09551122194513716,0.01599038881109477,
0.09556109725685785,0.010185106157163875,
0.09561097256857855,-0.00300909430626849,
0.09566084788029926,-0.01794208595778897,
0.09571072319201995,0.018627443258855285,
0.09576059850374065,0.006610331634801784,
0.09581047381546134,0.011595885477494568,
0.09586034912718204,0.02326220371558784,
0.09591022443890275,0.012000458736059273,
0.09596009975062345,-0.004336617958107745,
0.09600997506234414,0.0334322425881436,
0.09605985037406484,0.002359310414741022,
0.09610972568578553,-0.0004235676660227679,
0.09615960099750623,0.020742182962239404,
0.09620947630922694,0.03517714887371484,
0.09625935162094763,0.0025033923967496038,
0.09630922693266833,0.001930165426143604,
0.09635910224438902,-0.014216325415295952,
0.09640897755610972,0.027567502866631097,
0.09645885286783043,0.007983147953856089,
0.09650872817955113,0.03277979308930773,
0.09655860349127182,-0.006118771676237866,
0.09660847880299252,0.014893468826195008,
0.09665835411471321,0.0017443324510358071,
0.09670822942643391,0.03216733067327116,
0.09675810473815462,0.010191495529803337,
0.09680798004987531,0.014035778282995884,
0.09685785536159601,0.030184307116522494,
0.0969077306733167,0.017381331270233173,
0.0969576059850374,0.011839457019737116,
0.09700748129675811,0.0072304209613355905,
0.0970573566084788,0.031615657744806985,
0.0971072319201995,0.027879454445045082,
0.0971571072319202,-0.020457595501499823,
0.0972069825436409,0.027131363884017528,
0.09725685785536159,0.03163655225710159,
0.0973067331670823,0.027425197831072397,
0.097356608478803,-0.020484996848321894,
0.09740648379052369,0.00018923207764531824,
0.09745635910224439,0.013377250866773976,
0.09750623441396508,4.352269526927688e-07,
0.09755610972568579,0.017822275149937523,
0.09760598503740649,0.007353233909715727,
0.09765586034912718,-0.0084840157779737,
0.09770573566084788,0.009411436509923906,
0.09775561097256857,0.0014835543773625143,
0.09780548628428928,0.002208172017693754,
0.09785536159600998,0.014963787202476132,
0.09790523690773068,0.02888247451883244,
0.09795511221945137,0.041097171546315384,
0.09800498753117207,0.000994316692488291,
0.09805486284289276,0.009724664982385568,
0.09810473815461347,0.009377256064076158,
0.09815461346633417,0.0059137336203647015,
0.09820448877805486,-0.00877929732553382,
0.09825436408977556,0.03181769412766443,
0.09830423940149625,0.02741141041706692,
0.09835411471321696,0.01967431494863607,
0.09840399002493766,0.009933026508683425,
0.09845386533665836,-0.0020686439395948865,
0.09850374064837905,0.05046901324591792,
0.09855361596009975,0.030711157772189822,
0.09860349127182044,0.03877449679003788,
0.09865336658354115,0.01956931058917046,
0.09870324189526185,0.026924303319068324,
0.09875311720698254,0.026154260317619145,
0.09880299251870324,0.03587957631711745,
0.09885286783042393,0.026142542289525037,
0.09890274314214464,0.011934072374746509,
0.09895261845386534,0.0207551974244295,
0.09900249376558604,0.025393498677287886,
0.09905236907730673,0.0236457038183397,
0.09910224438902743,-0.01705546880070433,
0.09915211970074812,0.019173106038863134,
0.09920199501246883,0.04949955081695927,
0.09925187032418953,0.04787350930057928,
0.09930174563591022,0.019844223049232234,
0.09935162094763092,0.007805817849032903,
0.09940149625935162,0.02777782101873586,
0.09945137157107233,0.008298875264880556,
0.09950124688279302,0.024287900102157162,
0.09955112219451372,0.04494662899403691,
0.09960099750623441,0.016633479020583042,
0.09965087281795511,0.009485384649835806,
0.0997007481296758,0.041369506811088676,
0.09975062344139651,0.02847920471308814,
0.09980049875311721,0.0152044844392873,
0.0998503740648379,0.029828144601832484,
0.0999002493765586,0.01806752047878231,
0.0999501246882793,0.022154409603916635,
0.1,0.025966398082071417,
0.1000498753117207,-0.0021378165070747267,
0.1000997506234414,0.03130721672836404,
0.10014962593516209,0.03228539133142551,
0.10019950124688279,0.04584248730084574,
0.1002493765586035,0.031075476766563324,
0.1002992518703242,0.017441600359721206,
0.10034912718204489,0.021525278301630715,
0.10039900249376559,0.015401435493920361,
0.10044887780548628,0.01980979051802918,
0.10049875311720698,0.02341258645682895,
0.10054862842892769,0.0016983947768028085,
0.10059850374064838,0.02671677193171357,
0.10064837905236908,0.04530447950831125,
0.10069825436408977,0.037484961335922946,
0.10074812967581047,0.023100253401068083,
0.10079800498753118,0.03521281347844002,
0.10084788029925187,0.01431441425785436,
0.10089775561097257,0.04327385128591599,
0.10094763092269327,0.024660899054218307,
0.10099750623441396,0.027757256254613723,
0.10104738154613466,0.012089355263007698,
0.10109725685785537,0.0416040467426183,
0.10114713216957606,0.036769992708228415,
0.10119700748129676,0.05124077877884073,
0.10124688279301745,0.028755391676008327,
0.10129675810473815,-0.00710273264144062,
0.10134663341645886,0.03036556477434953,
0.10139650872817955,0.046746651052452966,
0.10144638403990025,0.02570636947270747,
0.10149625935162095,0.0360958189983914,
0.10154613466334164,0.019586468960412957,
0.10159600997506234,0.023797474324630995,
0.10164588528678305,0.004978448147010425,
0.10169576059850374,0.022278581962195395,
0.10174563591022444,0.03151133918860603,
0.10179551122194513,0.014021745376009634,
0.10184538653366583,0.01991998068006008,
0.10189526184538654,0.03034039499856137,
0.10194513715710724,0.019847305625770938,
0.10199501246882793,0.03608188930002917,
0.10204488778054863,0.03633685870759594,
0.10209476309226932,0.017636415379532283,
0.10214463840399003,0.026770800595531604,
0.10219451371571073,0.02661211368020234,
0.10224438902743142,0.03676843345104089,
0.10229426433915212,0.011970732644011765,
0.10234413965087281,0.02415365728123062,
0.10239401496259351,0.018890618570148836,
0.10244389027431422,0.037207028897572096,
0.10249376558603492,0.03082473961080652,
0.10254364089775561,0.027045734215599235,
0.10259351620947631,0.03369217716681951,
0.102643391521197,0.017122214519256686,
0.10269326683291771,0.013692342438302361,
0.10274314214463841,0.0016733580000157754,
0.1027930174563591,0.0293747165954837,
0.1028428927680798,0.030329964811867848,
0.1028927680798005,0.013830625514886128,
0.10294264339152119,0.021585771684653553,
0.1029925187032419,0.006483138755042785,
0.1030423940149626,0.006547161906464594,
0.10309226932668329,0.036251766118018176,
0.10314214463840399,0.013968875520768533,
0.10319201995012468,0.02204254092710102,
0.10324189526184539,0.03755746775075408,
0.10329177057356609,0.03950132270646843,
0.10334164588528678,0.008330763872541658,
0.10339152119700748,0.01144608895999561,
0.10344139650872818,0.03733747347607459,
0.10349127182044887,0.03417618406067992,
0.10354114713216958,0.04465794971144723,
0.10359102244389028,0.04615900504764839,
0.10364089775561097,0.005610527654996214,
0.10369077306733167,0.03522532679299232,
0.10374064837905236,0.025899643534267377,
0.10379052369077307,0.00042300271377322674,
0.10384039900249377,0.0002557056487877962,
0.10389027431421446,0.005977406643185157,
0.10394014962593516,0.02347224764797413,
0.10399002493765586,0.03720770847045658,
0.10403990024937655,0.026343768400599002,
0.10408977556109726,0.010137907202590052,
0.10413965087281796,-0.004727756076734296,
0.10418952618453865,0.035931315505108544,
0.10423940149625935,-0.01973148861080233,
0.10428927680798004,0.024216951903681366,
0.10433915211970075,0.010418629278173795,
0.10438902743142145,0.015172616273113667,
0.10443890274314215,-0.006689347057994833,
0.10448877805486284,0.02692829509010953,
0.10453865336658354,-0.01592998096634257,
0.10458852867830425,0.035082195172293246,
0.10463840399002494,0.05243547118395547,
0.10468827930174564,0.016038182116467275,
0.10473815461346633,0.016132960374781433,
0.10478802992518703,0.006169479026262312,
0.10483790523690772,0.015284857173260696,
0.10488778054862843,-0.021425537512858094,
0.10493765586034913,0.009515123668944808,
0.10498753117206983,0.01117010202677823,
0.10503740648379052,0.009804647631157576,
0.10508728179551122,0.031307494234007034,
0.10513715710723193,0.025111169273277584,
0.10518703241895262,0.045966541882410124,
0.10523690773067332,0.010159484317753407,
0.10528678304239401,0.009825820971465537,
0.10533665835411471,0.00732502060389288,
0.1053865336658354,0.027310847094091442,
0.10543640897755611,0.0219848140338305,
0.10548628428927681,0.007343460532594775,
0.1055361596009975,0.01031610058941129,
0.1055860349127182,-0.014483645300321776,
0.1056359102244389,-0.005987004761853272,
0.10568578553615961,0.007722517782136426,
0.1057356608478803,0.009704468629731346,
0.105785536159601,0.0018728623314595017,
0.1058354114713217,0.03985857237827158,
0.10588528678304239,0.02446331111804042,
0.10593516209476309,-0.01193701785844297,
0.1059850374064838,0.01365508552612094,
0.10603491271820449,0.003588507825515011,
0.10608478802992519,0.0259798954695818,
0.10613466334164588,0.03208234637007458,
0.10618453865336658,-0.005335721606183864,
0.10623441396508729,0.018820109944994647,
0.10628428927680798,-0.005054607189888765,
0.10633416458852868,0.04946811139807385,
0.10638403990024937,0.031140938159407057,
0.10643391521197007,0.013848374190190943,
0.10648379052369077,-0.0056956626979003605,
0.10653366583541148,-0.018260292226680484,
0.10658354114713217,0.017330125167416,
0.10663341645885287,0.0002201499537830831,
0.10668329177057356,0.032540948282974935,
0.10673316708229426,0.0028898511170847956,
0.10678304239401497,-0.020477038768000926,
0.10683291770573566,0.0003431195005855613,
0.10688279301745636,-0.00627031191207225,
0.10693266832917706,0.015802646959153732,
0.10698254364089775,-0.009964836394458013,
0.10703241895261846,-0.02671172837122969,
0.10708229426433916,-0.005216665081321089,
0.10713216957605985,0.013762127775117095,
0.10718204488778055,-0.006523698018693974,
0.10723192019950124,-0.008688277788278262,
0.10728179551122194,0.012365609608233524,
0.10733167082294265,-0.016028268535034668,
0.10738154613466334,-0.003894377760883877,
0.10743142144638404,-0.005220604963098965,
0.10748129675810474,-0.0050774818670538445,
0.10753117206982543,-0.0033705674013953324,
0.10758104738154614,-0.008940817727168818,
0.10763092269326684,0.00318618944353113,
0.10768079800498753,0.015268254224652517,
0.10773067331670823,-0.006556865360537732,
0.10778054862842892,-0.007017581695837927,
0.10783042394014962,0.0030182026431361175,
0.10788029925187033,-0.03321515635053452,
0.10793017456359102,0.021845247476204747,
0.10798004987531172,0.016452759386400808,
0.10802992518703242,-0.020865908799753134,
0.10807980049875311,0.013887164698862704,
0.10812967581047382,-0.02430715382662358,
0.10817955112219452,0.008244278067511386,
0.10822942643391521,-0.00722406509692423,
0.10827930174563591,0.0341521335785913,
0.1083291770573566,-0.007344546336019625,
0.1083790523690773,-0.002494507495848998,
0.10842892768079801,-0.007128342946075374,
0.1084788029925187,-0.017022912740117295,
0.1085286783042394,-0.002537528630082042,
0.1085785536159601,-0.023574551550978606,
0.10862842892768079,-0.00613495171115081,
0.1086783042394015,-0.03326731745062146,
0.1087281795511222,-0.03192862545257725,
0.1087780548628429,0.003656959514922096,
0.10882793017456359,-0.020623404373795375,
0.10887780548628428,-0.0031908313005553036,
0.108927680798005,-0.03559722602776495,
0.10897755610972569,-0.03293652151034393,
0.10902743142144639,0.015125317867629133,
0.10907730673316708,-0.004967390622156755,
0.10912718204488778,-0.010144646837502392,
0.10917705735660847,-0.022977772737527297,
0.10922693266832918,-0.0064414025711023535,
0.10927680798004988,0.013472288963312535,
0.10932668329177057,0.015594727883812097,
0.10937655860349127,-0.012800397583739841,
0.10942643391521197,-0.004918994582527723,
0.10947630922693267,-0.025020470392306905,
0.10952618453865337,-0.015068692161564229,
0.10957605985037407,-0.04450870897820279,
0.10962593516209476,-0.010547608917078418,
0.10967581047381546,-0.019265488207798862,
0.10972568578553615,-0.0018388045353225236,
0.10977556109725686,0.022072292754923846,
0.10982543640897756,-0.0070914012379266105,
0.10987531172069825,-0.0022109460547961503,
0.10992518703241895,-0.0002653857540739265,
0.10997506234413965,-0.010693782772102905,
0.11002493765586036,-0.013362350432137206,
0.11007481296758105,-0.006744715992239678,
0.11012468827930175,-0.0010103790045882573,
0.11017456359102244,0.0030099091765989437,
0.11022443890274314,-0.016633797853234378,
0.11027431421446383,-0.0268854885231986,
0.11032418952618454,-0.028609179426135244,
0.11037406483790524,0.005487995644826941,
0.11042394014962593,-0.03501041635326271,
0.11047381546134663,-0.032508273345233624,
0.11052369077306733,0.005933821444339177,
0.11057356608478804,-0.031490858144583196,
0.11062344139650873,-0.022527385585826988,
0.11067331670822943,-0.023217986045768337,
0.11072319201995012,0.016470058844865444,
0.11077306733167082,-0.0061932562818350105,
0.11082294264339151,-0.008363687128698054,
0.11087281795511222,-0.021257970874565,
0.11092269326683292,-0.01974178168994797,
0.11097256857855362,-0.05268007578411869,
0.11102244389027431,-0.04083349866226725,
0.111072319201995,-0.017189376861169437,
0.11112219451371572,-0.012215289228294882,
0.11117206982543641,0.005327910196120776,
0.11122194513715711,0.020263547662909796,
0.1112718204488778,-0.015698151654787232,
0.1113216957605985,0.007442669065379048,
0.11137157107231921,-0.021656939907622803,
0.1114214463840399,0.0007802057990795551,
0.1114713216957606,-0.03443656176338381,
0.1115211970074813,-0.010353981859236475,
0.11157107231920199,-0.022063159499577118,
0.11162094763092269,-0.0163021410282958,
0.1116708229426434,0.0057983824644349275,
0.11172069825436409,-0.02182241698974071,
0.11177057356608479,0.004503180062573345,
0.11182044887780548,-0.018884470217126297,
0.11187032418952618,-0.026215701390732572,
0.11192019950124689,-0.010423130173014794,
0.11197007481296758,-0.015106146906727819,
0.11201995012468828,0.006341676220543614,
0.11206982543640898,-0.010959597563762394,
0.11211970074812967,0.015734131773638388,
0.11216957605985037,-0.0053716206989904616,
0.11221945137157108,-0.01858821977762346,
0.11226932668329177,0.00427873817089563,
0.11231920199501247,-0.010849165936698811,
0.11236907730673316,-0.004638405763492598,
0.11241895261845386,-0.016961149885361133,
0.11246882793017457,-0.014956624794864218,
0.11251870324189527,0.0015494852017893749,
0.11256857855361596,-0.005075839003811366,
0.11261845386533666,-0.0006539112659176109,
0.11266832917705735,0.0008171560282297444,
0.11271820448877805,-0.00888056963286834,
0.11276807980049876,0.029120305129442425,
0.11281795511221945,-0.007030772842111379,
0.11286783042394015,0.0071166860083408095,
0.11291770573566084,-0.016279887413301275,
0.11296758104738154,-0.023937690010924963,
0.11301745635910225,0.0005648947016838463,
0.11306733167082295,-0.004694563220377473,
0.11311720698254364,0.0005360233869901882,
0.11316708229426434,0.003461521376187658,
0.11321695760598503,0.0196871231092482,
0.11326683291770574,-0.005454764276240019,
0.11331670822942644,0.0022796898167866918,
0.11336658354114713,0.0004361348740365874,
0.11341645885286783,0.012713798298972847,
0.11346633416458853,-0.020027218415321856,
0.11351620947630922,0.011829593415361585,
0.11356608478802993,0.010281962663961837,
0.11361596009975063,-0.0075439049058110075,
0.11366583541147132,-0.0007779523890941767,
0.11371571072319202,-0.0006190529162303231,
0.11376558603491271,-0.00827329568881047,
0.11381546134663342,-0.020094328364695446,
0.11386533665835412,0.023752759367425554,
0.11391521197007481,-0.0033191108649461626,
0.11396508728179551,-0.026890698450976587,
0.1140149625935162,0.0004358489563265726,
0.1140648379052369,-0.01651671424692705,
0.11411471321695761,-0.005146630436877099,
0.1141645885286783,0.008408054049748679,
0.114214463840399,0.0006410066099753603,
0.1142643391521197,-0.003560120729803978,
0.1143142144638404,-0.021937544398429445,
0.1143640897755611,-0.006585796187399947,
0.1144139650872818,-0.00780466330912683,
0.1144638403990025,0.0006262669722302244,
0.11451371571072319,0.026834483782872797,
0.11456359102244389,0.0063702894596956855,
0.11461346633416458,-0.0017781340373266633,
0.11466334164588529,-0.007926648582990421,
0.11471321695760599,-0.004938908554859247,
0.11476309226932668,-0.02175323231669768,
0.11481296758104738,-0.017030540306167484,
0.11486284289276807,0.0365308686713738,
0.11491271820448878,0.008421514819703418,
0.11496259351620948,0.011937457215582835,
0.11501246882793018,-0.0008500704217876166,
0.11506234413965087,0.017071219155203095,
0.11511221945137157,0.012458089172626769,
0.11516209476309226,0.013796991098410339,
0.11521197007481297,0.000836857980122228,
0.11526184538653367,0.01605315861263268,
0.11531172069825436,0.006071905825406284,
0.11536159600997506,0.010465495946972582,
0.11541147132169575,0.011204174629887438,
0.11546134663341646,-0.019092114836891206,
0.11551122194513716,0.002449359202089032,
0.11556109725685786,0.003151369899346082,
0.11561097256857855,0.003492469018258942,
0.11566084788029925,-0.014349607955268394,
0.11571072319201996,0.007255993033403781,
0.11576059850374065,-0.00019316215147707587,
0.11581047381546135,0.009842215749145941,
0.11586034912718204,0.03222892676517554,
0.11591022443890274,0.01633210563450236,
0.11596009975062344,0.004911470010466467,
0.11600997506234415,0.014044998998222296,
0.11605985037406484,0.010804491827031405,
0.11610972568578554,0.009322494585500213,
0.11615960099750623,-0.014381851130326029,
0.11620947630922693,6.82532020546394e-05,
0.11625935162094764,-0.009634593651948745,
0.11630922693266833,-0.0026385581896924536,
0.11635910224438903,0.010256770678438712,
0.11640897755610972,0.008167841297362732,
0.11645885286783042,0.0184269090189399,
0.11650872817955112,0.007006741201216432,
0.11655860349127183,0.013811434952503341,
0.11660847880299252,0.032336031843138664,
0.11665835411471322,0.0002850910242367579,
0.11670822942643391,0.03650123125368909,
0.11675810473815461,0.006334381063294819,
0.11680798004987532,-0.010997810713349829,
0.11685785536159601,0.01116690014855164,
0.11690773067331671,0.00040277831033252477,
0.1169576059850374,0.014789596660904158,
0.1170074812967581,0.024181318379701604,
0.1170573566084788,0.03673299956311025,
0.1171072319201995,0.021990166297006036,
0.1171571072319202,0.03159241504109718,
0.1172069825436409,0.01961610546455871,
0.1172568578553616,0.0008842196039175777,
0.11730673316708229,0.05007810929160374,
0.117356608478803,0.002750857854661509,
0.1174064837905237,0.033301919363832075,
0.11745635910224439,0.019743846729019722,
0.11750623441396509,0.013344923905608942,
0.11755610972568578,0.014777699210670108,
0.11760598503740648,0.04248721430049665,
0.11765586034912719,0.018549706657297594,
0.11770573566084788,0.020712771158088655,
0.11775561097256858,0.021401700633060475,
0.11780548628428927,0.05551272131131571,
0.11785536159600997,-0.011543896653143742,
0.11790523690773068,0.027127902584996505,
0.11795511221945137,0.006201649656997862,
0.11800498753117207,0.04139965858943841,
0.11805486284289277,0.008696609570511193,
0.11810473815461346,0.046489156553611855,
0.11815461346633417,0.028094110254435492,
0.11820448877805487,0.027732022817092618,
0.11825436408977556,0.04400421462787606,
0.11830423940149626,0.029397373750033255,
0.11835411471321695,0.053697168265530254,
0.11840399002493765,0.003019329800422795,
0.11845386533665836,0.01594597283381273,
0.11850374064837906,0.046369627719048546,
0.11855361596009975,0.031094480846947235,
0.11860349127182045,0.02166482798578437,
0.11865336658354114,0.05717440720951886,
0.11870324189526185,0.054840739000102626,
0.11875311720698255,0.016089859138917986,
0.11880299251870324,0.02059900476807631,
0.11885286783042394,1.5654425794507654e-06,
0.11890274314214463,0.017172490269664185,
0.11895261845386533,0.03837371671509694,
0.11900249376558604,0.030132245046395053,
0.11905236907730674,-0.006557638184409759,
0.11910224438902743,0.01682094544728564,
0.11915211970074813,0.031650432090732074,
0.11920199501246882,0.032224183868065734,
0.11925187032418953,0.02296406253435941,
0.11930174563591023,0.02995792208433724,
0.11935162094763092,0.011021402075554108,
0.11940149625935162,0.05293783093221478,
0.11945137157107232,0.03323026962259216,
0.11950124688279301,0.035466815632372264,
0.11955112219451372,-0.005067040819385766,
0.11960099750623442,0.021290950184949736,
0.11965087281795511,0.01242815792524933,
0.11970074812967581,0.0048876878358598,
0.1197506234413965,0.00618692260354323,
0.11980049875311721,0.04881845378683153,
0.11985037406483791,0.013781106846703,
0.1199002493765586,0.0319451564428413,
0.1199501246882793,0.030247817325258962,
0.12,0.041592917699693956,
0.1200498753117207,0.01329822069767719,
0.1200997506234414,-0.010752070700121089,
0.1201496259351621,0.03461347725398242,
0.12019950124688279,0.01737705860968493,
0.12024937655860349,0.018479517943836746,
0.12029925187032418,0.030902674552386412,
0.1203491271820449,0.043126894893595814,
0.12039900249376559,0.03537435225094119,
0.12044887780548628,0.03536243997783473,
0.12049875311720698,0.02491531674959787,
0.12054862842892768,0.04445812663192705,
0.12059850374064839,0.04296896494830637,
0.12064837905236908,0.024082623764951048,
0.12069825436408978,0.034525092880752055,
0.12074812967581047,0.05709553838524212,
0.12079800498753117,0.009549303658431502,
0.12084788029925186,0.022210628207104573,
0.12089775561097257,0.014696659600232968,
0.12094763092269327,0.053810343177495,
0.12099750623441397,0.01962081994363109,
0.12104738154613466,0.03890781732063008,
0.12109725685785536,0.001507032080012606,
0.12114713216957607,0.046597594569555686,
0.12119700748129676,0.01203504236017425,
0.12124688279301746,0.03481784807874148,
0.12129675810473815,0.03314412220677943,
0.12134663341645885,0.034958344251116706,
0.12139650872817954,0.03351008440294112,
0.12144638403990025,0.03551713344811315,
0.12149625935162095,0.02326634890039512,
0.12154613466334165,0.01493704609100032,
0.12159600997506234,0.011642719641948449,
0.12164588528678304,0.030040949426457297,
0.12169576059850375,0.04084690505054878,
0.12174563591022444,0.036659718812802194,
0.12179551122194514,0.016091388102034004,
0.12184538653366583,0.007523924311516432,
0.12189526184538653,0.01976887610565291,
0.12194513715710723,0.014414099978953163,
0.12199501246882793,0.017130022468850578,
0.12204488778054863,0.029038829717593407,
0.12209476309226933,0.030613806843790017,
0.12214463840399002,0.010186843928736432,
0.12219451371571072,0.0307814087255197,
0.12224438902743143,-0.0047452740919996655,
0.12229426433915212,0.03894506400402026,
0.12234413965087282,0.05451041615816339,
0.12239401496259351,0.04705809028844248,
0.12244389027431421,0.005748936863441606,
0.12249376558603492,0.022462386953407756,
0.12254364089775562,0.031112368081247455,
0.12259351620947631,0.029204786497214662,
0.122643391521197,0.02189882246970977,
0.1226932668329177,0.004476705497399511,
0.1227431421446384,0.03564840498228529,
0.12279301745635911,0.046578258714705376,
0.1228428927680798,0.01340120706487573,
0.1228927680798005,0.006594028166880345,
0.1229426433915212,0.02804960679300457,
0.12299251870324189,0.028001474652532304,
0.1230423940149626,0.011334277672604557,
0.1230922693266833,-0.0025910055111820103,
0.12314214463840399,0.014386657326858045,
0.12319201995012469,0.016924155364953744,
0.12324189526184538,0.024019955175552003,
0.12329177057356608,0.031792078903453036,
0.12334164588528679,0.017256063827863884,
0.12339152119700748,0.02836263392377734,
0.12344139650872818,0.01790083504915263,
0.12349127182044888,0.018498647064440852,
0.12354114713216957,0.03705956550950784,
0.12359102244389028,0.04243782070025551,
0.12364089775561098,0.013759750637769009,
0.12369077306733167,-0.00832689735417767,
0.12374064837905237,0.023216595729202497,
0.12379052369077306,0.013759525038478672,
0.12384039900249376,0.011587647373018565,
0.12389027431421447,0.003465827981708816,
0.12394014962593516,0.014161298564459857,
0.12399002493765586,0.045593858081093216,
0.12403990024937656,0.015752729894808595,
0.12408977556109725,0.0453766151985667,
0.12413965087281796,0.019587655809552747,
0.12418952618453866,0.020874289206238256,
0.12423940149625935,0.014774205213442741,
0.12428927680798005,0.02740227741306607,
0.12433915211970074,0.02424650112892824,
0.12438902743142144,-0.00951304576981277,
0.12443890274314215,0.0171367691872646,
0.12448877805486284,-0.0028241602904434324,
0.12453865336658354,-0.03224801285320966,
0.12458852867830424,0.00905496652145324,
0.12463840399002493,0.028104700184371154,
0.12468827930174564,0.01141480399072756,
0.12473815461346634,0.03387251781887934,
0.12478802992518703,0.0046255101005768726,
0.12483790523690773,0.00306465409066815,
0.12488778054862842,0.017683029592122826,
0.12493765586034913,0.028852688593281918,
0.12498753117206983,0.01462540994760931,
0.12503740648379053,0.03635292281256563,
0.12508728179551123,0.02193641307656803,
0.12513715710723192,-0.0017849445856666472,
0.12518703241895263,0.0023396510949838766,
0.1252369077306733,0.007397774401562906,
0.12528678304239402,-0.011670462392001864,
0.1253366583541147,0.003086326824254691,
0.1253865336658354,0.03678718661472555,
0.12543640897755612,0.03243139117460585,
0.1254862842892768,-0.004238331822830623,
0.1255361596009975,-0.0022684857076190282,
0.1255860349127182,0.0009699740103488782,
0.1256359102244389,0.03039016594807166,
0.1256857855361596,0.011666180818989685,
0.1257356608478803,0.0012871307290172572,
0.125785536159601,0.009583252110606188,
0.12583541147132168,0.028212016659483887,
0.1258852867830424,0.01528351421836853,
0.1259351620947631,0.004659665715631448,
0.12598503740648379,0.006930009434023495,
0.1260349127182045,0.01904231675993353,
0.12608478802992518,-0.015088778710861884,
0.1261346633416459,0.029183738205867824,
0.1261845386533666,0.01204345507147494,
0.12623441396508728,0.011549723071360627,
0.126284289276808,-0.01104730730586215,
0.12633416458852867,0.021838040768020726,
0.12638403990024938,-0.017089946475251062,
0.1264339152119701,-0.01264031632318394,
0.12648379052369077,0.006158110917169117,
0.12653366583541148,0.0017851785915926881,
0.12658354114713216,0.0007313009913939095,
0.12663341645885287,0.010063586991803803,
0.12668329177057355,-0.005238832718999473,
0.12673316708229426,0.0003792719347974231,
0.12678304239401497,-3.188048225491978e-05,
0.12683291770573565,0.011492274040803536,
0.12688279301745636,0.01280530074450811,
0.12693266832917705,0.007491324263886581,
0.12698254364089775,0.020008036303110488,
0.12703241895261846,-0.0004877061399811019,
0.12708229426433915,-0.011723200503285666,
0.12713216957605986,0.008934514961835567,
0.12718204488778054,-0.00014984636427970766,
0.12723192019950125,0.0035674837508106634,
0.12728179551122196,-0.0013344618639018926,
0.12733167082294264,-6.059159749907454e-05,
0.12738154613466335,0.0013882753436943885,
0.12743142144638403,-0.00968671362608485,
0.12748129675810474,-0.03505468104839655,
0.12753117206982545,-0.01341342651870059,
0.12758104738154613,-0.025877569878063795,
0.12763092269326684,-0.00991236439003422,
0.12768079800498752,0.01629676948848961,
0.12773067331670823,0.007150516158434716,
0.1277805486284289,-0.01929652553790679,
0.12783042394014962,-0.005134729145968847,
0.12788029925187033,0.005755663970474551,
0.12793017456359101,-0.012918779065080207,
0.12798004987531172,-0.003730984188744741,
0.1280299251870324,-0.015659065164433272,
0.12807980049875312,-0.010842701548812578,
0.12812967581047383,0.018282515735380735,
0.1281795511221945,-0.017832156561860716,
0.12822942643391522,0.00849211188677168,
0.1282793017456359,-0.028712299215614887,
0.1283291770573566,-0.006750478856510671,
0.12837905236907732,-0.018772171158172854,
0.128428927680798,-0.022123382699719796,
0.1284788029925187,0.016404320465497647,
0.1285286783042394,0.0013209846548721217,
0.1285785536159601,-0.018511805644505417,
0.1286284289276808,-0.0105869271065969,
0.1286783042394015,-0.004322120396414745,
0.1287281795511222,0.01680911479987328,
0.12877805486284288,0.008458440422025221,
0.1288279301745636,-0.01863435597675314,
0.1288778054862843,-0.008340810595242838,
0.12892768079800498,-0.018320563853857837,
0.1289775561097257,0.020414839305976505,
0.12902743142144638,-0.004381171599406299,
0.12907730673316709,-0.011024213519395823,
0.12912718204488777,0.0006870827642645894,
0.12917705735660848,-0.015279922794457895,
0.1292269326683292,0.0002599671403056055,
0.12927680798004987,0.012457547746359923,
0.12932668329177058,0.0029439857151626753,
0.12937655860349126,-0.005412014152313604,
0.12942643391521197,-0.015781198293927785,
0.12947630922693268,0.010445369642255892,
0.12952618453865336,0.010365831099495194,
0.12957605985037407,-0.002095940901545669,
0.12962593516209475,-0.030953199020206046,
0.12967581047381546,-0.03202485129071415,
0.12972568578553617,-0.007189917626205814,
0.12977556109725685,0.009074848198722472,
0.12982543640897756,-0.043542811524048014,
0.12987531172069824,-0.020526034663640405,
0.12992518703241895,0.009800018757060087,
0.12997506234413966,-0.014500553380951844,
0.13002493765586035,-0.014259141169983912,
0.13007481296758105,0.0031979480368455084,
0.13012468827930174,-0.0019555549075984825,
0.13017456359102245,-0.03208615143028648,
0.13022443890274316,-0.017123617701866888,
0.13027431421446384,-0.02732179854339327,
0.13032418952618455,-0.003100291442408822,
0.13037406483790523,-0.03432369230425832,
0.13042394014962594,-0.01099021611006786,
0.13047381546134662,0.004338262201414936,
0.13052369077306733,-0.012584988230014159,
0.13057356608478804,0.020308494281362548,
0.13062344139650872,-0.002635155004332596,
0.13067331670822943,-0.02766822533488451,
0.1307231920199501,-0.009333247608532136,
0.13077306733167082,-0.018074031674118415,
0.13082294264339153,0.003721773025960478,
0.13087281795511221,-0.024420031458311314,
0.13092269326683292,-0.011267894653791449,
0.1309725685785536,-0.010107056024202187,
0.13102244389027431,-0.00876955079620359,
0.13107231920199502,-0.006410897857506731,
0.1311221945137157,-0.007614326293938862,
0.13117206982543642,0.0041448839673199015,
0.1312219451371571,0.003175549488932476,
0.1312718204488778,-0.0017514781271308136,
0.13132169576059852,-0.014598483860649035,
0.1313715710723192,-0.013460922297845321,
0.1314214463840399,-0.006466363315057712,
0.1314713216957606,-0.020082931200376623,
0.1315211970074813,-0.0014639972102005287,
0.13157107231920198,-0.023107900451908022,
0.1316209476309227,-0.015465639304982935,
0.1316708229426434,0.014136992531924481,
0.13172069825436408,-0.027697681264861163,
0.1317705735660848,-0.001876916652227961,
0.13182044887780547,-0.00985849593117018,
0.13187032418952618,-0.01611942919154542,
0.1319201995012469,-0.008809665760445545,
0.13197007481296757,-0.011317735254782763,
0.13201995012468828,-0.002199550786770297,
0.13206982543640897,-0.0004403023428385909,
0.13211970074812968,0.0004584939733043806,
0.13216957605985039,-0.023378022408307088,
0.13221945137157107,-0.0004558735134958672,
0.13226932668329178,-0.014120058109155263,
0.13231920199501246,-0.022527824567351265,
0.13236907730673317,-0.011443028701062773,
0.13241895261845388,0.010901229566274913,
0.13246882793017456,-0.019829153859756428,
0.13251870324189527,-0.022753990875019947,
0.13256857855361595,-0.02349945658828409,
0.13261845386533666,-0.030816067189179303,
0.13266832917705737,0.00031279819039119194,
0.13271820448877805,-0.022336766849568784,
0.13276807980049876,-0.009276462693739072,
0.13281795511221944,0.0025807528745540563,
0.13286783042394015,0.004796879853147619,
0.13291770573566083,-0.0112501957456758,
0.13296758104738154,0.004809264427981871,
0.13301745635910225,-0.019718072032128785,
0.13306733167082294,-0.020497094824709947,
0.13311720698254365,-0.00910210137766311,
0.13316708229426433,-0.023674596749321188,
0.13321695760598504,-0.014050100461279628,
0.13326683291770575,-0.006758476078812853,
0.13331670822942643,0.021113683763238758,
0.13336658354114714,-0.0020421377864596017,
0.13341645885286782,-0.014234551197635436,
0.13346633416458853,-0.014202453261091746,
0.13351620947630924,-0.01095976771850473,
0.13356608478802992,0.002746672415291254,
0.13361596009975063,0.018081589857307435,
0.1336658354114713,0.013163728641054938,
0.13371571072319202,-0.020618953282146038,
0.13376558603491273,-0.02418951358794018,
0.1338154613466334,-0.014842933067880934,
0.13386533665835412,0.03259295130379741,
0.1339152119700748,0.004308701519727217,
0.13396508728179551,0.010664885639263395,
0.1340149625935162,-0.009750124371043686,
0.1340648379052369,-0.010871773454204524,
0.13411471321695762,0.01779678298803896,
0.1341645885286783,-0.014691814488195492,
0.134214463840399,0.003913349669975444,
0.1342643391521197,-0.002433344047284751,
0.1343142144638404,-0.0024657001095448206,
0.1343640897755611,0.006527957318684457,
0.1344139650872818,0.001305158067904156,
0.1344638403990025,0.010850361062977638,
0.13451371571072318,0.007226285409643924,
0.1345635910224439,-0.036851572045687606,
0.1346134663341646,-0.022664300117894845,
0.13466334164588528,-0.0211128527872001,
0.134713216957606,-0.0011548253284485955,
0.13476309226932667,-0.008306727357618504,
0.13481296758104738,-0.028373381376881727,
0.1348628428927681,-0.005039937974661506,
0.13491271820448877,0.018050047444600602,
0.13496259351620948,-0.017023527515466957,
0.13501246882793017,0.009418588318031341,
0.13506234413965088,-0.012965113142626425,
0.13511221945137158,0.047455877071482216,
0.13516209476309227,-0.00432589424479522,
0.13521197007481298,0.017368506445962495,
0.13526184538653366,0.04860985890973831,
0.13531172069825437,0.021083748973332376,
0.13536159600997505,0.008425545892460024,
0.13541147132169576,-0.0022707154467354017,
0.13546134663341647,-0.014113289241566967,
0.13551122194513715,-0.01571142523107116,
0.13556109725685786,0.022394193203152574,
0.13561097256857854,-0.018487742328424213,
0.13566084788029925,0.001935378855673433,
0.13571072319201996,0.003111242504271989,
0.13576059850374064,0.007166443714167289,
0.13581047381546135,0.012567097681857448,
0.13586034912718203,0.014860243047968454,
0.13591022443890274,0.024164237246729947,
0.13596009975062345,-0.004237101633613231,
0.13600997506234414,-0.0075655867151667305,
0.13605985037406484,-0.000997492249929944,
0.13610972568578553,0.015380551981551215,
0.13615960099750624,0.02538879020425442,
0.13620947630922695,0.006523603047933789,
0.13625935162094763,0.01949713614818944,
0.13630922693266834,0.014111619621587081,
0.13635910224438902,0.005525874283627974,
0.13640897755610973,0.04901895457824662,
0.1364588528678304,0.02178502772618348,
0.13650872817955112,0.011599514056349769,
0.13655860349127183,0.010162887623579173,
0.1366084788029925,-0.0021716552321936478,
0.13665835411471322,0.0167650643198937,
0.1367082294264339,-0.006861973021305843,
0.1367581047381546,0.028188105429718675,
0.13680798004987532,-0.006558321648276473,
0.136857855361596,0.016509996211827586,
0.1369077306733167,0.014918463016107636,
0.1369576059850374,0.0289026062930861,
0.1370074812967581,0.018380269825117843,
0.13705735660847881,0.013398114387254495,
0.1371072319201995,0.01731419833966931,
0.1371571072319202,0.024483125108478776,
0.1372069825436409,0.0014195712339329161,
0.1372568578553616,0.02768095335726868,
0.1373067331670823,0.03935229952817282,
0.137356608478803,0.010104596816047978,
0.1374064837905237,0.02967183423700791,
0.13745635910224438,0.0260610851955232,
0.1375062344139651,0.034841165499264526,
0.1375561097256858,-0.006781353551095309,
0.13760598503740648,0.013453732902257699,
0.1376558603491272,0.02261688468720713,
0.13770573566084787,0.024609697180386914,
0.13775561097256858,0.018905011778604205,
0.13780548628428926,0.028047326824931308,
0.13785536159600997,-0.020635289431494397,
0.13790523690773068,0.034815596326187415,
0.13795511221945136,0.03314090568236698,
0.13800498753117207,0.03409148931001467,
0.13805486284289276,0.028334484534654845,
0.13810473815461347,0.008485904927624332,
0.13815461346633418,0.009633122080778017,
0.13820448877805486,-0.0007488586108063237,
0.13825436408977557,0.01716000586506677,
0.13830423940149625,0.025196345003466042,
0.13835411471321696,0.04177116159233486,
0.13840399002493767,0.02935093327916983,
0.13845386533665835,0.02168196848965043,
0.13850374064837906,0.01804849734935104,
0.13855361596009974,0.01680703884385301,
0.13860349127182045,0.010321351396354107,
0.13865336658354116,0.016713267876577485,
0.13870324189526184,0.012586108894194046,
0.13875311720698255,0.04836764874356786,
0.13880299251870323,0.0252629647685693,
0.13885286783042394,0.007585921402023941,
0.13890274314214462,0.008104081177727453,
0.13895261845386533,0.05048492956712339,
0.13900249376558604,0.0300792250405693,
0.13905236907730673,0.04248068217724281,
0.13910224438902744,0.047115785203269256,
0.13915211970074812,0.027540825980124556,
0.13920199501246883,0.02468454548370128,
0.13925187032418954,0.018474460491369075,
0.13930174563591022,0.024806823283363012,
0.13935162094763093,0.04153788547615516,
0.1394014962593516,0.036183285223449005,
0.13945137157107232,-0.001948296226702454,
0.13950124688279303,0.011184519065339737,
0.1395511221945137,0.03184379650860113,
0.13960099750623442,0.028483481995735496,
0.1396508728179551,0.032499248580937626,
0.1397007481296758,0.04247559802277293,
0.13975062344139652,0.04298837924094814,
0.1398004987531172,-0.004784827963092032,
0.1398503740648379,0.038598181739867184,
0.1399002493765586,0.019891007878750915,
0.1399501246882793,0.03771933917185861,
0.14,0.023294521775557304,
0.1400498753117207,-0.011541669443120198,
0.1400997506234414,0.026384104955622743,
0.1401496259351621,0.0072292861503657005,
0.1401995012468828,0.04158284583462336,
0.14024937655860348,0.03821407944816219,
0.1402992518703242,0.04374902083415306,
0.1403491271820449,0.02207889805630365,
0.14039900249376558,0.03329479624959543,
0.1404488778054863,0.023312036007157914,
0.14049875311720697,0.0332940058886544,
0.14054862842892768,0.04224932446202368,
0.1405985037406484,0.024798512430480462,
0.14064837905236907,-0.010176269481381728,
0.14069825436408978,0.022045295057743927,
0.14074812967581046,0.008414764846481251,
0.14079800498753117,0.015965488065764866,
0.14084788029925188,0.02681669275609055,
0.14089775561097256,0.018893934329480496,
0.14094763092269327,0.030065662837714516,
0.14099750623441396,0.018520262283002513,
0.14104738154613466,0.04935955945941713,
0.14109725685785537,0.026059358890995237,
0.14114713216957606,0.021492748944947127,
0.14119700748129677,-0.009315431388630727,
0.14124688279301745,0.02721193134996478,
0.14129675810473816,0.04564672083595071,
