time,amplitude,label
0.0,-0.008542129500030396,
4.987531172069826e-05,-0.007712553436390192,
9.975062344139652e-05,0.0010015343490852955,
0.00014962593516209475,0.00024094493150241154,
0.00019950124688279303,0.013984451460701134,
0.00024937655860349125,0.0022280587752662524,
0.0002992518703241895,0.0019162008154029637,
0.00034912718204488776,0.01874440972543149,
0.00039900249376558606,-0.0002468388432884088,
0.0004488778054862843,-0.00154531957693042,
0.0004987531172069825,0.0024131522610690006,
0.0005486284289276808,0.053726318103732816,
0.000598503740648379,-0.0028171890961210316,
0.0006483790523690773,0.01084310690188678,
0.0006982543640897755,-0.01920579563046515,
0.0007481296758104738,0.004447960089945526,
0.0007980049875311721,0.01816553234785306,
0.0008478802992518703,0.001082454571412905,
0.0008977556109725686,0.0022924723595579904,
0.0009476309226932668,-0.0063185220065718264,
0.000997506234413965,-0.014520343560003835,
0.0010473815461346633,0.003263821037320913,
0.0010972568578553616,-0.0024924039468041184,
0.00114713216957606,-0.0032970708872935885,
0.001197007481296758,0.009814267763376168,
0.0012468827930174563,0.0031408375856481277,
0.0012967581047381546,0.020385377822048963,
0.001346633416458853,0.002217594933872754,
0.001396508728179551,0.011204433838813437,
0.0014463840399002493,-0.015557033201941422,
0.0014962593516209476,0.01012258067099462,
0.001546134663341646,-0.02774596344668525,
0.0015960099750623442,0.022459275571276676,
0.0016458852867830423,0.020205464853820042,
0.0016957605985037406,0.006591333686165163,
0.001745635910224439,-0.015648153467471455,
0.0017955112219451373,0.045374362767059785,
0.0018453865336658353,0.02645796506407417,
0.0018952618453865336,0.00031088885905092116,
0.001945137157107232,0.008659981067632067,
0.00199501246882793,0.023992017557031273,
0.0020448877805486283,0.005087609565192311,
0.0020947630922693266,0.004010521154386944,
0.002144638403990025,0.021697142552275433,
0.0021945137157107233,0.00858207186170274,
0.0022443890274314216,0.03747356540240038,
0.00229426433915212,0.03512063378752786,
0.0023441396508728177,0.030136140470735817,
0.002394014962593516,0.003866863333426101,
0.0024438902743142144,-0.0035947860386233866,
0.0024937655860349127,0.01943853014517699,
0.002543640897755611,0.007933203859469069,
0.0025935162094763093,-0.0014739946647626435,
0.0026433915211970076,0.0016286389211379523,
0.002693266832917706,0.03048354533390895,
0.002743142144638404,0.007830986610582758,
0.002793017456359102,0.03208121338900602,
0.0028428927680798004,0.0020281431716989273,
0.0028927680798004987,0.019481852793548755,
0.002942643391521197,0.022895917426070167,
0.0029925187032418953,0.015111287077563148,
0.0030423940149625936,0.003056094590335767,
0.003092269326683292,0.03000142794903641,
0.00314214463840399,-0.012996464604829106,
0.0031920199501246885,0.009343622547635008,
0.0032418952618453864,6.574519862137182e-05,
0.0032917705735660847,0.01747978053994167,
0.003341645885286783,0.014412542159691273,
0.0033915211970074813,0.017732814113587854,
0.0034413965087281796,-0.009311893492313237,
0.003491271820448878,0.013390497136850093,
0.003541147132169576,0.04276887994713015,
0.0035910224438902745,0.019926582258970475,
0.0036408977556109724,0.027319853113130947,
0.0036907730673316707,0.009476314938814102,
0.003740648379052369,-0.008811251120757386,
0.0037905236907730673,0.040398040929729026,
0.0038403990024937656,0.022894729778433685,
0.003890274314214464,0.012289547719685982,
0.003940149625935162,0.025591401738986164,
0.00399002493765586,0.03006286564896574,
0.004039900249376558,-9.628149560099442e-05,
0.004089775561097257,-0.010648299187490804,
0.004139650872817955,-0.004378942072248083,
0.004189526184538653,0.017969654466791447,
0.004239401496259352,0.04205502589310604,
0.00428927680798005,0.014372969650848597,
0.004339152119700748,0.021428688485341223,
0.0043890274314214465,0.010578231593021657,
0.004438902743142145,-0.0033677630021995593,
0.004488778054862843,0.01720752453755094,
0.004538653366583541,0.001519079974921074,
0.00458852867830424,0.019080822961941118,
0.004638403990024938,0.003869576821883141,
0.0046882793017456355,0.023867822980135622,
0.004738154613466334,0.015300589884950295,
0.004788029925187032,0.019673057924239862,
0.00483790523690773,-0.003433396838921056,
0.004887780548628429,0.0044797358929183,
0.004937655860349127,0.02724194034378682,
0.004987531172069825,0.030196030701289997,
0.005037406483790524,0.03461837095615178,
0.005087281795511222,0.010441602968319016,
0.00513715710723192,0.012190032142872195,
0.0051870324189526185,0.02455070361120073,
0.005236907730673317,0.018543776362695243,
0.005286783042394015,0.013780464800156201,
0.0053366583541147134,0.058412910091109334,
0.005386533665835412,0.023106582190960713,
0.00543640897755611,0.002736701078274461,
0.005486284289276808,-0.013012977721947937,
0.005536159600997507,0.030452901811005503,
0.005586034912718204,0.01549843515339434,
0.005635910224438902,0.04465656135217818,
0.005685785536159601,0.010407327169513461,
0.005735660847880299,0.02082011556162356,
0.005785536159600997,0.029756016735731847,
0.005835411471321696,0.015432739174000806,
0.005885286783042394,0.021351897022191344,
0.005935162094763092,0.011455954157296652,
0.0059850374064837905,-0.00321890123245077,
0.006034912718204489,0.027155609022880826,
0.006084788029925187,0.030605236424143884,
0.0061346633416458855,0.017699816481168047,
0.006184538653366584,0.010298551204081066,
0.006234413965087282,0.029627158789895865,
0.00628428927680798,0.026333657911275385,
0.006334164588528679,0.0487734001408823,
0.006384039900249377,-0.001905283868725776,
0.006433915211970074,0.023383078853117883,
0.006483790523690773,0.04419363605059912,
0.006533665835411471,-0.00477974234983183,
0.006583541147132169,0.024096954483412536,
0.006633416458852868,0.0007201053054744951,
0.006683291770573566,0.012886294609663515,
0.006733167082294264,0.018519191433876214,
0.0067830423940149626,0.024025200741539826,
0.006832917705735661,0.03627182073275662,
0.006882793017456359,0.010628039987867145,
0.0069326683291770575,0.010036578700599492,
0.006982543640897756,-0.00016225845802581365,
0.007032418952618454,0.031547280892268936,
0.007082294264339152,0.0278063609217296,
0.007132169576059851,0.03171773139024993,
0.007182044887780549,-0.00010935492018829436,
0.007231920199501247,0.011954287104891463,
0.007281795511221945,0.008101332930107058,
0.007331670822942643,0.026041543812553972,
0.007381546134663341,0.015613776050115389,
0.00743142144638404,0.003413748871736958,
0.007481296758104738,0.002585246698062399,
0.007531172069825436,0.035455686363089975,
0.007581047381546135,0.005623029386869639,
0.007630922693266833,0.014296637449546134,
0.007680798004987531,0.01792134339218595,
0.0077306733167082295,0.013204825631199414,
0.007780548628428928,0.02522690320744106,
0.007830423940149626,-0.009501367301344495,
0.007880299251870324,0.0002418427634597424,
0.007930174563591023,-0.0020726485428638544,
0.00798004987531172,0.010540625525215364,
0.00802992518703242,0.016353663001223536,
0.008079800498753117,0.01671626453168539,
0.008129675810473816,0.006561640024129686,
0.008179551122194513,0.01964247646256074,
0.008229426433915213,1.8004750796439192e-05,
0.00827930174563591,-0.0044968595085474305,
0.00832917705735661,0.026862334586154717,
0.008379052369077307,0.006135974117325712,
0.008428927680798006,-0.0013119130213380577,
0.008478802992518703,-0.005861614225304356,
0.0085286783042394,0.00023119670574778782,
0.0085785536159601,-0.01185571502134217,
0.008628428927680797,-0.005272277512533856,
0.008678304239401496,-0.015172181626049943,
0.008728179551122194,-0.03181010508529905,
0.008778054862842893,0.0008055793730158481,
0.00882793017456359,0.024088417380182008,
0.00887780548628429,0.00409869061992913,
0.008927680798004987,-0.017556002529622798,
0.008977556109725686,-0.02976422133835721,
0.009027431421446384,0.025846457435978593,
0.009077306733167083,0.00022259594320652408,
0.00912718204488778,0.006997877396116278,
0.00917705735660848,0.02100089399879671,
0.009226932668329177,-0.006425506177895422,
0.009276807980049876,0.015203844833754199,
0.009326683291770574,0.004183188390383142,
0.009376558603491271,0.02239092691727381,
0.00942643391521197,0.018224518436824693,
0.009476309226932668,0.03687977929391216,
0.009526184538653367,0.005761652534944711,
0.009576059850374064,0.0387066926840563,
0.009625935162094763,-0.01212383946421637,
0.00967581047381546,0.017473274947168264,
0.00972568578553616,0.012871537313632626,
0.009775561097256857,-0.001773394554444994,
0.009825436408977557,0.019612969390762118,
0.009875311720698254,-0.006207202839712074,
0.009925187032418953,-0.009314678098593572,
0.00997506234413965,-0.005131226354655124,
0.01002493765586035,0.016256628069467406,
0.010074812967581047,-0.00048742297550989546,
0.010124688279301746,-0.00851457332023513,
0.010174563591022444,0.01871323047058513,
0.010224438902743141,-0.011459760401131436,
0.01027431421446384,-0.010892286389871051,
0.010324189526184538,-0.004709349257219637,
0.010374064837905237,0.005398730851940928,
0.010423940149625935,-0.004381163748377855,
0.010473815461346634,-0.02390297874837353,
0.010523690773067331,0.02619841537845562,
0.01057356608478803,-0.005993760018499391,
0.010623441396508728,0.019368628973357744,
0.010673316708229427,-0.0064603558669222485,
0.010723192019950124,-0.013274731085552834,
0.010773067331670824,-0.015039550848121464,
0.010822942643391521,0.00960245922872597,
0.01087281795511222,-0.009599670729591597,
0.010922693266832918,-0.021640654589154918,
0.010972568578553617,-0.0389077533738527,
0.011022443890274314,0.0017894766623225873,
0.011072319201995013,-0.019997827227420287,
0.01112219451371571,-0.013372748185243939,
0.011172069825436408,0.0034923489159574654,
0.011221945137157107,-0.012787982025129381,
0.011271820448877805,0.0032547189920188995,
0.011321695760598504,-0.0032105545763956213,
0.011371571072319201,-0.03527812396119505,
0.0114214463840399,0.003656141295281381,
0.011471321695760598,-0.006183813971018027,
0.011521197007481297,0.0021000850797608522,
0.011571072319201995,-0.005481111557799806,
0.011620947630922694,-0.025110910771134427,
0.011670822942643391,-0.006076320736992945,
0.01172069825436409,0.0005575177624343869,
0.011770573566084788,-0.0325058969846064,
0.011820448877805487,-0.013250452307212553,
0.011870324189526184,-0.020449927672870787,
0.011920199501246884,-0.021615611766064993,
0.011970074812967581,0.010498918470596733,
0.012019950124688279,0.007903054598369916,
0.012069825436408978,0.02798855080545981,
0.012119700748129675,-0.01498479228402118,
0.012169576059850374,-0.028269343317492705,
0.012219451371571072,-0.0007548274161455863,
0.012269326683291771,-0.03611953493076386,
0.012319201995012468,-0.03799064873426671,
0.012369077306733168,-0.02284921643075933,
0.012418952618453865,-0.01867415577783031,
0.012468827930174564,-0.010005171602057734,
0.012518703241895262,-0.028865081877747993,
0.01256857855361596,-6.645524016623584e-05,
0.012618453865336658,0.009434725897587714,
0.012668329177057357,-0.012622328210850173,
0.012718204488778055,-0.018127749063472566,
0.012768079800498754,-0.024038209600803093,
0.012817955112219451,-0.020999935695491415,
0.012867830423940149,-0.03336303784452023,
0.012917705735660848,-0.0284111256442206,
0.012967581047381545,-0.010033380990717478,
0.013017456359102245,-0.022484651654468148,
0.013067331670822942,-0.030866161319322034,
0.013117206982543641,-0.019023530923995714,
0.013167082294264339,-0.048571168185907405,
0.013216957605985038,-0.004689781055300038,
0.013266832917705735,-0.03601626090113398,
0.013316708229426434,-0.028059004772339594,
0.013366583541147132,-0.0189211484657441,
0.013416458852867831,-0.00477983291033391,
0.013466334164588529,-0.009366026523127133,
0.013516209476309228,-0.028254047522343423,
0.013566084788029925,-0.01348983736082281,
0.013615960099750624,-0.009130073561412481,
0.013665835411471322,-0.027377395885802427,
0.01371571072319202,0.0005129700245604385,
0.013765586034912718,-0.010784340144078745,
0.013815461346633416,-0.014182791197528499,
0.013865336658354115,-0.023954186512959226,
0.013915211970074812,-0.03246797064646034,
0.013965087281795512,-0.03289036052040435,
0.014014962593516209,0.0017014013435351118,
0.014064837905236908,-0.02137878065447151,
0.014114713216957606,-0.029220315565114157,
0.014164588528678305,0.015460568627904785,
0.014214463840399002,0.017287851407141352,
0.014264339152119701,-0.013466207707407795,
0.014314214463840399,-0.007517479144662153,
0.014364089775561098,-0.01659878063325853,
0.014413965087281795,-0.04056537554439621,
0.014463840399002495,0.01844383227184874,
0.014513715710723192,-0.012538886911487232,
0.01456359102244389,-0.01753827645266661,
0.014613466334164589,-0.028708107774492952,
0.014663341645885286,-0.014847789578525943,
0.014713216957605985,-0.027040537523066746,
0.014763092269326683,-0.004605239443189748,
0.014812967581047382,-0.022603946892188285,
0.01486284289276808,-0.031055579627163724,
0.014912718204488778,-0.03017923418323918,
0.014962593516209476,0.00029026616388627344,
0.015012468827930175,-0.021163451206459332,
0.015062344139650873,-0.024423345463875482,
0.015112219451371572,-0.038781519384132504,
0.01516209476309227,-0.003169149648420983,
0.015211970074812968,-0.017827706521605105,
0.015261845386533666,-0.03269802133787284,
0.015311720698254365,-0.022572350765306812,
0.015361596009975062,-0.015458636997521967,
0.01541147132169576,0.014229874165722457,
0.015461346633416459,-0.023715493316174358,
0.015511221945137156,-0.03756240803086651,
0.015561097256857856,-0.05019327388093962,
0.015610972568578553,-0.022590909344898255,
0.015660847880299252,-0.013362843496384658,
0.01571072319201995,-0.03644520062720365,
0.015760598503740647,-0.025843603983758345,
0.015810473815461346,-0.02425990818397007,
0.015860349127182045,-0.00191987754533747,
0.015910224438902745,-0.0029618965532551243,
0.01596009975062344,-0.032774542978895746,
0.01600997506234414,-0.009055003848170668,
0.01605985037406484,-0.03443439620176368,
0.016109725685785538,-0.03306367777553322,
0.016159600997506234,-0.011208839867581165,
0.016209476309226933,-0.00584333129677774,
0.016259351620947632,-0.021002893974293717,
0.016309226932668328,7.095066543066214e-05,
0.016359102244389027,-0.028706260228828204,
0.016408977556109726,-0.02212236143204203,
0.016458852867830425,-0.00993115352642968,
0.01650872817955112,-4.1692793876689505e-05,
0.01655860349127182,-0.01853611338980057,
0.01660847880299252,0.012625605161432588,
0.01665835411471322,-0.02387397206067577,
0.016708229426433914,0.0064368474098597354,
0.016758104738154613,-0.0007154882372055731,
0.016807980049875312,-0.0209649147940234,
0.01685785536159601,-0.014479727879570933,
0.016907730673316707,-0.030534544296913064,
0.016957605985037406,-0.010470722803933196,
0.017007481296758106,-0.021788383704559197,
0.0170573566084788,-0.0027145271966480342,
0.0171072319201995,-0.011797457337287324,
0.0171571072319202,-0.023039989081441455,
0.0172069825436409,-0.014670315558942286,
0.017256857855361595,0.009865638366246762,
0.017306733167082294,-0.0024967974019455517,
0.017356608478802993,0.02118224053453578,
0.017406483790523692,-0.0314222994587607,
0.017456359102244388,0.008191849064791368,
0.017506234413965087,-0.016933975499033888,
0.017556109725685786,0.004625093904179773,
0.017605985037406485,-0.004100956518796588,
0.01765586034912718,0.01004264911706906,
0.01770573566084788,-0.024655462481407778,
0.01775561097256858,-0.008683047190095841,
0.01780548628428928,0.01800603848393688,
0.017855361596009974,0.0031866451380977556,
0.017905236907730673,-0.025281962952660855,
0.017955112219451373,0.0009270952654370241,
0.018004987531172068,-0.018328051675442353,
0.018054862842892767,-0.06398645384916145,
0.018104738154613467,-0.03347280066955212,
0.018154613466334166,-0.026555659387501894,
0.01820448877805486,-0.016587006726037433,
0.01825436408977556,0.0014572086772496225,
0.01830423940149626,-0.0031298133732976276,
0.01835411471321696,-0.02022076323580952,
0.018403990024937655,-0.008018369043503186,
0.018453865336658354,-0.007925681892139705,
0.018503740648379053,0.007541302705869873,
0.018553615960099752,-0.007420907292220071,
0.018603491271820448,0.006953178723637039,
0.018653366583541147,-0.019105935605375445,
0.018703241895261846,-0.005826313281673305,
0.018753117206982542,-0.017292874280088383,
0.01880299251870324,-0.041973694439859904,
0.01885286783042394,-0.0341357671316995,
0.01890274314214464,-0.0030063729279850328,
0.018952618453865335,-0.028397281022374668,
0.019002493765586034,0.025159817931215137,
0.019052369077306733,0.029663234338440207,
0.019102244389027433,-0.01684118037550586,
0.01915211970074813,0.0014714268232264502,
0.019201995012468828,0.011870128507890739,
0.019251870324189527,-0.002205044845226962,
0.019301745635910226,0.0007679304322258994,
0.01935162094763092,0.0011984228451080122,
0.01940149625935162,-0.010729609328210437,
0.01945137157107232,-0.0015504389880231268,
0.01950124688279302,0.004232169154277671,
0.019551122194513715,0.014367737342416143,
0.019600997506234414,0.02909046274939545,
0.019650872817955113,-0.006566626762525204,
0.01970074812967581,0.0011026436089096316,
0.019750623441396508,-0.018612238687077683,
0.019800498753117207,-0.0069253578319878936,
0.019850374064837906,0.004959289108524894,
0.019900249376558602,0.008506748202296494,
0.0199501246882793,0.019588920072636837,
0.02,0.02084293012773191,
0.0200498753117207,0.0003343953763809693,
0.020099750623441395,0.027449510529229115,
0.020149625935162094,0.005967840869424866,
0.020199501246882794,0.02177869191437256,
0.020249376558603493,0.002953527564368947,
0.02029925187032419,0.017631683011329974,
0.020349127182044888,0.015044543204045288,
0.020399002493765587,-0.018057450551162292,
0.020448877805486283,0.02290730243758228,
0.02049875311720698,0.018419803709441615,
0.02054862842892768,-0.01679983951881847,
0.02059850374064838,0.024996998425312694,
0.020648379052369076,0.007288637624529334,
0.020698254364089775,0.017200325167038386,
0.020748129675810474,-0.0038918568374769966,
0.020798004987531173,0.022782170959775472,
0.02084788029925187,0.014270642648985553,
0.020897755610972568,0.0017391116105344587,
0.020947630922693267,0.05537497227154152,
0.020997506234413967,-0.006822157209680012,
0.021047381546134662,0.010461329532295815,
0.02109725685785536,0.013312956307680751,
0.02114713216957606,-0.010674467382014836,
0.02119700748129676,0.02057143756194365,
0.021246882793017455,-0.01884109462871313,
0.021296758104738155,0.002200914009265413,
0.021346633416458854,0.0029876865278905505,
0.02139650872817955,-0.0005399592633041472,
0.02144638403990025,0.004127887737248315,
0.021496259351620948,-0.0008538430725396756,
0.021546134663341647,0.002689147366195268,
0.021596009975062343,0.0030488655002881317,
0.021645885286783042,0.014565968464532836,
0.02169576059850374,0.026761205177005188,
0.02174563591022444,0.01033714893019988,
0.021795511221945136,0.01788436227629126,
0.021845386533665835,0.019504461021000393,
0.021895261845386534,0.0037063234501660946,
0.021945137157107233,0.011687463533206354,
0.02199501246882793,0.025455075223143338,
0.02204488778054863,0.011521413447432259,
0.022094763092269327,0.021965041429414692,
0.022144638403990027,-0.03076816352207356,
0.022194513715710722,0.005619304317106024,
0.02224438902743142,-0.005857020105224063,
0.02229426433915212,0.011430605163300606,
0.022344139650872816,0.001543700279931469,
0.022394014962593516,0.030540183246944196,
0.022443890274314215,0.0010357770598870691,
0.022493765586034914,0.015144374748148753,
0.02254364089775561,0.02159435713724602,
0.02259351620947631,0.019351571835393034,
0.022643391521197008,0.0014516989707612019,
0.022693266832917707,0.027351286150543358,
0.022743142144638403,0.007261503023810716,
0.022793017456359102,-0.008683066050133501,
0.0228428927680798,-0.027109451474227584,
0.0228927680798005,-0.005569295960386512,
0.022942643391521196,0.009515491337694342,
0.022992518703241895,0.0014170338933910606,
0.023042394014962594,0.008567649288699776,
0.02309226932668329,-0.007802871753002632,
0.02314214463840399,-0.00494220479818434,
0.02319201995012469,0.04117890956362576,
0.023241895261845388,0.04366498847768399,
0.023291770573566083,0.06442924827992226,
0.023341645885286783,-0.016117258878039383,
0.02339152119700748,0.01009227126619269,
0.02344139650872818,0.01607666323782333,
0.023491271820448877,0.01628081668251503,
0.023541147132169576,0.029422439023603704,
0.023591022443890275,0.014180672931142719,
0.023640897755610974,0.027494169698176533,
0.02369077306733167,0.02907590902305629,
0.02374064837905237,0.024574737623689575,
0.023790523690773068,0.027130528026084743,
0.023840399002493767,0.016897831923755085,
0.023890274314214463,0.026199405782286068,
0.023940149625935162,0.004133355836901064,
0.02399002493765586,0.01173070680402195,
0.024039900249376557,0.008559063094934994,
0.024089775561097256,0.03595272349796783,
0.024139650872817955,0.027453826773674524,
0.024189526184538655,0.03586995041169061,
0.02423940149625935,0.020290733307306186,
0.02428927680798005,0.02725512289495019,
0.02433915211970075,0.02974228188849678,
0.024389027431421448,0.01706835281742,
0.024438902743142144,0.024076194458244993,
0.024488778054862843,0.045221074640771866,
0.024538653366583542,0.019546616701108924,
0.02458852867830424,0.020498482136814745,
0.024638403990024937,0.04134163276404035,
0.024688279301745636,0.0035570958040512073,
0.024738154613466335,0.01919032994223904,
0.02478802992518703,0.00708510796563349,
0.02483790523690773,0.019596897628746106,
0.02488778054862843,0.005974178326185863,
0.02493765586034913,0.02070841854834072,
0.024987531172069824,0.0002536533981560181,
0.025037406483790523,0.04798665155701502,
0.025087281795511222,0.01524356967375355,
0.02513715710723192,0.05917861800930073,
0.025187032418952617,0.026548219520495134,
0.025236907730673316,0.027478037456354694,
0.025286783042394016,0.01581040179047678,
0.025336658354114715,0.022274068109242144,
0.02538653366583541,0.021650282307146787,
0.02543640897755611,0.0348110982424973,
0.02548628428927681,0.04473695833369684,
0.025536159600997508,0.008755551377849724,
0.025586034912718204,0.01997723417503794,
0.025635910224438903,0.028671293683697543,
0.025685785536159602,0.039087894876649584,
0.025735660847880298,0.013170568585126826,
0.025785536159600997,0.029795190425444748,
0.025835411471321696,-0.00013333741548736747,
0.025885286783042395,0.010626033658197876,
0.02593516209476309,0.03272674487532427,
0.02598503740648379,0.031713835404218245,
0.02603491271820449,0.011388446558196345,
0.02608478802992519,0.012112937378543045,
0.026134663341645884,0.015044256592778402,
0.026184538653366583,0.004916479770431354,
0.026234413965087282,0.035129601591626786,
0.02628428927680798,0.01762991570191847,
0.026334164588528677,0.026500250090745754,
0.026384039900249377,0.03299561769630678,
0.026433915211970076,0.007265792213218448,
0.02648379052369077,-0.00312652857839852,
0.02653366583541147,0.0317561592183829,
0.02658354114713217,0.024083083293491823,
0.02663341645885287,0.02301060326387484,
0.026683291770573565,0.004373917972010458,
0.026733167082294264,0.02005848285740654,
0.026783042394014963,0.010617033673789054,
0.026832917705735662,-0.011798576683424815,
0.026882793017456358,0.012584785913495149,
0.026932668329177057,-0.0017128934777904219,
0.026982543640897756,0.025913303491050803,
0.027032418952618455,-0.0035510575523472823,
0.02708229426433915,0.03396128285330717,
0.02713216957605985,0.013455879252609392,
0.02718204488778055,0.010152990952058525,
0.02723192019950125,0.050943736082758484,
0.027281795511221944,-0.0007676345152180658,
0.027331670822942643,0.017356357944557168,
0.027381546134663343,0.02093279612821991,
0.02743142144638404,0.020143586548309722,
0.027481296758104738,-0.00048687216725599135,
0.027531172069825437,0.013374059105031475,
0.027581047381546136,-0.003268918488272427,
0.02763092269326683,0.010514573789091016,
0.02768079800498753,0.022827612497012314,
0.02773067331670823,0.05899190996615834,
0.02778054862842893,0.005888101311020021,
0.027830423940149625,0.006697667391053261,
0.027880299251870324,-0.012534133614537705,
0.027930174563591023,0.01826235285807118,
0.027980049875311722,0.009569665179887873,
0.028029925187032418,0.005063562424450235,
0.028079800498753117,0.008298189851428606,
0.028129675810473816,0.0046273943935354975,
0.028179551122194512,0.05783007964649657,
0.02822942643391521,0.02182057704668223,
0.02827930174563591,0.0020058830437939077,
0.02832917705735661,-0.0250052774722115,
0.028379052369077305,0.026815874267995355,
0.028428927680798004,-0.008522158875199061,
0.028478802992518704,0.023379018354203425,
0.028528678304239403,-0.004652931658080131,
0.0285785536159601,0.029633161161762275,
0.028628428927680798,0.02584181872266097,
0.028678304239401497,-0.01433493166476801,
0.028728179551122196,0.018992345433991142,
0.02877805486284289,0.016776531507877758,
0.02882793017456359,0.01338765149754298,
0.02887780548628429,0.0053497812531022,
0.02892768079800499,-0.025601109923848918,
0.028977556109725685,0.008693854868097015,
0.029027431421446384,0.0084837441137329,
0.029077306733167083,-0.00414192819904384,
0.02912718204488778,-0.002853666610894451,
0.029177057356608478,0.00985696538765177,
0.029226932668329177,0.004936258749795544,
0.029276807980049877,-0.013778056246993894,
0.029326683291770572,0.0024373003799671956,
0.02937655860349127,0.0031525710041648437,
0.02942643391521197,-0.00777871043215272,
0.02947630922693267,0.0028487507255058513,
0.029526184538653365,0.05457280363750727,
0.029576059850374065,0.003228666406556068,
0.029625935162094764,-0.01712462932823683,
0.029675810473815463,0.02508717164826602,
0.02972568578553616,0.003384967763772351,
0.029775561097256858,0.0053767928621127215,
0.029825436408977557,0.02624342509867406,
0.029875311720698253,-0.01514046713097038,
0.029925187032418952,-0.006347552615699706,
0.02997506234413965,-0.012130868037986783,
0.03002493765586035,-0.013618281883630266,
0.030074812967581046,0.008919951034695405,
0.030124688279301745,-0.014404122542834708,
0.030174563591022444,0.0012880715790738785,
0.030224438902743143,0.00030115068325528593,
0.03027431421446384,0.02099365337565951,
0.03032418952618454,-0.027788230539706842,
0.030374064837905237,0.010023187298439446,
0.030423940149625937,0.009619598099384502,
0.030473815461346632,0.003948601533777319,
0.03052369077306733,-0.004605155502138811,
0.03057356608478803,-0.020155080234990554,
0.03062344139650873,0.018520947056533912,
0.030673316708229426,-0.0004070558280457946,
0.030723192019950125,-0.013685115805589752,
0.030773067331670824,-0.01348736128399737,
0.03082294264339152,0.019221965717750734,
0.03087281795511222,0.0016355083501623426,
0.030922693266832918,-0.025862093455370615,
0.030972568578553617,-0.011845857453650403,
0.031022443890274313,-0.017488788895427248,
0.031072319201995012,-0.027865698292147238,
0.03112219451371571,0.0036639080570832804,
0.03117206982543641,0.018501641552373226,
0.031221945137157106,0.008458217365567362,
0.03127182044887781,0.019157816922160793,
0.031321695760598504,-0.021315108478756135,
0.0313715710723192,-0.007255082679880589,
0.0314214463840399,-0.0017869876208005345,
0.0314713216957606,-0.014099740271612553,
0.031521197007481294,-0.02442895372208568,
0.031571072319202,-0.016434825765631336,
0.03162094763092269,0.005700837649553179,
0.03167082294264339,0.01603621561475367,
0.03172069825436409,-0.011508240119058807,
0.03177057356608479,4.183881801277968e-05,
0.03182044887780549,0.0023035892975689625,
0.031870324189526185,0.015358111518983352,
0.03192019950124688,-0.020784546619116905,
0.03197007481296758,0.025624637182575332,
0.03201995012468828,0.01071525883047964,
0.032069825436408975,-0.020293659475617575,
0.03211970074812968,-0.010574810461647492,
0.03216957605985037,0.008941331663577197,
0.032219451371571076,-0.005706147952327997,
0.03226932668329177,-0.02035302574114241,
0.03231920199501247,-0.029267641288236088,
0.03236907730673317,-0.01053187391135051,
0.032418952618453865,-0.004390710671007162,
0.03246882793017456,-0.029224575018266176,
0.032518703241895264,0.009140610575711729,
0.03256857855361596,-0.015253607769385901,
0.032618453865336655,-0.021640112164448114,
0.03266832917705736,-0.02414665731965862,
0.032718204488778053,-0.021577422238172016,
0.032768079800498756,-0.00729359918350548,
0.03281795511221945,-0.009671397980705234,
0.03286783042394015,-0.049156143972955854,
0.03291770573566085,-0.0244885204222916,
0.032967581047381546,0.00860125880273273,
0.03301745635910224,-0.009237103753937624,
0.033067331670822944,0.011525663501233125,
0.03311720698254364,-0.024746177608463794,
0.03316708229426434,0.0019110363942529407,
0.03321695760598504,-0.00809156193837487,
0.033266832917705734,-0.021880071027090553,
0.03331670822942644,-0.0030471632230928258,
0.03336658354114713,-0.009617854382907689,
0.03341645885286783,-0.014263367383262384,
0.03346633416458853,-0.004058349306232658,
0.033516209476309226,-0.03558343926855315,
0.03356608478802992,0.008356476286512319,
0.033615960099750625,-0.008426699199150142,
0.03366583541147132,-0.008139092218285335,
0.03371571072319202,-0.008266554638358145,
0.03376558603491272,-0.027484423045345412,
0.033815461346633414,-0.01003974170195995,
0.03386533665835412,-0.03430188784199911,
0.03391521197007481,-0.03364344795408118,
0.03396508728179551,-0.031354079137471534,
0.03401496259351621,-0.013115656962930402,
0.03406483790523691,-0.020482822365529868,
0.0341147132169576,-0.022191395078078137,
0.034164588528678305,-0.029969250524137646,
0.034214463840399,-0.02727887969440698,
0.034264339152119704,-0.02935139991078023,
0.0343142144638404,-0.02440490735167902,
0.034364089775561095,-0.021512775167770056,
0.0344139650872818,-0.0011124057556679626,
0.03446384039900249,-0.028731013138111473,
0.03451371571072319,-0.018272302362234732,
0.03456359102244389,-0.019745030223006804,
0.03461346633416459,-0.023018824572452037,
0.03466334164588529,-0.03166986620962909,
0.034713216957605986,0.0050519636746019884,
0.03476309226932668,-0.032944674894028636,
0.034812967581047384,-0.017346451531499385,
0.03486284289276808,-0.011716728625538388,
0.034912718204488775,-0.0007159014890393833,
0.03496259351620948,-0.011168729388698005,
0.035012468827930174,-0.011108552683295983,
0.03506234413965087,-0.01804858329759902,
0.03511221945137157,-0.03948841562648486,
0.03516209476309227,0.003096659297152759,
0.03521197007481297,-0.01780569780610846,
0.035261845386533666,-0.025985432091733714,
0.03531172069825436,-0.01694960544414988,
0.035361596009975065,-0.025789028552354862,
0.03541147132169576,-0.0126589134572869,
0.035461346633416456,-0.016185415523546118,
0.03551122194513716,-0.013874108816144223,
0.035561097256857854,0.0038535645207789897,
0.03561097256857856,-0.034301629773038834,
0.03566084788029925,-0.018026810717300345,
0.03571072319201995,-0.017194845364933927,
0.03576059850374065,-0.017590929415861132,
0.03581047381546135,-0.019612893329657297,
0.03586034912718204,-0.013179582810157651,
0.035910224438902745,-0.002805548587274217,
0.03596009975062344,-0.017995462011123037,
0.036009975062344136,-0.011325172689532065,
0.03605985037406484,-0.03928968865049477,
0.036109725685785535,0.018595450420751752,
0.03615960099750624,-0.017368565716902318,
0.03620947630922693,-0.03254935970856104,
0.03625935162094763,-0.009427190349856503,
0.03630922693266833,-0.004254276681196977,
0.03635910224438903,-0.014827887803574955,
0.03640897755610972,-0.03392412328951846,
0.036458852867830426,-0.01001819907113162,
0.03650872817955112,0.01167095864798785,
0.036558603491271824,-0.019865282399005604,
0.03660847880299252,0.002624133068824905,
0.036658354114713215,-0.02058245297752686,
0.03670822942643392,-0.00037408310186410124,
0.036758104738154614,-0.022879111116499137,
0.03680798004987531,0.008194015802416611,
0.03685785536159601,0.0025582624090789204,
0.03690773067331671,-0.001528558666348212,
0.0369576059850374,0.006798511393014437,
0.037007481296758106,0.0030171479938536395,
0.0370573566084788,-0.002424818556170145,
0.037107231920199504,-0.031084707564605282,
0.0371571072319202,-0.011299308814271682,
0.037206982543640896,-0.02061579660114539,
0.0372568578553616,-0.0035590508561547654,
0.037306733167082294,0.004330612530893641,
0.03735660847880299,-0.018411428050464945,
0.03740648379052369,-0.0390098808047729,
0.03745635910224439,0.02782937170537295,
0.037506234413965084,-0.013873735666742045,
0.037556109725685786,-0.014779442241495636,
0.03760598503740648,-0.03264163956813343,
0.037655860349127185,-0.01787807592877174,
0.03770573566084788,-0.010293316441495514,
0.037755610972568576,-0.011527650018627052,
0.03780548628428928,-0.0261717772397174,
0.037855361596009975,-0.012155510819443209,
0.03790523690773067,0.005733782639033284,
0.03795511221945137,-0.010862738038693733,
0.03800498753117207,-0.004926733664189007,
0.03805486284289277,-0.015333369484827015,
0.03810473815461347,-0.006080728625599307,
0.03815461346633416,-0.014032666457753449,
0.038204488778054865,-0.026235266118836927,
0.03825436408977556,-0.006855446991444682,
0.03830423940149626,-0.01235806689684247,
0.03835411471321696,0.011572430362146256,
0.038403990024937655,-0.005717362170401702,
0.03845386533665835,0.01408629644403516,
0.03850374064837905,-0.0036941973545054994,
0.03855361596009975,-0.02360981510978761,
0.03860349127182045,0.005892549391650487,
0.03865336658354115,0.008180694030756653,
0.03870324189526184,-0.02017483350928887,
0.038753117206982546,0.00024843051642108255,
0.03880299251870324,-0.007135526268272704,
0.03885286783042394,0.02439957379944619,
0.03890274314214464,-0.006766254420797627,
0.038952618453865336,-0.006648328404562023,
0.03900249376558604,0.02085812612190837,
0.039052369077306734,-0.0051136256865521755,
0.03910224438902743,0.0007459771892882304,
0.03915211970074813,-0.021303051330762143,
0.03920199501246883,0.009554959979468165,
0.039251870324189524,0.018661766725060893,
0.039301745635910226,-0.025988327791836408,
0.03935162094763092,0.019085375757686093,
0.03940149625935162,-0.012694254336883024,
0.03945137157107232,0.0060021757958603405,
0.039501246882793016,0.013737763142879934,
0.03955112219451372,0.012686865585624913,
0.039600997506234414,0.011750775898434611,
0.03965087281795511,-0.028960424651753063,
0.03970074812967581,-0.012203051944826356,
0.03975062344139651,-0.011291561465784621,
0.039800498753117204,0.011897582826586182,
0.03985037406483791,0.01762743407837966,
0.0399002493765586,-0.01106944340064896,
0.039950124688279305,0.013888913181279331,
0.04,0.015655478506758077,
0.0400498753117207,0.008879811371125952,
0.0400997506234414,-0.025857486132747447,
0.040149625935162095,0.021034682123242106,
0.04019950124688279,0.023691187322340546,
0.04024937655860349,-0.0010047830606539892,
0.04029925187032419,0.010621934396442045,
0.040349127182044885,0.0005114703321437248,
0.04039900249376559,0.0058173218913272476,
0.04044887780548628,-0.0023698351503964807,
0.040498753117206986,0.008245153522020121,
0.04054862842892768,0.012034668639675023,
0.04059850374064838,0.024964719423065534,
0.04064837905236908,0.035516747434766835,
0.040698254364089775,0.010298668510930791,
0.04074812967581047,-0.0022516232819844665,
0.040798004987531174,-0.0030255884536770326,
0.04084788029925187,0.011545243181373246,
0.040897755610972565,0.013559502622386655,
0.04094763092269327,-0.021137265021292585,
0.04099750623441396,0.01790654358778619,
0.041047381546134666,-0.0021870995440085254,
0.04109725685785536,0.010959826741953903,
0.04114713216957606,-0.0032482282233045525,
0.04119700748129676,0.006879713816566866,
0.041246882793017456,0.007162171950566041,
0.04129675810473815,0.030256813290596193,
0.041346633416458854,0.017682986485925836,
0.04139650872817955,0.011695922282205416,
0.04144638403990025,0.0236822792126736,
0.04149625935162095,0.006277725102943133,
0.041546134663341644,-0.013029413390074317,
0.04159600997506235,0.022814647350424627,
0.04164588528678304,0.003448908178692133,
0.04169576059850374,0.03272495814466372,
0.04174563591022444,0.014578996732956883,
0.041795511221945136,0.0554370793639124,
0.04184538653366583,0.026782967259446573,
0.041895261845386535,-0.011337753565323544,
0.04194513715710723,0.0478471085269853,
0.04199501246882793,0.0053867732446901545,
0.04204488778054863,-0.006271836288012377,
0.042094763092269324,0.03646846454786436,
0.04214463840399003,0.02722806637302325,
0.04219451371571072,0.0023837812168304353,
0.04224438902743142,0.0506921941534362,
0.04229426433915212,0.02523774454403365,
0.04234413965087282,0.013917253751538688,
0.04239401496259352,0.05079937739882193,
0.042443890274314215,0.037673308658164484,
0.04249376558603491,0.029262824515689876,
0.042543640897755614,-0.012142179993071638,
0.04259351620947631,0.013690088227101903,
0.042643391521197005,0.010261848847255084,
0.04269326683291771,-0.002297383235689822,
0.0427431421446384,0.023006930883142967,
0.0427930174563591,0.024542158269439462,
0.0428428927680798,0.011703916541479025,
0.0428927680798005,0.017195492533771922,
0.0429426433915212,0.03642635193576528,
0.042992518703241896,0.018139195780125076,
0.04304239401496259,0.026735256284351805,
0.043092269326683294,0.036687549503511795,
0.04314214463840399,0.005659471470754376,
0.043192019950124685,0.03003196821973679,
0.04324189526184539,0.01641611237819312,
0.043291770573566084,0.00880900170223714,
0.043341645885286786,0.017921924927881226,
0.04339152119700748,0.015507011126276409,
0.04344139650872818,0.0019076471111452442,
0.04349127182044888,0.013136713011347978,
0.043541147132169576,0.04415048902265707,
0.04359102244389027,0.04770824683385629,
0.043640897755610975,0.01993977111117915,
0.04369077306733167,0.041678170882987364,
0.043740648379052366,0.0193828413152874,
0.04379052369077307,0.03766237700836785,
0.043840399002493764,0.022234677586214863,
0.04389027431421447,0.013083845627974912,
0.04394014962593516,0.0189358914559865,
0.04399002493765586,-0.009960552521356709,
0.04403990024937656,-0.0002185089374880135,
0.04408977556109726,0.03577720072697618,
0.04413965087281795,0.009894598314349442,
0.044189526184538655,0.016069816958658237,
0.04423940149625935,0.01707959256680197,
0.04428927680798005,0.01508710472753867,
0.04433915211970075,-0.0017752177506049627,
0.044389027431421445,-0.011605500429347486,
0.04443890274314215,0.040825401527033026,
0.04448877805486284,0.04066357914178032,
0.04453865336658354,0.021903314367000784,
0.04458852867830424,0.037519077501769554,
0.04463840399002494,0.028027095182116598,
0.04468827930174563,0.014810083156127155,
0.044738154613466335,0.009593341222742744,
0.04478802992518703,0.0299300505986288,
0.044837905236907734,-0.0010133591014177927,
0.04488778054862843,0.014816166203536324,
0.044937655860349125,0.04129713189076094,
0.04498753117206983,0.018259233165379467,
0.045037406483790524,0.03269816377098675,
0.04508728179551122,0.03912583492857896,
0.04513715710723192,0.032870926605739294,
0.04518703241895262,0.016073780979719725,
0.04523690773067331,0.050477462118377364,
0.045286783042394016,0.04204980725708837,
0.04533665835411471,0.020620729509201796,
0.045386533665835414,-0.011710418893183527,
0.04543640897755611,0.023186193321368533,
0.045486284289276806,0.03844735031530396,
0.04553615960099751,0.020629274507848207,
0.045586034912718204,0.022061440237936877,
0.0456359102244389,0.022825382073071294,
0.0456857855361596,0.013001252319230694,
0.0457356608478803,0.014289647387257737,
0.045785536159601,0.027469146250540685,
0.045835411471321696,0.03446936711208356,
0.04588528678304239,-0.007632042572667138,
0.045935162094763095,0.0313653985346896,
0.04598503740648379,0.022117431693306745,
0.046034912718204486,0.01662592186975766,
0.04608478802992519,-0.026016019502986598,
0.046134663341645885,0.037481954187852676,
0.04618453865336658,0.03208355633695171,
0.04623441396508728,0.028794217258711095,
0.04628428927680798,0.027181332421039726,
0.04633416458852868,0.06251638434989182,
0.04638403990024938,0.034610031650662405,
0.04643391521197007,0.016375429598646442,
0.046483790523690775,0.027030385311387517,
0.04653366583541147,0.016774708207234548,
0.04658354114713217,0.004007945510394399,
0.04663341645885287,0.011573942921665855,
0.046683291770573565,-0.003436087874447477,
0.04673316708229427,0.017337822540857403,
0.04678304239401496,0.04536558315470039,
0.04683291770573566,0.02498979232299927,
0.04688279301745636,0.0014172046624953,
0.04693266832917706,0.03424644532908293,
0.04698254364089775,-0.0254827484179338,
0.047032418952618456,0.030943684112137188,
0.04708229426433915,0.013382000954138235,
0.04713216957605985,0.020799147088797133,
0.04718204488778055,0.02193396036117596,
0.047231920199501246,0.03155801688334216,
0.04728179551122195,0.002056303601656184,
0.047331670822942644,0.016134997645672187,
0.04738154613466334,0.02186765184751117,
0.04743142144638404,0.012172256917728863,
0.04748129675810474,0.03379400899995126,
0.047531172069825434,0.02269791538288315,
0.047581047381546136,0.016233344651895826,
0.04763092269326683,0.013514470964175788,
0.047680798004987535,0.00013933233293054147,
0.04773067331670823,0.019558967552392482,
0.047780548628428926,0.019370953337086945,
0.04783042394014963,0.0008298083287607231,
0.047880299251870324,0.003930753335417696,
0.04793017456359102,0.02532254359126916,
0.04798004987531172,0.025000232248162755,
0.04802992518703242,0.00446819255216996,
0.048079800498753114,0.013302189486488642,
0.04812967581047382,0.02752515818901683,
0.04817955112219451,-0.004167030306975419,
0.048229426433915215,0.022740744660801917,
0.04827930174563591,0.01623933217725375,
0.048329177057356607,-0.005183892373134793,
0.04837905236907731,0.02650581175037709,
0.048428927680798005,0.015547561474296341,
0.0484788029925187,-0.01478782642292871,
0.0485286783042394,0.01901032513527867,
0.0485785536159601,0.03230850811919863,
0.048628428927680795,0.019094752791770146,
0.0486783042394015,0.008496856386230328,
0.04872817955112219,0.0067910765598756155,
0.048778054862842896,0.018836390987778735,
0.04882793017456359,0.004194229708612197,
0.04887780548628429,0.011707518917311088,
0.04892768079800499,0.015167847319086717,
0.048977556109725685,0.024191648964127725,
0.04902743142144638,0.022751151876500265,
0.049077306733167084,0.014125510076534138,
0.04912718204488778,0.0070692018200174105,
0.04917705735660848,0.015000438044691894,
0.04922693266832918,0.048769995591537364,
0.04927680798004987,0.017583783768973668,
0.049326683291770576,0.018509614295904288,
0.04937655860349127,-0.004968598019731057,
0.04942643391521197,-0.0034108528836416527,
0.04947630922693267,0.015446865688371253,
0.049526184538653366,0.014852399879490975,
0.04957605985037406,-0.011627625120522338,
0.049625935162094764,0.006478144453358261,
0.04967581047381546,-0.01745313777942354,
0.04972568578553616,-0.014042073704224419,
0.04977556109725686,-0.01846552112017453,
0.049825436408977554,0.016162368548674755,
0.04987531172069826,-0.003149088692806489,
0.04992518703241895,0.028973364914257158,
0.04997506234413965,-0.0021027121650535018,
0.05002493765586035,0.014228000085497225,
0.050074812967581046,0.011560360713934962,
0.05012468827930175,0.011540255145112314,
0.050174563591022445,0.0018301855540030399,
0.05022443890274314,0.012911702475112488,
0.05027431421446384,-0.006944517662407897,
0.05032418952618454,-0.005124631267723095,
0.050374064837905234,-0.005237741925242068,
0.05042394014962594,-0.009457048781667724,
0.05047381546134663,-0.01710462777742131,
0.05052369077306733,0.0147426661924124,
0.05057356608478803,-0.011214675271483959,
0.05062344139650873,-0.007794411049453415,
0.05067331670822943,0.0249727288525298,
0.050723192019950125,0.01061910756197574,
0.05077306733167082,-0.02028845016491553,
0.050822942643391524,-0.011319791751364175,
0.05087281795511222,-0.02331878018669918,
0.050922693266832915,0.0010768983658980338,
0.05097256857855362,-0.030215381701009528,
0.05102244389027431,-0.036142256541734,
0.051072319201995016,0.002277361437503145,
0.05112219451371571,0.020698543621509545,
0.05117206982543641,-0.00979209868665265,
0.05122194513715711,0.02303578579533211,
0.051271820448877806,-0.027648578585028463,
0.0513216957605985,-0.011654306199196347,
0.051371571072319204,-0.002626834399645369,
0.0514214463840399,0.009586060257547907,
0.051471321695760595,-0.033163797324305855,
0.0515211970074813,0.00889928820077898,
0.051571072319201994,-0.01682220816007275,
0.051620947630922696,-0.001997263380896332,
0.05167082294264339,0.0010679490562811008,
0.05172069825436409,0.005087963484455022,
0.05177057356608479,0.004653802787536524,
0.051820448877805486,-0.024062167049560483,
0.05187032418952618,0.02294948579879777,
0.051920199501246884,-0.01064620350114392,
0.05197007481296758,-0.009141789714245592,
0.052019950124688276,-0.009026451127589978,
0.05206982543640898,0.0028678134416806594,
0.052119700748129674,0.016571927439726405,
0.05216957605985038,-0.006064942362511284,
0.05221945137157107,0.0038964498635246127,
0.05226932668329177,0.013924043473056015,
0.05231920199501247,-0.030346278618299367,
0.05236907730673317,-0.010670861802552493,
0.05241895261845386,0.012666795373048836,
0.052468827930174565,-0.017709999015648126,
0.05251870324189526,-0.003238270631693586,
0.05256857855361596,0.02287723954577534,
0.05261845386533666,0.005396410488935695,
0.052668329177057355,-0.001416042758435751,
0.05271820448877806,-0.030672033845698794,
0.05276807980049875,0.008664453980928976,
0.05281795511221945,-0.025524140569931134,
0.05286783042394015,-0.029356217540436588,
0.05291770573566085,0.00797543195015438,
0.05296758104738154,-0.002558714769982453,
0.053017456359102245,-0.03291305324227908,
0.05306733167082294,-0.02174594188399725,
0.053117206982543644,-0.005031246128226847,
0.05316708229426434,-0.03033203785549231,
0.053216957605985035,-0.0001864577059080691,
0.05326683291770574,-0.023170938473399887,
0.053316708229426434,0.010427043747947699,
0.05336658354114713,-0.03534196487190138,
0.05341645885286783,-0.02094868109783305,
0.05346633416458853,-0.007491608072034173,
0.05351620947630923,-0.008856324431850526,
0.053566084788029926,-0.03535619873078089,
0.05361596009975062,0.007229847994063159,
0.053665835411471324,-0.0009745288235512139,
0.05371571072319202,-0.01458852366513967,
0.053765586034912716,-0.04864992942492656,
0.05381546134663342,-0.012531547661420946,
0.053865336658354114,-0.011964796375180976,
0.05391521197007481,-0.028088558354308048,
0.05396508728179551,-0.008783263944083084,
0.05401496259351621,-0.0006683257249077996,
0.05406483790523691,-0.0021021124562758658,
0.054114713216957606,-0.021153636824396173,
0.0541645885286783,-0.016909815249332504,
0.054214463840399005,-0.0352439348511071,
0.0542643391521197,-0.017983669004708765,
0.054314214463840396,-0.05063744318583992,
0.0543640897755611,-0.006439952796990176,
0.054413965087281795,-0.01246819068148846,
0.0544638403990025,0.010694427252775755,
0.05451371571072319,-0.023135457554761957,
0.05456359102244389,0.006353453141866628,
0.05461346633416459,-0.021479727934552346,
0.05466334164588529,-0.006310635371514266,
0.05471321695760598,-0.008417524712937736,
0.054763092269326685,-0.010272095451510886,
0.05481296758104738,-0.0005474928898012155,
0.05486284289276808,-0.004915723550985808,
0.05491271820448878,-0.016907302381164183,
0.054962593516209475,0.00013035915871865977,
0.05501246882793018,-0.0367218338793451,
0.05506234413965087,-0.012977297788944018,
0.05511221945137157,-0.022666657043544584,
0.05516209476309227,-0.024416588787253266,
0.05521197007481297,-0.012047033453775568,
0.05526184538653366,0.011107907255423655,
0.055311720698254366,-0.02180990642775837,
0.05536159600997506,-0.016279955283580092,
0.05541147132169576,-0.004079796893675167,
0.05546134663341646,-0.013831947692867809,
0.055511221945137156,-0.018533358526378916,
0.05556109725685786,0.0026432751480524944,
0.055610972568578554,-0.01741680872018883,
0.05566084788029925,0.012243795178962045,
0.05571072319201995,-0.027348487178539438,
0.05576059850374065,-0.019175130685677316,
0.055810473815461344,-0.01732336406076166,
0.055860349127182046,-0.0038585855700962804,
0.05591022443890274,0.0011725449701822932,
0.055960099750623445,-0.023357183143972143,
0.05600997506234414,-0.006239570842413477,
0.056059850374064836,-0.006177904284745201,
0.05610972568578554,-0.0009300567905107405,
0.056159600997506234,-0.03634280630648295,
0.05620947630922693,-0.004320846752020699,
0.05625935162094763,-0.001709474739784396,
0.05630922693266833,-0.018877630238032305,
0.056359102244389024,-0.012737556602452122,
0.05640897755610973,-0.01588119872148881,
0.05645885286783042,-0.009357313023569909,
0.056508728179551125,-0.003279780853588179,
0.05655860349127182,-0.0191713264224352,
0.056608478802992516,-0.003700610353906548,
0.05665835411471322,0.004633883111966251,
0.056708229426433915,-0.022223736081875653,
0.05675810473815461,-0.005757036460176945,
0.05680798004987531,-0.017069884490580965,
0.05685785536159601,-0.0066484127875952705,
0.05690773067331671,-0.008484228793151673,
0.05695760598503741,-0.02789501880716723,
0.0570074812967581,-0.027341050783261767,
0.057057356608478806,-0.01675937689220998,
0.0571072319201995,-0.02666063458346373,
0.0571571072319202,-0.008716565476217237,
0.0572069825436409,-0.018657003575343632,
0.057256857855361595,-0.01788936951523618,
0.05730673316708229,-0.0044470929005567894,
0.057356608478802994,0.008980729710012564,
0.05740648379052369,0.003686735581402985,
0.05745635910224439,-0.003677255358759914,
0.05750623441396509,-0.002473555220243331,
0.05755610972568578,-0.006830806365454279,
0.057605985037406486,0.00847807373083298,
0.05765586034912718,-0.0021215417314849093,
0.05770573566084788,0.012766343563580713,
0.05775561097256858,0.010383368051171564,
0.057805486284289276,0.010766725454223192,
0.05785536159600998,-0.02589008471383844,
0.057905236907730674,-0.008620855422510398,
0.05795511221945137,0.00737592636502466,
0.05800498753117207,-0.015342944985760025,
0.05805486284289277,0.0001566137258762479,
0.058104738154613464,-0.009947652902185971,
0.05815461346633417,0.01346612187246962,
0.05820448877805486,-0.014492509094073996,
0.05825436408977556,0.027368340522586687,
0.05830423940149626,-0.023403080238966208,
0.058354114713216956,-0.02309302249467777,
0.05840399002493766,0.011708157399226135,
0.058453865336658355,-0.008161541858368754,
0.05850374064837905,-0.019909942299055787,
0.05855361596009975,0.008218068728727705,
0.05860349127182045,-0.035040284321342194,
0.058653366583541144,-0.008281091386776724,
0.05870324189526185,-0.020419116188157945,
0.05875311720698254,0.026634509071150676,
0.05880299251870324,-0.011783711433611552,
0.05885286783042394,-0.0038890005991765527,
0.05890274314214464,-0.007468305434858088,
0.05895261845386534,0.001958090421020689,
0.059002493765586035,-0.005064348469191799,
0.05905236907730673,-0.0166291829159379,
0.059102244389027433,-0.003921587193135321,
0.05915211970074813,0.0022441506519515755,
0.059201995012468825,-0.012765585530587015,
0.05925187032418953,0.030806869638466856,
0.05930174563591022,0.01455487805950812,
0.059351620947630926,-0.009929509803212024,
0.05940149625935162,0.004103266977490901,
0.05945137157107232,-0.006334646772645462,
0.05950124688279302,0.009299386461836489,
0.059551122194513716,0.006218692810006109,
0.05960099750623441,-0.0014680454797239427,
0.059650872817955114,0.003892876843004399,
0.05970074812967581,-0.006638232865860962,
0.059750623441396505,0.004961232723320479,
0.05980049875311721,0.007054767826371709,
0.059850374064837904,0.023907326270246894,
0.059900249376558606,-0.021126002338422184,
0.0599501246882793,0.016432785243406238,
0.06,0.0071645032290513595,
0.0600498753117207,0.011940698314854344,
0.060099750623441396,0.027605746988304355,
0.06014962593516209,0.01349079394235625,
0.060199501246882794,0.01499084949087576,
0.06024937655860349,0.0042895893017540635,
0.06029925187032419,-0.006081183369440567,
0.06034912718204489,0.030565299475636302,
0.060399002493765584,-0.014496832743818798,
0.06044887780548629,-0.018988300479097338,
0.06049875311720698,0.01720879348271153,
0.06054862842892768,-0.008167257063579054,
0.06059850374064838,0.015234087373102962,
0.06064837905236908,0.022633763211237917,
0.06069825436408977,0.0007092670271210567,
0.060748129675810475,0.04475785085963191,
0.06079800498753117,0.029446024944416227,
0.06084788029925187,0.024964508648084256,
0.06089775561097257,0.005188644748271775,
0.060947630922693265,0.01806483466007683,
0.06099750623441397,0.01465570325986581,
0.06104738154613466,0.0060047547467213256,
0.06109725685785536,-0.006701219151536998,
0.06114713216957606,0.015323994442703688,
0.06119700748129676,0.025898583362519215,
0.06124688279301746,-0.0008486797816959508,
0.061296758104738155,0.007502226638710131,
0.06134663341645885,0.0063174506367709975,
0.061396508728179554,0.02656855411160991,
0.06144638403990025,0.01144475232003856,
0.061496259351620945,0.0015973319319494295,
0.06154613466334165,-0.0063164040169037886,
0.061596009975062344,0.008100420102747412,
0.06164588528678304,0.01801145415977059,
0.06169576059850374,0.04338863798307864,
0.06174563591022444,0.021261984403240383,
0.06179551122194514,0.026328316011277157,
0.061845386533665836,-0.007998223949008173,
0.06189526184538653,-0.0022584913267273687,
0.061945137157107234,0.02017612766038046,
0.06199501246882793,-1.2123338633551056e-05,
0.062044887780548626,0.03985050773527726,
0.06209476309226933,0.011435080785848227,
0.062144638403990024,0.02148186911182295,
0.06219451371571072,0.004631577705969028,
0.06224438902743142,0.030067665864779308,
0.06229426433915212,0.015806397320659426,
0.06234413965087282,0.012174475594062706,
0.062394014962593516,-0.00030217311806536237,
0.06244389027431421,0.030380109478828868,
0.062493765586034915,0.0388872312561486,
0.06254364089775562,0.02780016796300177,
0.06259351620947631,0.04361766389054478,
0.06264339152119701,0.03800757970643731,
0.0626932668329177,0.035887873370068143,
0.0627431421446384,0.024109740722621394,
0.0627930174563591,0.0261484612392554,
0.0628428927680798,0.01768675546158488,
0.0628927680798005,0.03580441523154601,
0.0629426433915212,0.005523451131340829,
0.06299251870324189,0.0255985897517753,
0.06304239401496259,0.027509994625602382,
0.0630922693266833,0.02170750937483809,
0.063142144638404,-0.011616836453523054,
0.06319201995012469,0.008069089235155615,
0.06324189526184539,0.02138571960819577,
0.06329177057356608,0.009886110484505911,
0.06334164588528678,0.03309718048423312,
0.06339152119700749,0.010540173535379565,
0.06344139650872818,0.010413909099201457,
0.06349127182044888,0.024159593691679807,
0.06354114713216957,0.050379223401034984,
0.06359102244389027,0.004688818260470334,
0.06364089775561098,0.031736077761737376,
0.06369077306733167,0.00039711133916142324,
0.06374064837905237,-0.010135818311990293,
0.06379052369077307,0.008294740288847646,
0.06384039900249376,0.020825876118115563,
0.06389027431421446,0.04000895586466961,
0.06394014962593517,0.02380011216250097,
0.06399002493765586,-0.002122658262650713,
0.06403990024937656,0.015254285620279074,
0.06408977556109725,0.006273041833155406,
0.06413965087281795,0.013252513464941296,
0.06418952618453866,0.008164859764485756,
0.06423940149625935,0.014219476051789862,
0.06428927680798005,0.014829016714344901,
0.06433915211970075,0.0032657906176558997,
0.06438902743142144,0.010971287871366711,
0.06443890274314215,0.0278943699689068,
0.06448877805486285,0.022047776675239206,
0.06453865336658354,0.026196496058836016,
0.06458852867830424,0.02363711313379539,
0.06463840399002493,0.009400619589728496,
0.06468827930174563,0.0517314540935605,
0.06473815461346634,0.035499290711896815,
0.06478802992518704,0.035262281149993115,
0.06483790523690773,0.02332281244025288,
0.06488778054862843,-0.0019579624207725875,
0.06493765586034912,0.034654424065452424,
0.06498753117206983,0.0015659312218226605,
0.06503740648379053,0.026728813257145493,
0.06508728179551122,0.013551907413196475,
0.06513715710723192,0.033252747187324315,
0.06518703241895261,0.03369432831404458,
0.06523690773067331,0.0380369307500476,
0.06528678304239402,0.04501727849261132,
0.06533665835411472,0.018072923834488667,
0.06538653366583541,0.022153245644746057,
0.06543640897755611,0.018903527113788038,
0.0654862842892768,-0.012221811719610662,
0.06553615960099751,0.0431088719286181,
0.06558603491271821,0.02497460690029971,
0.0656359102244389,0.020591718117709094,
0.0656857855361596,0.03783248568301002,
0.0657356608478803,0.014756027940759746,
0.06578553615960099,0.022025665558847208,
0.0658354114713217,0.02507148574199014,
0.0658852867830424,0.018161079731487537,
0.06593516209476309,0.023377444789708747,
0.06598503740648379,0.006521722118327345,
0.06603491271820448,0.04022033025447205,
0.06608478802992519,0.026969867280633747,
0.06613466334164589,0.043602968899633165,
0.06618453865336658,0.03098267471364197,
0.06623441396508728,0.016981860807059032,
0.06628428927680798,-0.002439661995383393,
0.06633416458852869,0.01795516461113352,
0.06638403990024938,0.010948482428294038,
0.06643391521197008,0.02370040988427019,
0.06648379052369077,-0.004677917520328589,
0.06653366583541147,0.0043258625685469385,
0.06658354114713216,0.061898933045939006,
0.06663341645885287,0.04532664704461842,
0.06668329177057357,0.018059216965790256,
0.06673316708229426,0.02581781878952596,
0.06678304239401496,0.023307419014951827,
0.06683291770573566,0.03585987966072546,
0.06688279301745637,0.028373517332045732,
0.06693266832917706,0.0049865091086026825,
0.06698254364089776,0.01031527992895042,
0.06703241895261845,0.022786377829246068,
0.06708229426433915,0.05259081997056213,
0.06713216957605984,0.026582689801946037,
0.06718204488778055,0.015147086350466844,
0.06723192019950125,-0.0076735404902929585,
0.06728179551122195,0.03557768036784254,
0.06733167082294264,0.03635559588237535,
0.06738154613466334,0.009546604575131689,
0.06743142144638405,0.007258697782089707,
0.06748129675810474,0.016893951768563363,
0.06753117206982544,-0.005359502079012007,
0.06758104738154613,0.03474260716942683,
0.06763092269326683,0.011476237735486517,
0.06768079800498752,0.008194767183979082,
0.06773067331670823,-0.004980914946846292,
0.06778054862842893,0.004371598686012329,
0.06783042394014963,0.016860896463547645,
0.06788029925187032,-0.006600834600281855,
0.06793017456359102,0.02864373231440218,
0.06798004987531173,0.0005894514188418652,
0.06802992518703242,0.0057791920528782945,
0.06807980049875312,0.00739946803868787,
0.06812967581047381,0.017014695790032654,
0.06817955112219451,-0.02011823763547539,
0.0682294264339152,0.027463831245235125,
0.06827930174563591,0.0402507522688899,
0.06832917705735661,0.03232419032559492,
0.0683790523690773,-0.027275418104796535,
0.068428927680798,0.0065614951192967935,
0.0684788029925187,0.008229282828077281,
0.06852867830423941,0.018950771151727924,
0.0685785536159601,0.006805979801953016,
0.0686284289276808,0.013341083465817985,
0.0686783042394015,0.018478005468046947,
0.06872817955112219,-0.01334021164269246,
0.0687780548628429,0.00028017418302617864,
0.0688279301745636,0.0035159176226665567,
0.06887780548628429,0.009198077953994507,
0.06892768079800499,0.014062777989808825,
0.06897755610972568,-0.009526770999532502,
0.06902743142144638,-0.006759134265503461,
0.06907730673316709,0.005644613281672919,
0.06912718204488778,0.015654553891437155,
0.06917705735660848,-0.003918262606643236,
0.06922693266832917,0.009646887355497229,
0.06927680798004987,0.0020787746417257856,
0.06932668329177058,0.004413034930967261,
0.06937655860349128,-0.004437754439686517,
0.06942643391521197,0.010682237769899756,
0.06947630922693267,-0.010450166821074244,
0.06952618453865336,0.030607603660646972,
0.06957605985037406,0.014903458395592909,
0.06962593516209477,-0.0022392548808194117,
0.06967581047381546,0.010527052280521233,
0.06972568578553616,0.018707837009384987,
0.06977556109725686,0.0268766943492808,
0.06982543640897755,0.01816238772313125,
0.06987531172069826,0.0010747369191222759,
0.06992518703241896,0.0004554935453109708,
0.06997506234413965,0.02256790692769519,
0.07002493765586035,-0.009232473223166053,
0.07007481296758104,-0.008382099135012368,
0.07012468827930174,-0.017952526153529602,
0.07017456359102245,0.0066586924389944995,
0.07022443890274314,-0.006120653016477512,
0.07027431421446384,-0.027289749130717512,
0.07032418952618454,0.00392898631963145,
0.07037406483790523,0.011877904885730622,
0.07042394014962594,-0.039524111629556394,
0.07047381546134664,0.01929916162070543,
0.07052369077306733,-0.007833721029627743,
0.07057356608478803,0.008720459802585775,
0.07062344139650872,0.017488665917146567,
0.07067331670822943,0.003164115036611269,
0.07072319201995013,0.002606236638256637,
0.07077306733167082,-0.015491395866535487,
0.07082294264339152,-0.01836845096362609,
0.07087281795511222,0.000875601479170476,
0.07092269326683291,-0.011254206448626273,
0.07097256857855362,-0.008315208236354933,
0.07102244389027432,-0.0034101839880685105,
0.07107231920199501,-0.010355794411690412,
0.07112219451371571,-0.010521158111472584,
0.0711720698254364,-0.025014514423690695,
0.07122194513715711,0.01146036080920528,
0.07127182044887781,-0.03547713563403246,
0.0713216957605985,0.0008228625113630636,
0.0713715710723192,-0.01952158719214259,
0.0714214463840399,-0.0008537848394831078,
0.07147132169576059,-0.00276197987832208,
0.0715211970074813,-0.014983587329622582,
0.071571072319202,-0.008979240865465195,
0.0716209476309227,0.01270271645738596,
0.07167082294264339,-0.018336124737680478,
0.07172069825436408,0.008172903614198878,
0.0717705735660848,0.016153868442113625,
0.07182044887780549,-0.006068476478370211,
0.07187032418952619,-0.01058880244515488,
0.07192019950124688,-0.017086065726296396,
0.07197007481296758,-0.016042513290722583,
0.07201995012468827,-0.025607767924737256,
0.07206982543640898,0.007051509386809754,
0.07211970074812968,0.009630150148159749,
0.07216957605985037,-0.016759342146494015,
0.07221945137157107,0.009641504939902928,
0.07226932668329177,0.00679392227611041,
0.07231920199501247,-0.014058182539449748,
0.07236907730673317,-0.027045379124320815,
0.07241895261845387,-0.01278559696744277,
0.07246882793017456,-0.002007355884198296,
0.07251870324189526,-0.025438334056972146,
0.07256857855361595,-0.024556623193633803,
0.07261845386533666,-0.022683666182021375,
0.07266832917705736,0.0007504659032698171,
0.07271820448877805,-0.033256547143901666,
0.07276807980049875,-0.02703590424970672,
0.07281795511221945,0.004038180522930165,
0.07286783042394016,-0.015507864393319207,
0.07291770573566085,-0.005302939074095624,
0.07296758104738155,-0.03229529978289697,
0.07301745635910224,-0.016671398557506437,
0.07306733167082294,-0.023042624450283093,
0.07311720698254365,0.008528098884889285,
0.07316708229426434,0.0019539026166606206,
0.07321695760598504,-0.0017014402027194994,
0.07326683291770573,-0.010083596651000604,
0.07331670822942643,-0.019943707084035825,
0.07336658354114713,-0.010286825169819375,
0.07341645885286784,-0.010770154222594495,
0.07346633416458853,-0.00681675817514264,
0.07351620947630923,-0.019781277787550053,
0.07356608478802992,-0.0035390861996772473,
0.07361596009975062,-0.0005060485476863566,
0.07366583541147133,-0.038145357608422456,
0.07371571072319202,0.0027755875148441633,
0.07376558603491272,-0.005427191054180425,
0.07381546134663342,-0.013418294757621385,
0.07386533665835411,-0.0003016334329764437,
0.0739152119700748,-0.022615165074290577,
0.07396508728179552,-0.003532886847808687,
0.07401496259351621,-0.029375553112229322,
0.07406483790523691,-0.009969464363384434,
0.0741147132169576,0.005516116398667243,
0.0741645885286783,-0.038612969734462654,
0.07421446384039901,-0.0011534970025531797,
0.0742643391521197,-0.013127064859673427,
0.0743142144638404,-0.015108751075371617,
0.0743640897755611,-0.003607015947755048,
0.07441396508728179,-0.009333775084884543,
0.07446384039900249,-0.0009963097852933832,
0.0745137157107232,-0.019471678046051894,
0.07456359102244389,-0.02008062884636051,
0.07461346633416459,-0.04134532444879619,
0.07466334164588528,-0.019229069205136708,
0.07471321695760598,-0.0028086408227524506,
0.07476309226932669,-0.02500887903498217,
0.07481296758104738,-0.014137199937449885,
0.07486284289276808,-0.02961247441991807,
0.07491271820448878,-0.012104110973814981,
0.07496259351620947,-0.032359560074598684,
0.07501246882793017,-0.009804284199307088,
0.07506234413965088,-0.0018780777674055216,
0.07511221945137157,-0.03548326619169585,
0.07516209476309227,-0.006997715010354368,
0.07521197007481296,-0.01959228416565792,
0.07526184538653366,-0.027486422695669765,
0.07531172069825437,-0.0195949752004327,
0.07536159600997507,-0.0355730487552226,
0.07541147132169576,-0.004024321579643754,
0.07546134663341646,-0.014302575096140833,
0.07551122194513715,-0.011033873580308296,
0.07556109725685786,-0.018456926652061577,
0.07561097256857856,-0.0513051514133169,
0.07566084788029925,-0.04918007445198902,
0.07571072319201995,-0.012960000600402696,
0.07576059850374064,-0.012132809509295229,
0.07581047381546134,-0.03644755682282119,
0.07586034912718205,0.00732996412226773,
0.07591022443890275,-0.00014246693202028989,
0.07596009975062344,-0.009878424410607808,
0.07600997506234414,-0.013283357045444663,
0.07605985037406483,-0.039600020648209215,
0.07610972568578554,-0.04623796422435109,
0.07615960099750624,-0.039942896046407245,
0.07620947630922693,-0.02953109449790141,
0.07625935162094763,-0.024654010785022953,
0.07630922693266833,-0.035139373400189806,
0.07635910224438902,-0.0026010137543505396,
0.07640897755610973,0.0011800702817164402,
0.07645885286783043,-0.01772522895631815,
0.07650872817955112,-0.013310892966960064,
0.07655860349127182,-0.041012937796796406,
0.07660847880299251,-0.02280830499919549,
0.07665835411471322,-0.02962554267264477,
0.07670822942643392,-0.007899077730050727,
0.07675810473815461,-0.032819945343113166,
0.07680798004987531,-0.006655282673891901,
0.076857855361596,-0.007300893190557531,
0.0769077306733167,-0.006629049566842574,
0.07695760598503741,-0.029009994182463444,
0.0770074812967581,-0.013233285799967421,
0.0770573566084788,0.012438137303576402,
0.0771072319201995,-0.052371562289159776,
0.0771571072319202,-0.015445644150661056,
0.0772069825436409,0.017120745330459066,
0.0772568578553616,-0.019491523839056904,
0.0773067331670823,0.0033367618151454222,
0.07735660847880299,-0.02153590078156646,
0.07740648379052369,-0.009692067311749803,
0.0774563591022444,-0.0032962377440803395,
0.07750623441396509,-0.03375872143463974,
0.07755610972568579,-0.01629618594846351,
0.07760598503740648,-0.009286159917340785,
0.07765586034912718,0.016883930593117734,
0.07770573566084787,-0.011739750057228139,
0.07775561097256858,-0.00162461214420756,
0.07780548628428928,-0.01674579378634936,
0.07785536159600998,-0.0016858015004489694,
0.07790523690773067,-0.005885630422000999,
0.07795511221945137,-0.0005441776496370064,
0.07800498753117208,-0.0075096985851536985,
0.07805486284289277,0.004777702430939249,
0.07810473815461347,0.023692606015442368,
0.07815461346633416,0.002745187738250915,
0.07820448877805486,-0.011223907859969046,
0.07825436408977555,0.013272160780265541,
0.07830423940149626,-0.017946767644759498,
0.07835411471321696,-0.01362637062361052,
0.07840399002493766,-0.01080996496749249,
0.07845386533665835,-0.017201270191702867,
0.07850374064837905,0.004689070386802718,
0.07855361596009976,-0.001110257533903688,
0.07860349127182045,-0.0024052451579347402,
0.07865336658354115,-0.01683509092137645,
0.07870324189526184,0.012039622610862943,
0.07875311720698254,-0.00574601714435385,
0.07880299251870324,0.006338695681779176,
0.07885286783042394,-0.013934220221127174,
0.07890274314214464,0.008841359239290806,
0.07895261845386534,0.017624777793721416,
0.07900249376558603,-0.008692989518751307,
0.07905236907730673,0.010606268362595556,
0.07910224438902744,-0.004863100558151179,
0.07915211970074813,-0.0057278373326145535,
0.07920199501246883,-0.0025397827030232034,
0.07925187032418952,-0.020976435746678745,
0.07930174563591022,-0.0067734580645543285,
0.07935162094763092,0.0038436593815748647,
0.07940149625935163,0.005913733420446513,
0.07945137157107232,-0.0019934571863724423,
0.07950124688279302,0.01795225266581452,
0.07955112219451371,0.015687790679952955,
0.07960099750623441,0.015126281818922664,
0.07965087281795512,0.007985855031343615,
0.07970074812967581,0.0030641611349933717,
0.07975062344139651,-0.009008482524150381,
0.0798004987531172,0.016500475517746527,
0.0798503740648379,0.028832634911291913,
0.07990024937655861,0.0035965084650693042,
0.0799501246882793,-0.01739454613370127,
0.08,-0.0014091249784797524,
0.0800498753117207,0.002654913077525886,
0.0800997506234414,0.025938573433022014,
0.08014962593516209,-0.004947009195583286,
0.0801995012468828,0.00701383778891807,
0.0802493765586035,0.027777386649655157,
0.08029925187032419,0.02747468201781059,
0.08034912718204489,0.011230569267955109,
0.08039900249376558,0.005623811359073363,
0.08044887780548629,-0.006483771943057017,
0.08049875311720699,-0.0007866639353131116,
0.08054862842892768,0.015485420641812523,
0.08059850374064838,0.02119941490308798,
0.08064837905236907,0.0070019736169737576,
0.08069825436408977,-0.006766806316376566,
0.08074812967581048,0.02866818772188659,
0.08079800498753117,0.012282051849334282,
0.08084788029925187,0.02041910189841993,
0.08089775561097257,0.008198544776656116,
0.08094763092269326,0.014816205327698635,
0.08099750623441397,0.01768398961933699,
0.08104738154613467,-0.020853343401997584,
0.08109725685785536,0.002662995551566027,
0.08114713216957606,0.03310380718584854,
0.08119700748129675,0.008860672461763669,
0.08124688279301745,0.014636219959156838,
0.08129675810473816,0.017124264278249132,
0.08134663341645886,0.020404608708840394,
0.08139650872817955,0.03150745322443783,
0.08144638403990025,0.010895274465365413,
0.08149625935162094,0.023344859202609206,
0.08154613466334165,0.01862408176260848,
0.08159600997506235,-0.010055823037077364,
0.08164588528678304,0.005658280064315145,
0.08169576059850374,0.010744298046350537,
0.08174563591022443,0.0021443759068868057,
0.08179551122194513,0.00940500929938162,
0.08184538653366584,-0.013460485013880134,
0.08189526184538654,0.0100247797218486,
0.08194513715710723,0.021029002653393233,
0.08199501246882793,0.018354473459986316,
0.08204488778054862,0.019539735437778562,
0.08209476309226933,0.027019507776024153,
0.08214463840399003,0.0182515833606492,
0.08219451371571072,0.033768695192952364,
0.08224438902743142,0.030638337594471154,
0.08229426433915212,0.047376201899764665,
0.08234413965087282,0.019636321170536045,
0.08239401496259352,0.018491164787122344,
0.08244389027431422,0.03653673898747878,
0.08249376558603491,0.02370617283287707,
0.08254364089775561,-0.0012513244114022229,
0.0825935162094763,0.04725519825031591,
0.08264339152119701,-0.0013163935580813163,
0.08269326683291771,0.01093118854323149,
0.0827431421446384,0.02392096826281716,
0.0827930174563591,0.01605054052828432,
0.0828428927680798,0.027038250835168032,
0.0828927680798005,0.039925080250457726,
0.0829426433915212,0.013514384631774741,
0.0829925187032419,0.03462023284742952,
0.08304239401496259,0.028356053064196755,
0.08309226932668329,0.0350467117759274,
0.08314214463840398,0.01678076421261233,
0.0831920199501247,0.03314108040402356,
0.08324189526184539,0.03977052408438934,
0.08329177057356608,0.01159997001712781,
0.08334164588528678,0.008643444647921297,
0.08339152119700748,0.017661083009251365,
0.08344139650872819,0.04352125139505415,
0.08349127182044888,0.01029059803082482,
0.08354114713216958,0.019454467552881292,
0.08359102244389027,0.0217278247242325,
0.08364089775561097,0.031156387786517067,
0.08369077306733166,0.04806434277034342,
0.08374064837905237,0.020331301150527607,
0.08379052369077307,0.03031058683454498,
0.08384039900249377,0.018122517850077496,
0.08389027431421446,0.01609819810312512,
0.08394014962593516,0.015883522456186724,
0.08399002493765587,0.011830766025770982,
0.08403990024937656,0.03149054878797224,
0.08408977556109726,0.02951003246143886,
0.08413965087281795,0.025928371653063626,
0.08418952618453865,0.01263583812063999,
0.08423940149625936,0.03573261997679125,
0.08428927680798005,-0.0038804188922721763,
0.08433915211970075,0.03971058054048456,
0.08438902743142145,0.01093408398871351,
0.08443890274314214,0.02273100088851931,
0.08448877805486284,0.03841475533319358,
0.08453865336658355,0.03198530553572535,
0.08458852867830424,0.015993330546064645,
0.08463840399002494,0.051437915383372015,
0.08468827930174563,0.0547981181961584,
0.08473815461346633,0.017564495369036995,
0.08478802992518704,0.03284315586279899,
0.08483790523690773,0.013805235463113769,
0.08488778054862843,0.03604941617496452,
0.08493765586034913,0.027372497678784975,
0.08498753117206982,0.03409718366279412,
0.08503740648379052,0.025910694982229258,
0.08508728179551123,0.02352542225874108,
0.08513715710723192,0.05052032027170475,
0.08518703241895262,0.027302621828830045,
0.08523690773067331,0.02821516409746393,
0.08528678304239401,0.05271099515609966,
0.08533665835411472,0.018370410093539024,
0.08538653366583542,0.0003286825657818869,
0.08543640897755611,0.017514039786290826,
0.0854862842892768,0.03536772360016173,
0.0855361596009975,0.034283596785308956,
0.0855860349127182,0.02617567159631921,
0.08563591022443891,0.021131280022948867,
0.0856857855361596,0.022930992908384767,
0.0857356608478803,0.028169300992367145,
0.085785536159601,0.023654139682412475,
0.08583541147132169,0.014434727959499084,
0.0858852867830424,0.021886022210294225,
0.0859351620947631,0.007260703426436338,
0.08598503740648379,0.029327872580515484,
0.08603491271820449,0.05044918600012985,
0.08608478802992518,-0.0063861479779267,
0.08613466334164588,0.012932733092167656,
0.08618453865336659,0.029799351202784517,
0.08623441396508728,0.016335008357481987,
0.08628428927680798,0.012327603363038734,
0.08633416458852868,0.047771152259633666,
0.08638403990024937,0.02290597957441128,
0.08643391521197008,0.02987859525417113,
0.08648379052369078,-0.002490955428717242,
0.08653366583541147,0.007071301845499728,
0.08658354114713217,0.038927231110735344,
0.08663341645885286,0.016344938463164572,
0.08668329177057357,0.02464736372039095,
0.08673316708229427,0.04124562244476066,
0.08678304239401496,0.012364099670775773,
0.08683291770573566,0.037201144997294155,
0.08688279301745636,0.028652529822882945,
0.08693266832917705,0.0028013933646816834,
0.08698254364089776,0.009618718593125648,
0.08703241895261846,0.018517025190121845,
0.08708229426433915,-0.011454706060856738,
0.08713216957605985,0.01491522396073586,
0.08718204488778054,0.030246205895626536,
0.08723192019950125,0.02170976160568012,
0.08728179551122195,0.024539786750179846,
0.08733167082294264,0.05283403380199929,
0.08738154613466334,0.020945354307499626,
0.08743142144638404,0.022933457851915782,
0.08748129675810473,0.015053236520181996,
0.08753117206982544,0.019056611581984243,
0.08758104738154614,0.04165457602003808,
0.08763092269326683,0.02008348607354014,
0.08768079800498753,0.017213373241042152,
0.08773067331670822,0.03232488645882203,
0.08778054862842893,0.039334531452199686,
0.08783042394014963,0.01802405280584914,
0.08788029925187033,0.023280067708441286,
0.08793017456359102,0.022554192189754685,
0.08798004987531172,0.012403132676209164,
0.08802992518703241,-0.00446347567343118,
0.08807980049875312,0.011613876836338207,
0.08812967581047382,0.03994419908449688,
0.08817955112219451,0.028283344452695598,
0.08822942643391521,0.012353140084665263,
0.0882793017456359,0.02130910175660565,
0.08832917705735661,0.022318921395776573,
0.08837905236907731,0.006014109343420403,
0.088428927680798,0.015754684318477905,
0.0884788029925187,0.03551243788967414,
0.0885286783042394,-0.004949070035171671,
0.0885785536159601,0.024029229814998,
0.0886284289276808,-0.00837784850281472,
0.0886783042394015,0.026260798508257334,
0.0887281795511222,0.020459736312211,
0.08877805486284289,0.01809282473187704,
0.08882793017456359,0.04691313983117196,
0.0888778054862843,0.0034241993105210734,
0.08892768079800499,0.021809354520807282,
0.08897755610972569,0.010928805005147047,
0.08902743142144638,0.0030620043330970848,
0.08907730673316708,-0.013831282722731427,
0.08912718204488779,-0.009157935267496366,
0.08917705735660848,0.01335076597509954,
0.08922693266832918,0.0338014574268832,
0.08927680798004987,0.02449041436935693,
0.08932668329177057,0.004223312065256323,
0.08937655860349127,0.04244491155181471,
0.08942643391521198,0.020057933176491724,
0.08947630922693267,0.022308575737370877,
0.08952618453865337,0.03154426314183047,
0.08957605985037406,0.03312616346392593,
0.08962593516209476,0.0266728035797719,
0.08967581047381547,0.02445435293849953,
0.08972568578553616,0.02286280743453041,
0.08977556109725686,0.001983153577814055,
0.08982543640897755,0.013692178791783659,
0.08987531172069825,0.00995742560690654,
0.08992518703241895,0.0001980747618565079,
0.08997506234413966,0.006945117164186831,
0.09002493765586035,0.006311211566118217,
0.09007481296758105,0.016201847480805158,
0.09012468827930174,0.004531129998301435,
0.09017456359102244,0.0002870518038815455,
0.09022443890274315,0.005816516820654668,
0.09027431421446384,0.014517599118350696,
0.09032418952618454,0.008356547305577071,
0.09037406483790524,0.00428243145303568,
0.09042394014962593,0.013483688885550557,
0.09047381546134663,-0.0006757930917661759,
0.09052369077306734,-0.008338705806816664,
0.09057356608478803,0.002181655710226697,
0.09062344139650873,-0.004955812868403134,
0.09067331670822942,0.0058596695269156765,
0.09072319201995012,-0.015579719807640464,
0.09077306733167083,-0.013216037397823415,
0.09082294264339152,-0.0029325491034772853,
0.09087281795511222,0.0014072436539966377,
0.09092269326683292,-0.02083069356257356,
0.09097256857855361,0.004062232092750277,
0.09102244389027432,0.010754352687180545,
0.09107231920199502,0.003925413334097418,
0.09112219451371571,-0.00675336792938821,
0.09117206982543641,0.007767785914947746,
0.0912219451371571,-0.008203413774776446,
0.0912718204488778,0.0051231899018857,
0.09132169576059851,-0.0022071742152773278,
0.0913715710723192,0.006519669155064717,
0.0914214463840399,0.02446586562678645,
0.0914713216957606,0.00714872427062902,
0.09152119700748129,-0.0005097216760841924,
0.091571072319202,-0.004960530383250303,
0.0916209476309227,0.007542566022644961,
0.09167082294264339,0.0012924895177653046,
0.09172069825436409,-0.016718297565891133,
0.09177057356608478,0.004335273176065967,
0.09182044887780548,-0.014482098686659443,
0.09187032418952619,-0.02118911094228683,
0.09192019950124689,-0.019315694164197567,
0.09197007481296758,-0.007881552635214147,
0.09201995012468828,-0.01772132884860876,
0.09206982543640897,0.010014530111436049,
0.09211970074812968,-0.016697943945311516,
0.09216957605985038,-0.0178892969928776,
0.09221945137157107,-0.009393027265072705,
0.09226932668329177,-0.0005202915219931709,
0.09231920199501246,0.007431897262899378,
0.09236907730673316,-0.02566184063699884,
0.09241895261845387,0.007840305232741962,
0.09246882793017457,0.013111602670422221,
0.09251870324189526,-0.023966492397235493,
0.09256857855361596,-0.011643709238031324,
0.09261845386533665,-0.017321228148723056,
0.09266832917705736,0.024319697992102075,
0.09271820448877806,-0.022468750011104006,
0.09276807980049875,-0.01304041844031073,
0.09281795511221945,-0.015998424267710573,
0.09286783042394015,-0.01907772642867739,
0.09291770573566084,-0.014389662412930115,
0.09296758104738155,-0.004720333340937803,
0.09301745635910225,0.02324839314161164,
0.09306733167082294,-0.003869589247859586,
0.09311720698254364,-0.02352233953123467,
0.09316708229426433,-0.003005968190800311,
0.09321695760598504,-0.021543061655190134,
0.09326683291770574,-0.015125515309578286,
0.09331670822942643,-0.01832703057874074,
0.09336658354114713,-0.00400617112569802,
0.09341645885286783,-0.01799810275039357,
0.09346633416458854,-0.018788658609031696,
0.09351620947630923,0.017241719828621542,
0.09356608478802993,-0.00021292964406290256,
0.09361596009975062,-0.01464081695266626,
0.09366583541147132,-0.0027636628478479863,
0.09371571072319201,-0.021187495281903033,
0.09376558603491272,-0.006653120304304923,
0.09381546134663342,0.019666535398593015,
0.09386533665835411,-0.01450028757306473,
0.09391521197007481,-0.011382414412280517,
0.0939650872817955,-0.028490746580125938,
0.09401496259351622,-0.006565264972729931,
0.09406483790523691,-0.01207766624639995,
0.09411471321695761,-0.016043422376392526,
0.0941645885286783,0.012109219689398792,
0.094214463840399,-0.01766159861837339,
0.0942643391521197,-0.028435141646993085,
0.0943142144638404,0.010938707889266399,
0.0943640897755611,-0.0027880626570300545,
0.0944139650872818,-0.00588514315083119,
0.09446384039900249,-0.0002097252717590519,
0.09451371571072319,0.0031583648936526383,
0.0945635910224439,-0.023040133240178527,
0.09461346633416459,0.00424857822894451,
0.09466334164588529,-0.031210288306925554,
0.09471321695760598,-0.0023176724297925364,
0.09476309226932668,-0.03947666341917005,
0.09481296758104737,-0.005541401987131692,
0.09486284289276808,-0.006467511467459064,
0.09491271820448878,-0.02941504984412707,
0.09496259351620948,-0.012107514811220077,
0.09501246882793017,0.0015309219750554263,
0.09506234413965087,-0.01245752258364527,
0.09511221945137158,-0.022132294918838055,
0.09516209476309227,0.00044464327579768134,
0.09521197007481297,-0.015121477607037428,
0.09526184538653366,-0.010067589648821039,
0.09531172069825436,-0.02147817930907895,
0.09536159600997507,-0.013401461349252703,
0.09541147132169576,0.009759871538599708,
0.09546134663341646,0.00385067578825676,
0.09551122194513716,-0.03580865192287903,
0.09556109725685785,-0.012987624885467336,
0.09561097256857855,-0.021666550519616294,
0.09566084788029926,0.0029337967904827875,
0.09571072319201995,-0.03995374108424742,
0.09576059850374065,-0.011623560109867715,
0.09581047381546134,-0.008535703971920994,
0.09586034912718204,-0.019156449585817505,
0.09591022443890275,-0.00992497604871271,
0.09596009975062345,0.003619533265850629,
0.09600997506234414,-0.029634378992486433,
0.09605985037406484,-0.018036449589715238,
0.09610972568578553,0.004630967365882276,
0.09615960099750623,0.009715205143603635,
0.09620947630922694,-0.004453398085040741,
0.09625935162094763,-0.015170375806839984,
0.09630922693266833,-0.03327040179779378,
0.09635910224438902,-0.0010756516105181347,
0.09640897755610972,0.02629754592114817,
0.09645885286783043,0.01725573325182119,
0.09650872817955113,-0.023362544317416804,
0.09655860349127182,-0.0012218279180443124,
0.09660847880299252,-0.0454100122954259,
0.09665835411471321,-0.012139964273460781,
0.09670822942643391,0.00796392317986937,
0.09675810473815462,-0.015556279701427358,
0.09680798004987531,0.0027257200730584925,
0.09685785536159601,5.234953044552619e-05,
0.0969077306733167,-0.02532912344492222,
0.0969576059850374,0.001567240178114675,
0.09700748129675811,-0.0016136940038245107,
0.0970573566084788,-0.030228594919587827,
0.0971072319201995,-0.001961182894035537,
0.0971571072319202,0.02022443121781564,
0.0972069825436409,0.005304123726589605,
0.09725685785536159,0.019000048532945235,
0.0973067331670823,-0.011071181538092376,
0.097356608478803,0.00034321059512118935,
0.09740648379052369,-0.027694096151059083,
0.09745635910224439,0.022861971773725273,
0.09750623441396508,-0.019048957379318103,
0.09755610972568579,-0.007350121237193999,
0.09760598503740649,-0.02323935569102595,
0.09765586034912718,-0.004399042380132513,
0.09770573566084788,-0.03912124761651084,
0.09775561097256857,-0.016163951782441975,
0.09780548628428928,-0.028976589903350076,
0.09785536159600998,0.007009205752582479,
0.09790523690773068,-0.006800074759265242,
0.09795511221945137,0.009333046533697108,
0.09800498753117207,0.01904537694794634,
0.09805486284289276,-0.00012167052834934251,
0.09810473815461347,0.007871580317725224,
0.09815461346633417,0.012159769541122557,
0.09820448877805486,-0.007043591934246554,
0.09825436408977556,-0.02150336719644395,
0.09830423940149625,-0.009766867727966637,
0.09835411471321696,-0.011831414915666395,
0.09840399002493766,-0.021967560599956096,
0.09845386533665836,0.00119102208763573,
0.09850374064837905,0.0037811491418531214,
0.09855361596009975,0.01403071783712029,
0.09860349127182044,0.015824155858190688,
0.09865336658354115,0.0009509478395344993,
0.09870324189526185,-5.628219136322296e-06,
0.09875311720698254,-0.0070710055311853605,
0.09880299251870324,-0.02061894985865067,
0.09885286783042393,0.01845402103450598,
0.09890274314214464,0.010799039063319308,
0.09895261845386534,-0.0005963329614840358,
0.09900249376558604,-0.033612410661209915,
0.09905236907730673,0.009535518884034458,
0.09910224438902743,0.009719212214832802,
0.09915211970074812,-0.011212038174045987,
0.09920199501246883,-0.003063453913246141,
0.09925187032418953,0.00013756021462919127,
0.09930174563591022,-0.0018646929187272863,
0.09935162094763092,0.03847153202942794,
0.09940149625935162,-0.0012195688696215465,
0.09945137157107233,-0.010056781338328352,
0.09950124688279302,-0.008661479446412025,
0.09955112219451372,-0.01168945853542201,
0.09960099750623441,0.014564656685730796,
0.09965087281795511,-0.02327523794093403,
0.0997007481296758,-0.015477132024794105,
0.09975062344139651,0.01624904055525619,
0.09980049875311721,0.021866056409711458,
0.0998503740648379,0.01286589467046382,
0.0999002493765586,0.01811126338127276,
0.0999501246882793,0.012188046187265697,
0.1,0.0005002463112867058,
0.1000498753117207,0.013403634439501766,
0.1000997506234414,0.028079705088123064,
0.10014962593516209,0.012404596572247132,
0.10019950124688279,-0.007332283720972856,
0.1002493765586035,-0.001874416011801749,
0.1002992518703242,0.01585668952361282,
0.10034912718204489,0.020310650615390755,
0.10039900249376559,0.016164488678187962,
0.10044887780548628,0.012964791083811381,
0.10049875311720698,0.027513294648983572,
0.10054862842892769,0.004435647640982603,
0.10059850374064838,0.03286982320005802,
0.10064837905236908,0.0003651351912243757,
0.10069825436408977,0.01277219313845462,
0.10074812967581047,0.01905519950111921,
0.10079800498753118,0.020536348878060738,
0.10084788029925187,-0.009680382446797281,
0.10089775561097257,0.025379570003066253,
0.10094763092269327,0.017836453784520537,
0.10099750623441396,0.016240369611519034,
0.10104738154613466,0.024834309768729808,
0.10109725685785537,0.0012165443669451843,
0.10114713216957606,0.013917231791865582,
0.10119700748129676,-0.009858005394528739,
0.10124688279301745,0.04127515930147442,
0.10129675810473815,-0.0003027747807516114,
0.10134663341645886,0.0067523208271792305,
0.10139650872817955,0.006481397995450031,
0.10144638403990025,0.052789402888602024,
0.10149625935162095,0.03095955838062086,
0.10154613466334164,0.006571704861769778,
0.10159600997506234,0.010313344176576688,
0.10164588528678305,0.03559838462253884,
0.10169576059850374,-0.014831941108232518,
0.10174563591022444,0.020650080419618397,
0.10179551122194513,0.012621058332819918,
0.10184538653366583,-0.0010850095514058217,
0.10189526184538654,0.0050334011712937395,
0.10194513715710724,0.022585737579338436,
0.10199501246882793,0.024691170178682397,
0.10204488778054863,0.0018352784698679563,
0.10209476309226932,0.0017408906902106544,
0.10214463840399003,0.015832292494885804,
0.10219451371571073,0.03228678892638592,
0.10224438902743142,0.03843601701853655,
0.10229426433915212,0.022921383158782307,
0.10234413965087281,0.008519721700569046,
0.10239401496259351,0.0023115964038423267,
0.10244389027431422,0.03932509744070421,
0.10249376558603492,0.0381680904345081,
0.10254364089775561,0.009834382539673956,
0.10259351620947631,-0.003769734757576363,
0.102643391521197,0.023689516808983624,
0.10269326683291771,0.02858673270105465,
0.10274314214463841,0.005324735910939116,
0.1027930174563591,0.019079339617097194,
0.1028428927680798,0.00810217790172979,
0.1028927680798005,0.03374979250668851,
0.10294264339152119,0.021975387267646456,
0.1029925187032419,-0.0029111381174577074,
0.1030423940149626,0.030310607733738577,
0.10309226932668329,0.019328122409534795,
0.10314214463840399,0.002684155621998592,
0.10319201995012468,0.014571615014681136,
0.10324189526184539,0.014885580922248575,
0.10329177057356609,0.04322897449630591,
0.10334164588528678,0.037452696578124896,
0.10339152119700748,0.018339524685078754,
0.10344139650872818,0.061519110304539174,
0.10349127182044887,0.03134807932151194,
0.10354114713216958,0.038888655276695216,
0.10359102244389028,0.0011525185368821793,
0.10364089775561097,0.03722269101189093,
0.10369077306733167,0.03204357803637789,
0.10374064837905236,0.037909514809477754,
0.10379052369077307,0.031941145167309816,
0.10384039900249377,0.03999434806173608,
0.10389027431421446,0.029254039731060076,
0.10394014962593516,0.015260693444532103,
0.10399002493765586,0.038139179956783606,
0.10403990024937655,0.010577523244735643,
0.10408977556109726,0.04553586439057983,
0.10413965087281796,0.031094057470390374,
0.10418952618453865,0.02334122744873432,
0.10423940149625935,0.018624562464033295,
0.10428927680798004,0.0032495638158660453,
0.10433915211970075,0.03431726666139752,
0.10438902743142145,0.047983481073679626,
0.10443890274314215,0.05081339958599271,
0.10448877805486284,0.05453272956600613,
0.10453865336658354,0.04433862830929851,
0.10458852867830425,0.03799521935844785,
0.10463840399002494,0.020872618444305834,
0.10468827930174564,0.04227982451759614,
0.10473815461346633,0.03413000759777335,
0.10478802992518703,0.026521017481641273,
0.10483790523690772,0.02975282797517472,
0.10488778054862843,0.039740736326505564,
0.10493765586034913,-0.005448450173722516,
0.10498753117206983,0.03188101776961087,
0.10503740648379052,0.03756239854524973,
0.10508728179551122,0.06852143371100122,
0.10513715710723193,0.006560893733144314,
0.10518703241895262,0.030314108708116922,
0.10523690773067332,0.01871546307132519,
0.10528678304239401,0.03346396203200585,
0.10533665835411471,0.0243819617157912,
0.1053865336658354,0.03076626842338675,
0.10543640897755611,0.03842204449242635,
0.10548628428927681,0.02222469572558134,
0.1055361596009975,0.03399506267098462,
0.1055860349127182,0.029123353680110008,
0.1056359102244389,0.023121118587207758,
0.10568578553615961,0.02177206034021774,
0.1057356608478803,0.038073017930788385,
0.105785536159601,0.039186984244191016,
0.1058354114713217,0.03993246174750541,
0.10588528678304239,0.02986893683461693,
0.10593516209476309,0.024714158819713377,
0.1059850374064838,0.0284910402173865,
0.10603491271820449,0.014216088981202918,
0.10608478802992519,0.04271439204356494,
0.10613466334164588,0.05164021985803237,
0.10618453865336658,0.032077840257503876,
0.10623441396508729,0.013398139218086969,
0.10628428927680798,0.009207096779708216,
0.10633416458852868,0.0559409041152321,
0.10638403990024937,0.02914688128672515,
0.10643391521197007,0.032729698987716827,
0.10648379052369077,0.014077770419865153,
0.10653366583541148,0.05394109097941562,
0.10658354114713217,0.038011510874368666,
0.10663341645885287,0.0296044125946139,
0.10668329177057356,0.006856018306514892,
0.10673316708229426,0.035011357699130996,
0.10678304239401497,0.0031712117555738363,
0.10683291770573566,0.012245862948846184,
0.10688279301745636,0.00018366231940364006,
0.10693266832917706,0.027800241018403612,
0.10698254364089775,0.01408458078006526,
0.10703241895261846,0.029875426032940113,
0.10708229426433916,0.05003321828540427,
0.10713216957605985,0.0038328710032650357,
0.10718204488778055,0.0406911747150821,
0.10723192019950124,0.0006472383971413732,
0.10728179551122194,0.017340872858689536,
0.10733167082294265,0.010159552716533828,
0.10738154613466334,0.02442701126812074,
0.10743142144638404,0.008219233564831126,
0.10748129675810474,0.006583840846539766,
0.10753117206982543,0.022271178549854477,
0.10758104738154614,0.020905825899926973,
0.10763092269326684,0.02363441110702231,
0.10768079800498753,0.011481018079399647,
0.10773067331670823,0.00023237198737121809,
0.10778054862842892,0.028429743809895283,
0.10783042394014962,-0.001524977988075514,
0.10788029925187033,0.015035583087787232,
0.10793017456359102,0.027598912694121864,
0.10798004987531172,0.011071996015897135,
0.10802992518703242,0.018697410515502704,
0.10807980049875311,0.012773954551161894,
0.10812967581047382,0.0012336256972160335,
0.10817955112219452,0.009768751843099704,
0.10822942643391521,0.03979666168962181,
0.10827930174563591,0.029443679449031625,
0.1083291770573566,0.011832831598948618,
0.1083790523690773,0.010562468512145873,
0.10842892768079801,0.01113838570384126,
0.1084788029925187,-0.010011829706428315,
0.1085286783042394,0.03631663673639811,
0.1085785536159601,-0.002843779743797372,
0.10862842892768079,0.01261224496609755,
0.1086783042394015,0.026153923463688097,
0.1087281795511222,0.039252621686962245,
0.1087780548628429,0.011239501512228228,
0.10882793017456359,0.0185557369757085,
0.10887780548628428,0.02998386906833588,
0.108927680798005,0.017214791250428407,
0.10897755610972569,0.011547139210557814,
0.10902743142144639,0.005516416649756846,
0.10907730673316708,0.005104885916657037,
0.10912718204488778,-0.0021010070370774073,
0.10917705735660847,0.012445725686916272,
0.10922693266832918,0.007443120166224967,
0.10927680798004988,-0.015293866169912419,
0.10932668329177057,0.009586182129171145,
0.10937655860349127,0.009042295886193142,
0.10942643391521197,0.010603646247454735,
0.10947630922693267,0.03717642054430047,
0.10952618453865337,0.007724773236577851,
0.10957605985037407,0.006176854905589231,
0.10962593516209476,0.014862588350781188,
0.10967581047381546,-0.007236296717264204,
0.10972568578553615,-0.015273413791151238,
0.10977556109725686,0.04066782960430491,
0.10982543640897756,0.0023950722177428782,
0.10987531172069825,-0.006644081856089947,
0.10992518703241895,-0.009599841936689491,
0.10997506234413965,-0.002396431576901408,
0.11002493765586036,-0.00038860261754215634,
0.11007481296758105,0.002603142394320009,
0.11012468827930175,0.0037369929462011614,
0.11017456359102244,-0.0005406972125903929,
0.11022443890274314,-0.0035663803055122605,
0.11027431421446383,-0.0035123723548406253,
0.11032418952618454,0.011059538199166675,
0.11037406483790524,0.016988566681306414,
0.11042394014962593,0.021544016599779642,
0.11047381546134663,-0.018560109030235493,
0.11052369077306733,0.018437218903538208,
0.11057356608478804,-0.025724742879973964,
0.11062344139650873,0.004284710070099735,
0.11067331670822943,0.0043648831446030985,
0.11072319201995012,0.004982729472199786,
0.11077306733167082,-0.00861433507108151,
0.11082294264339151,-0.0010868342866921887,
0.11087281795511222,-0.020655750488015476,
0.11092269326683292,0.01736322666601546,
0.11097256857855362,-0.0030885809996178217,
0.11102244389027431,0.018933132624514293,
0.111072319201995,-0.012338626495290259,
0.11112219451371572,-0.003972281103311643,
0.11117206982543641,0.0054847618180064155,
0.11122194513715711,-0.00929051357375984,
0.1112718204488778,-0.024660923681325532,
0.1113216957605985,-0.014643430210027696,
0.11137157107231921,0.0007290085754246599,
0.1114214463840399,0.008032179161199934,
0.1114713216957606,-0.024390642889852248,
0.1115211970074813,0.007786559265911425,
0.11157107231920199,-0.005882177309691226,
0.11162094763092269,-0.000824525813798035,
0.1116708229426434,0.021409097630477374,
0.11172069825436409,-0.012478208181835522,
0.11177057356608479,-0.008960159158860101,
0.11182044887780548,-0.008326584710855968,
0.11187032418952618,0.003759954833114207,
0.11192019950124689,-0.0119173406618793,
0.11197007481296758,-0.00215579527004177,
0.11201995012468828,0.02106907104026271,
0.11206982543640898,0.005934987606131875,
0.11211970074812967,0.01618511446971318,
0.11216957605985037,0.00832131448401984,
0.11221945137157108,-0.03547721359080369,
0.11226932668329177,0.006671669329088914,
0.11231920199501247,-0.017018242313160833,
0.11236907730673316,-0.008438703643601025,
0.11241895261845386,0.029260218005493447,
0.11246882793017457,-0.006957727281452081,
0.11251870324189527,0.016629681421048235,
0.11256857855361596,-0.017024844089097074,
0.11261845386533666,0.007235551667866515,
0.11266832917705735,-0.032455558447222435,
0.11271820448877805,-0.008343042109414948,
0.11276807980049876,-0.029313790013792532,
0.11281795511221945,-0.020834498937557986,
0.11286783042394015,0.004262314868491194,
0.11291770573566084,-0.022363966466270445,
0.11296758104738154,0.0028389071972333493,
0.11301745635910225,-0.007622630633857683,
0.11306733167082295,-0.00020120141418292214,
0.11311720698254364,0.012794161243656722,
0.11316708229426434,-0.027286133174447412,
0.11321695760598503,-0.018340976480688054,
0.11326683291770574,-0.00691590303280836,
0.11331670822942644,-0.0329346910827166,
0.11336658354114713,-0.03547793515846521,
0.11341645885286783,-0.007161730427874749,
0.11346633416458853,-0.020785249627248096,
0.11351620947630922,-0.0347390176727681,
0.11356608478802993,-0.022218388843558444,
0.11361596009975063,-0.01861403679295962,
0.11366583541147132,-0.010719340933396564,
0.11371571072319202,-0.03700160356187777,
0.11376558603491271,0.019488359747066142,
0.11381546134663342,-0.014949377323282217,
0.11386533665835412,-0.03155660029845257,
0.11391521197007481,-0.01598109252826119,
0.11396508728179551,0.00406149800480273,
0.1140149625935162,0.0034423358810437513,
0.1140648379052369,-0.0011912466466071601,
0.11411471321695761,-0.001669599328556046,
0.1141645885286783,-0.021477884561119855,
0.114214463840399,-0.009627490390449266,
0.1142643391521197,0.005792763246966488,
0.1143142144638404,0.029231130369599453,
0.1143640897755611,-0.05072896678785015,
0.1144139650872818,-0.005988692229298378,
0.1144638403990025,-0.01705124401780051,
0.11451371571072319,-0.027164207433873613,
0.11456359102244389,-0.017846535045751385,
0.11461346633416458,-0.02558576684296579,
0.11466334164588529,0.00816377988526154,
0.11471321695760599,-0.032491658715195694,
0.11476309226932668,-0.018755370768027455,
0.11481296758104738,-0.021379722891906518,
0.11486284289276807,-0.005169677207843918,
0.11491271820448878,-0.0107688927755901,
0.11496259351620948,-0.00525252797629619,
0.11501246882793018,-0.006288148689292708,
0.11506234413965087,-0.029823887137141354,
0.11511221945137157,-0.026495229306742373,
0.11516209476309226,0.02259111051908818,
0.11521197007481297,0.014237197887710957,
0.11526184538653367,-0.02076908172749107,
0.11531172069825436,-0.006742329054669254,
0.11536159600997506,-0.040941392557915075,
0.11541147132169575,-0.021237212536744467,
0.11546134663341646,-0.02320459323981837,
0.11551122194513716,-0.03254012715073444,
0.11556109725685786,-0.03514016563501757,
0.11561097256857855,-0.03766529574614681,
0.11566084788029925,-0.04453226363717799,
0.11571072319201996,-0.0009426737628608576,
0.11576059850374065,-0.02760140121522435,
0.11581047381546135,-0.021099828141498078,
0.11586034912718204,-0.028548094110899973,
0.11591022443890274,-0.017553696810933345,
0.11596009975062344,-0.015842483388519797,
0.11600997506234415,-0.03529747772804961,
0.11605985037406484,-0.007698541203528969,
0.11610972568578554,-0.007999589997305946,
0.11615960099750623,0.009118032495938564,
0.11620947630922693,0.014417888467454237,
0.11625935162094764,0.008527496279589325,
0.11630922693266833,-0.03169654276132071,
0.11635910224438903,-0.006352472507637395,
0.11640897755610972,1.7276896218269833e-05,
0.11645885286783042,-0.005233313066999934,
0.11650872817955112,-0.025788649492394955,
0.11655860349127183,-0.00023400534917391875,
0.11660847880299252,0.007597449873655572,
0.11665835411471322,-0.017421407840837566,
0.11670822942643391,-0.012641697738196317,
0.11675810473815461,0.007276266411592448,
0.11680798004987532,0.017151665814065783,
0.11685785536159601,-0.02304474239621622,
0.11690773067331671,-0.004989637768398885,
0.1169576059850374,0.02176378958786148,
0.1170074812967581,-0.016599754763250516,
0.1170573566084788,-0.0030580691940747425,
0.1171072319201995,0.006417928825947964,
0.1171571072319202,0.0005860681947907655,
0.1172069825436409,-0.011973106160451451,
0.1172568578553616,-0.006155803800809147,
0.11730673316708229,0.015395762842979988,
0.117356608478803,-0.0016408453101230932,
0.1174064837905237,0.02547888813023118,
0.11745635910224439,-0.037160204142148975,
0.11750623441396509,-0.012871524985571193,
0.11755610972568578,0.006823200218128635,
0.11760598503740648,-0.029367531330591175,
0.11765586034912719,-0.010757316292284234,
0.11770573566084788,0.02047124794721654,
0.11775561097256858,0.013708927345620268,
0.11780548628428927,-0.0007294555857833653,
0.11785536159600997,0.04319077413248354,
0.11790523690773068,-0.011268130555508333,
0.11795511221945137,-0.004162593766613635,
0.11800498753117207,-0.011542362221848549,
0.11805486284289277,0.0033834307784732873,
0.11810473815461346,-0.010293186657762519,
0.11815461346633417,-0.018340074194050104,
0.11820448877805487,0.0025315081890166825,
0.11825436408977556,0.012400939368599283,
0.11830423940149626,-0.024223387506494533,
0.11835411471321695,-0.01259750036039037,
0.11840399002493765,-0.011048835544584806,
0.11845386533665836,-0.0330483873974224,
0.11850374064837906,0.00891276235650083,
0.11855361596009975,0.009558891480330192,
0.11860349127182045,-0.014617939616980515,
0.11865336658354114,0.004427968622610183,
0.11870324189526185,-0.0027615311243705124,
0.11875311720698255,0.0007855733526810449,
0.11880299251870324,-0.008350556390699647,
0.11885286783042394,-0.0036055167494287487,
0.11890274314214463,-0.027264417862081506,
0.11895261845386533,-0.0003933472879594762,
0.11900249376558604,0.011536526065268116,
0.11905236907730674,0.012932469933100536,
0.11910224438902743,0.009291424173004301,
0.11915211970074813,-0.0007443940314090947,
0.11920199501246882,0.047040385958576965,
0.11925187032418953,0.00041653266160645956,
0.11930174563591023,0.002835533857722806,
0.11935162094763092,-0.013281531863900502,
0.11940149625935162,0.01960909233857428,
0.11945137157107232,0.009740042818001317,
0.11950124688279301,0.010544380913146937,
0.11955112219451372,-0.01763189576237069,
0.11960099750623442,-0.017620786478269285,
0.11965087281795511,0.013141046290706792,
0.11970074812967581,0.018911657824112922,
0.1197506234413965,0.01411990609884812,
0.11980049875311721,0.017381709339827644,
0.11985037406483791,0.037332651097952016,
0.1199002493765586,0.012260462691308469,
0.1199501246882793,0.01783761378092466,
0.12,0.004091359083706235,
0.1200498753117207,0.015771247782176916,
0.1200997506234414,0.03142299188763597,
0.1201496259351621,0.016850912834530715,
0.12019950124688279,0.02172520789417888,
0.12024937655860349,0.014800587168414822,
0.12029925187032418,0.020100907661340733,
0.1203491271820449,0.0178621583344767,
0.12039900249376559,0.015577978226034413,
0.12044887780548628,0.038351309283074175,
0.12049875311720698,0.0035544164819282,
0.12054862842892768,0.02226451017284097,
0.12059850374064839,0.018922815978356038,
0.12064837905236908,0.00970213278174322,
0.12069825436408978,0.018458319267448085,
0.12074812967581047,0.027299306169031864,
0.12079800498753117,-0.0019763630258264157,
0.12084788029925186,0.029223566837078233,
0.12089775561097257,0.05069426035807985,
0.12094763092269327,-0.0008121652372395441,
0.12099750623441397,0.005150125449839726,
0.12104738154613466,-0.0059071649929965525,
0.12109725685785536,0.019346871972821048,
0.12114713216957607,0.004708387413238127,
0.12119700748129676,0.02483862601756896,
0.12124688279301746,0.0403423838441425,
0.12129675810473815,0.012700063103070064,
0.12134663341645885,0.02617087097931571,
0.12139650872817954,-0.0052907813157205864,
0.12144638403990025,0.015609039195255317,
0.12149625935162095,0.03558256012902483,
0.12154613466334165,0.009715156284493199,
0.12159600997506234,0.003958202149341051,
0.12164588528678304,0.019204819726929126,
0.12169576059850375,0.0025094019538731034,
0.12174563591022444,0.029573685137163838,
0.12179551122194514,0.030018399013825733,
0.12184538653366583,0.008469375423925628,
0.12189526184538653,0.04942080714914611,
0.12194513715710723,0.01754393955842539,
0.12199501246882793,0.021139653480861366,
0.12204488778054863,0.030109583890233296,
0.12209476309226933,0.01167294034142129,
0.12214463840399002,0.020194810725839597,
0.12219451371571072,0.02713795391675487,
0.12224438902743143,0.022927574163464238,
0.12229426433915212,0.03378319583099888,
0.12234413965087282,0.004290334773413222,
0.12239401496259351,0.007947911822481744,
0.12244389027431421,0.03780030146786447,
0.12249376558603492,0.042563926336020574,
0.12254364089775562,0.03132397512710322,
0.12259351620947631,-0.013597884710503633,
0.122643391521197,0.00923734774908267,
0.1226932668329177,0.013176017291921742,
0.1227431421446384,0.03896750505700064,
0.12279301745635911,0.05420079879599724,
0.1228428927680798,0.010480611122508358,
0.1228927680798005,0.0276133750930501,
0.1229426433915212,0.0012044023231527722,
0.12299251870324189,-0.0022568487254165173,
0.1230423940149626,0.03368454697510318,
0.1230922693266833,0.03509764340691455,
0.12314214463840399,0.04582082644414572,
0.12319201995012469,0.023109315356564006,
0.12324189526184538,0.0550444553902634,
0.12329177057356608,0.037085785266474935,
0.12334164588528679,0.04444294119199983,
0.12339152119700748,0.04481972995233412,
0.12344139650872818,0.04780432326196703,
0.12349127182044888,0.01581721128963762,
0.12354114713216957,0.03543830072837767,
0.12359102244389028,0.019365221668577015,
0.12364089775561098,0.02337655667005399,
0.12369077306733167,0.025419517981664745,
0.12374064837905237,0.01940883203432635,
0.12379052369077306,0.010546474767006275,
0.12384039900249376,0.008843544218061525,
0.12389027431421447,0.027574950980462996,
0.12394014962593516,0.039681407181713604,
0.12399002493765586,0.041145901663776095,
0.12403990024937656,0.026435140246493592,
0.12408977556109725,0.020563768169851386,
0.12413965087281796,0.05548054487839405,
0.12418952618453866,0.035305697887182456,
0.12423940149625935,0.023816975620428938,
0.12428927680798005,0.019775884476909953,
0.12433915211970074,0.023152330366378565,
0.12438902743142144,0.03365001861692105,
0.12443890274314215,0.03519174534807742,
0.12448877805486284,0.021331702993111115,
0.12453865336658354,0.018084592639735955,
0.12458852867830424,0.02784500474948539,
0.12463840399002493,0.05653555766820739,
0.12468827930174564,0.04502344972369306,
0.12473815461346634,0.03230563146037845,
0.12478802992518703,0.017792460533323298,
0.12483790523690773,0.01974035199179476,
0.12488778054862842,0.025895517738323468,
0.12493765586034913,0.024133031964460764,
0.12498753117206983,0.029438656267327994,
0.12503740648379053,0.04024524065809269,
0.12508728179551123,0.03877076820965737,
0.12513715710723192,0.0024166969005761235,
0.12518703241895263,0.03671382138641508,
0.1252369077306733,0.019963951138879388,
0.12528678304239402,0.047024110940332195,
0.1253366583541147,0.013315958661815615,
0.1253865336658354,0.04107029493984282,
0.12543640897755612,-0.0004675225898727389,
0.1254862842892768,0.04172364290756014,
0.1255361596009975,0.03087092446235634,
0.1255860349127182,0.011065239119346287,
0.1256359102244389,0.028788512819119653,
0.1256857855361596,0.040628637481767566,
0.1257356608478803,0.051698427344265406,
0.125785536159601,-0.0010734845125985187,
0.12583541147132168,0.018413404855755884,
0.1258852867830424,0.03204305101061219,
0.1259351620947631,0.013098316509788753,
0.12598503740648379,0.024776948063904923,
0.1260349127182045,0.033177897610354654,
0.12608478802992518,0.030056677416512155,
0.1261346633416459,0.035163678972868165,
0.1261845386533666,0.03239357680208247,
0.12623441396508728,0.015206548646059156,
0.126284289276808,0.011706714585155308,
0.12633416458852867,0.026617699416605602,
0.12638403990024938,0.010764829662538736,
0.1264339152119701,0.032561478096633595,
0.12648379052369077,0.024330202080396525,
0.12653366583541148,0.05364392248772045,
0.12658354114713216,0.05314711444142152,
0.12663341645885287,0.02733771005182096,
0.12668329177057355,0.012983127782260729,
0.12673316708229426,0.028345767057797566,
0.12678304239401497,0.03432285130708661,
0.12683291770573565,0.03807998738645902,
0.12688279301745636,0.022139707821331848,
0.12693266832917705,0.035360214972862805,
0.12698254364089775,0.02547547180857488,
0.12703241895261846,0.013746493118032511,
0.12708229426433915,0.019948554625797216,
0.12713216957605986,0.01578609064808466,
0.12718204488778054,-0.014651418664731682,
0.12723192019950125,0.01630972379573222,
0.12728179551122196,0.01806921247327053,
0.12733167082294264,0.028482110422447138,
0.12738154613466335,0.034366310717921816,
0.12743142144638403,0.020756162517178604,
0.12748129675810474,0.019560303843843645,
0.12753117206982545,0.015078640786186637,
0.12758104738154613,0.008317315265002762,
0.12763092269326684,0.017566841396670592,
0.12768079800498752,0.05553358249138856,
0.12773067331670823,0.007036034441775682,
0.1277805486284289,0.03500884753934598,
0.12783042394014962,-0.011310449081758892,
0.12788029925187033,0.007069463620196604,
0.12793017456359101,0.03843770637541256,
0.12798004987531172,0.007235950011836535,
0.1280299251870324,0.040536617521683076,
0.12807980049875312,0.014639633082705938,
0.12812967581047383,0.03656057980771078,
0.1281795511221945,0.04333451307547999,
0.12822942643391522,0.01261758088171837,
0.1282793017456359,-0.010704904471546466,
0.1283291770573566,0.01543961007544195,
0.12837905236907732,-0.006545967505666998,
0.128428927680798,0.025343054674946686,
0.1284788029925187,0.03479417571641543,
0.1285286783042394,0.00026288195522775754,
0.1285785536159601,0.031365698446586675,
0.1286284289276808,-0.002701303727952159,
0.1286783042394015,-0.012302387964454143,
0.1287281795511222,0.02228013353073945,
0.12877805486284288,0.031837255207985256,
0.1288279301745636,-0.02058116932690327,
0.1288778054862843,0.023687102566459735,
0.12892768079800498,0.02641185841965432,
0.1289775561097257,0.026223870726321284,
0.12902743142144638,0.03867211460714519,
0.12907730673316709,-0.004506888767308502,
0.12912718204488777,0.011888882981055992,
0.12917705735660848,0.008135308333405061,
0.1292269326683292,0.008578106129520011,
0.12927680798004987,-0.012017038718614856,
0.12932668329177058,0.00915314655788946,
0.12937655860349126,0.02934880388120207,
0.12942643391521197,-0.0038055820123473246,
0.12947630922693268,-0.0039204639982909645,
0.12952618453865336,0.008557871634563292,
0.12957605985037407,0.008327302515101557,
0.12962593516209475,-0.0015970916632535494,
0.12967581047381546,0.006242144150409497,
0.12972568578553617,0.015620422457124944,
0.12977556109725685,0.015458193794126007,
0.12982543640897756,0.0016287367368422847,
0.12987531172069824,0.001650214276076676,
0.12992518703241895,0.010267497186884317,
0.12997506234413966,-0.010617029018222122,
0.13002493765586035,0.012953786301350363,
0.13007481296758105,0.0156187263118743,
0.13012468827930174,0.01784992203862796,
0.13017456359102245,0.03666376272105146,
0.13022443890274316,0.01821344698655774,
0.13027431421446384,1.6866439002712584e-05,
0.13032418952618455,0.0396008379173282,
0.13037406483790523,-0.00954593142859577,
0.13042394014962594,0.013050327390471048,
0.13047381546134662,0.006885090606410652,
0.13052369077306733,-0.0006050168261473475,
0.13057356608478804,-0.009437491958712456,
0.13062344139650872,0.022385424004170155,
0.13067331670822943,-0.000807887868769063,
0.1307231920199501,0.010400601406613095,
0.13077306733167082,-0.011244790580903488,
0.13082294264339153,0.005669458338414354,
0.13087281795511221,0.004178742787947706,
0.13092269326683292,0.023524510175908637,
0.1309725685785536,-0.02540893381756953,
0.13102244389027431,0.018332526662952965,
0.13107231920199502,-0.013853667591143003,
0.1311221945137157,-0.00019026193747984522,
0.13117206982543642,-0.030084318627496217,
0.1312219451371571,-0.010720928675863804,
0.1312718204488778,-0.005491298814702306,
0.13132169576059852,0.027211994041590068,
0.1313715710723192,0.009211517051245505,
0.1314214463840399,0.005970249222945206,
0.1314713216957606,-0.020331982102933133,
0.1315211970074813,-0.0095923950240936,
0.13157107231920198,-0.004407831278750428,
0.1316209476309227,0.006011880404911236,
0.1316708229426434,-0.004969810002540841,
0.13172069825436408,0.008600875501521884,
0.1317705735660848,-0.003318549090907316,
0.13182044887780547,-0.015252675492086375,
0.13187032418952618,-0.005723918136898466,
0.1319201995012469,0.00022952431357046,
0.13197007481296757,0.015783533616012202,
0.13201995012468828,0.009993820380215178,
0.13206982543640897,0.019208516713494383,
0.13211970074812968,-0.000828469735812261,
0.13216957605985039,-0.016063214255913776,
0.13221945137157107,0.03766053342499903,
0.13226932668329178,-0.009010925979174175,
0.13231920199501246,0.0011629283762554336,
0.13236907730673317,-0.02089611351846156,
0.13241895261845388,-0.038972221162498454,
0.13246882793017456,0.013516140151306644,
0.13251870324189527,-0.020259955794958005,
0.13256857855361595,-0.012337928895000034,
0.13261845386533666,-0.03207727060260924,
0.13266832917705737,-0.027694187868036364,
0.13271820448877805,-0.015933977796216588,
0.13276807980049876,-0.022707172913815403,
0.13281795511221944,-0.00739240733093906,
0.13286783042394015,-0.017401651232800637,
0.13291770573566083,-0.0005983257907562324,
0.13296758104738154,-0.006968077218289705,
0.13301745635910225,-0.020230769849024065,
0.13306733167082294,-0.008842901425940013,
0.13311720698254365,0.009555379561020432,
0.13316708229426433,-0.0328878427716446,
0.13321695760598504,-0.01578142648422369,
0.13326683291770575,0.016932155634315875,
0.13331670822942643,-0.012260428267743755,
0.13336658354114714,-0.02299495560063592,
0.13341645885286782,-0.013659440531013138,
0.13346633416458853,-0.018935561867853702,
0.13351620947630924,0.009613284821190443,
0.13356608478802992,0.0038550212922076835,
0.13361596009975063,-0.0028235203408505756,
0.1336658354114713,-0.00915727040848849,
0.13371571072319202,0.010339582238008077,
0.13376558603491273,-0.003776787066175352,
0.1338154613466334,0.003494163383909659,
0.13386533665835412,-0.020466798708824542,
0.1339152119700748,-0.0059853387704550225,
0.13396508728179551,-0.0315635977969945,
0.1340149625935162,-0.02729696801630593,
0.1340648379052369,-0.003401140077155843,
0.13411471321695762,-0.012456564719862142,
0.1341645885286783,0.006624862109691881,
0.134214463840399,-0.02411187370776835,
0.1342643391521197,-0.036668489611111944,
0.1343142144638404,-0.00038675636350877195,
0.1343640897755611,-0.029747953971308964,
0.1344139650872818,-0.013900496306281158,
0.1344638403990025,5.943599197114589e-05,
0.13451371571072318,-0.020322926856706926,
0.1345635910224439,-0.003398705332973365,
0.1346134663341646,-0.011795001124429978,
0.13466334164588528,-0.012981763523945682,
0.134713216957606,-0.008531994271358463,
0.13476309226932667,-0.004778454921747631,
0.13481296758104738,-0.000775540193833156,
0.1348628428927681,-0.007303417089905492,
0.13491271820448877,0.01979884847150156,
0.13496259351620948,0.024533705305509378,
0.13501246882793017,-0.024143323873126475,
0.13506234413965088,-0.019513957817980765,
0.13511221945137158,-0.014461980237615753,
0.13516209476309227,0.008920731524681287,
0.13521197007481298,0.009274505401985916,
0.13526184538653366,-0.015616235442651605,
0.13531172069825437,-0.0018616252401165616,
0.13536159600997505,-0.0036921972410630397,
0.13541147132169576,-0.003314928392244382,
0.13546134663341647,-0.014715819643106053,
0.13551122194513715,-0.022866125564592818,
0.13556109725685786,-0.016350512948327296,
0.13561097256857854,-0.03473862092006727,
0.13566084788029925,-0.027248630086718247,
0.13571072319201996,-0.022439051648282173,
0.13576059850374064,-0.0007912560622383262,
0.13581047381546135,-0.012256093153791276,
0.13586034912718203,-0.024229477254682663,
0.13591022443890274,-0.014305308921515839,
0.13596009975062345,-0.010148752802420254,
0.13600997506234414,0.010112341879346802,
0.13605985037406484,-0.0002200508284217282,
0.13610972568578553,-0.03304499618948781,
0.13615960099750624,-0.032789247543315525,
0.13620947630922695,0.0023996121854907865,
0.13625935162094763,-0.020097311015162413,
0.13630922693266834,-0.005797370459615401,
0.13635910224438902,-0.007923970791346708,
0.13640897755610973,-0.017119362153506464,
0.1364588528678304,-0.007242783414303271,
0.13650872817955112,0.0002572476892745961,
0.13655860349127183,-0.011077386500463679,
0.1366084788029925,-0.01543567851546104,
0.13665835411471322,-0.0038357143330176153,
0.1367082294264339,0.016872102153695147,
0.1367581047381546,-0.004395301733293693,
0.13680798004987532,-0.010507671831954798,
0.136857855361596,0.010429076256857786,
0.1369077306733167,-0.011026767860396362,
0.1369576059850374,-0.006195284537001889,
0.1370074812967581,-0.024544173231242992,
0.13705735660847881,-0.025126624892919253,
0.1371072319201995,-0.00014769151676075412,
0.1371571072319202,-0.034322751961419457,
0.1372069825436409,-0.0020959660978040525,
0.1372568578553616,-0.0025384677015469156,
0.1373067331670823,-0.0037606128075432484,
0.137356608478803,-0.015292412657062365,
0.1374064837905237,0.025292158291618932,
0.13745635910224438,0.007478592796227344,
0.1375062344139651,-0.0036669980960395933,
0.1375561097256858,-0.008114699442099456,
0.13760598503740648,-0.004558731559238284,
0.1376558603491272,-0.01595298071420656,
0.13770573566084787,-0.00203599505368417,
0.13775561097256858,-0.0032607974148943994,
0.13780548628428926,0.01305173886476784,
0.13785536159600997,-0.002064311013294514,
0.13790523690773068,0.015993639849336157,
0.13795511221945136,0.0007603942602386598,
0.13800498753117207,0.00915550924245179,
0.13805486284289276,0.011568337240432987,
0.13810473815461347,-0.005820557510791378,
0.13815461346633418,-0.016210847692925787,
0.13820448877805486,-0.014387393466645684,
0.13825436408977557,0.020479877231225806,
0.13830423940149625,-0.0005443781329710234,
0.13835411471321696,-0.01949436675011723,
0.13840399002493767,-0.031208404648753338,
0.13845386533665835,0.029459088388676752,
0.13850374064837906,-0.009886368314904154,
0.13855361596009974,-0.005310541025412059,
0.13860349127182045,0.008727032335491752,
0.13865336658354116,0.00243357077500373,
0.13870324189526184,0.01159718630952302,
0.13875311720698255,0.022715632668506562,
0.13880299251870323,0.019944471418829386,
0.13885286783042394,-0.02422042940117733,
0.13890274314214462,0.0033900969894299486,
0.13895261845386533,0.006950857884051481,
0.13900249376558604,0.009664021054414636,
0.13905236907730673,-0.0011280258690785794,
0.13910224438902744,0.011295142982989791,
0.13915211970074812,-0.008218179834167427,
0.13920199501246883,0.022316339060694343,
0.13925187032418954,0.012509251900547337,
0.13930174563591022,0.006626188087247559,
0.13935162094763093,0.016774740853271873,
0.1394014962593516,-0.008137843468790394,
0.13945137157107232,0.05280523686659318,
0.13950124688279303,0.023969273651594913,
0.1395511221945137,0.0008735158346806111,
0.13960099750623442,-0.011071921178730418,
0.1396508728179551,0.0012545541239458845,
0.1397007481296758,0.025321811172557364,
0.13975062344139652,0.008509647886713044,
0.1398004987531172,0.013318947643268228,
0.1398503740648379,0.005614864093715508,
0.1399002493765586,0.00879604504060906,
0.1399501246882793,0.019488473240482283,
0.14,0.004813541658950564,
0.1400498753117207,0.03231168061125048,
0.1400997506234414,0.00014561418712943225,
0.1401496259351621,0.019791030088471908,
0.1401995012468828,0.03718861279117099,
0.14024937655860348,0.011274199307345596,
0.1402992518703242,0.004463975786238035,
0.1403491271820449,0.008992403154808478,
0.14039900249376558,0.00490614903011493,
0.1404488778054863,-0.01375408956048144,
0.14049875311720697,0.013716077916714567,
0.14054862842892768,0.0012097549391352682,
0.1405985037406484,0.03863304616675843,
0.14064837905236907,0.0401570140323803,
0.14069825436408978,0.02129391420857147,
0.14074812967581046,-0.007426817989908914,
0.14079800498753117,0.04882052700397718,
0.14084788029925188,0.02667693190966406,
0.14089775561097256,0.019182780664181418,
0.14094763092269327,0.00681445767812216,
0.14099750623441396,0.020844104252889975,
0.14104738154613466,0.03506114177935975,
0.14109725685785537,-0.007518190650596147,
0.14114713216957606,0.02560163414482709,
0.14119700748129677,0.015806820456569597,
0.14124688279301745,0.0006825959138957484,
