time,amplitude,label
0.0,-0.02218627547537308,
4.987531172069826e-05,-0.03171903801415272,
9.975062344139652e-05,-0.05633879394825381,
0.00014962593516209475,-0.03890616745368207,
0.00019950124688279303,0.003151845793604585,
0.00024937655860349125,-0.02705712283003528,
0.0002992518703241895,-0.02660888241118504,
0.00034912718204488776,-0.011868310061608794,
0.00039900249376558606,0.010662957472673058,
0.0004488778054862843,-0.018459310666695147,
0.0004987531172069825,-0.04651885768025689,
0.0005486284289276808,-0.026424270541902817,
0.000598503740648379,-0.05085861362644333,
0.0006483790523690773,-0.008858365825634523,
0.0006982543640897755,-0.012849998607337026,
0.0007481296758104738,-0.0465441531183982,
0.0007980049875311721,0.0032103677266705974,
0.0008478802992518703,-0.030464855506509646,
0.0008977556109725686,-0.00418691274125076,
0.0009476309226932668,0.0004030026061438395,
0.000997506234413965,-0.016131468453899032,
0.0010473815461346633,-0.02297678609233846,
0.0010972568578553616,-0.03232727048101507,
0.00114713216957606,-0.02852499589900198,
0.001197007481296758,-0.051991496525802816,
0.0012468827930174563,-0.02307562160448648,
0.0012967581047381546,-0.05040210897032491,
0.001346633416458853,-0.006062234672166806,
0.001396508728179551,-0.008568294368992903,
0.0014463840399002493,-0.019178322175022067,
0.0014962593516209476,-0.020217004930098745,
0.001546134663341646,-0.04186660932886832,
0.0015960099750623442,-0.034184184390241026,
0.0016458852867830423,0.0037748800779613817,
0.0016957605985037406,-0.0008486495138392038,
0.001745635910224439,-0.024874061049742113,
0.0017955112219451373,-0.014886605720481038,
0.0018453865336658353,-0.023093892130263104,
0.0018952618453865336,-0.0019588434871098473,
0.001945137157107232,-0.022746260842070654,
0.00199501246882793,-0.03488132667233837,
0.0020448877805486283,-0.0401326340701231,
0.0020947630922693266,-0.034577070596066274,
0.002144638403990025,-0.03244010766766016,
0.0021945137157107233,-0.0007551032485282293,
0.0022443890274314216,-0.008903395351479633,
0.00229426433915212,-0.013732835807780057,
0.0023441396508728177,-0.030398242231256964,
0.002394014962593516,-0.009542250255727216,
0.0024438902743142144,-0.00046202698164327094,
0.0024937655860349127,-0.00850306395429212,
0.002543640897755611,-0.009362075927400682,
0.0025935162094763093,-0.009129388251598185,
0.0026433915211970076,-0.016534487371192116,
0.002693266832917706,-0.012164016944372042,
0.002743142144638404,-0.01834052202406015,
0.002793017456359102,0.008104648080953502,
0.0028428927680798004,-0.012328400817801942,
0.0028927680798004987,-0.03191002919350385,
0.002942643391521197,0.008079388563817805,
0.0029925187032418953,-0.005969368287047,
0.0030423940149625936,-0.001029441396124901,
0.003092269326683292,-0.0035469667858606235,
0.00314214463840399,-0.009255817711772224,
0.0031920199501246885,-0.010587270372299753,
0.0032418952618453864,-0.01803293055218322,
0.0032917705735660847,-0.008889169861767578,
0.003341645885286783,-0.009279767211723524,
0.0033915211970074813,0.0004475069161348436,
0.0034413965087281796,-0.003435763008936176,
0.003491271820448878,-0.019382614895152448,
0.003541147132169576,-0.010950339006136628,
0.0035910224438902745,-0.01033275065743119,
0.0036408977556109724,-0.014592515781554578,
0.0036907730673316707,-0.011567832895193001,
0.003740648379052369,-0.01859748572722142,
0.0037905236907730673,-0.006810967052409409,
0.0038403990024937656,-0.004766221458640062,
0.003890274314214464,0.0013564010224065438,
0.003940149625935162,-0.031717400753183814,
0.00399002493765586,-0.04134079234205704,
0.004039900249376558,-0.024659343883662983,
0.004089775561097257,0.0072365084330311465,
0.004139650872817955,0.00446866023363382,
0.004189526184538653,-0.01567374782660759,
0.004239401496259352,0.01685752140481996,
0.00428927680798005,-0.021151594951321354,
0.004339152119700748,-0.005669954349295291,
0.0043890274314214465,-1.6073061197496852e-05,
0.004438902743142145,0.002401886773821804,
0.004488778054862843,0.005206079487260235,
0.004538653366583541,-0.005044406736183818,
0.00458852867830424,-0.007936840607685751,
0.004638403990024938,-0.012800357397516962,
0.0046882793017456355,-0.0011502947959503738,
0.004738154613466334,0.0038864599405425667,
0.004788029925187032,-0.0027955704695981844,
0.00483790523690773,-0.03040576685593293,
0.004887780548628429,-0.03998713757610706,
0.004937655860349127,0.006846128729758244,
0.004987531172069825,0.0025165293491391317,
0.005037406483790524,0.00820579399789684,
0.005087281795511222,0.0046533085935022925,
0.00513715710723192,-0.01370746701912887,
0.0051870324189526185,-0.019306213047251254,
0.005236907730673317,-0.025317343932524928,
0.005286783042394015,-0.019465090692078132,
0.0053366583541147134,-0.015266615594331328,
0.005386533665835412,-0.0020783143695665583,
0.00543640897755611,-0.0010831477634907062,
0.005486284289276808,-0.005366236000909211,
0.005536159600997507,0.000734659043478301,
0.005586034912718204,-0.016320307011200068,
0.005635910224438902,-0.010345516550346026,
0.005685785536159601,-0.006629088811585616,
0.005735660847880299,0.023791835848308882,
0.005785536159600997,-0.002232578935750891,
0.005835411471321696,-0.03464939332273697,
0.005885286783042394,-0.0014347637801457548,
0.005935162094763092,-0.005055327843463149,
0.0059850374064837905,0.022301123740111534,
0.006034912718204489,-0.012820691849850279,
0.006084788029925187,-0.0022797032557004466,
0.0061346633416458855,-0.024140216015088693,
0.006184538653366584,-0.013975306694919311,
0.006234413965087282,0.02735130778371149,
0.00628428927680798,0.02405557852723622,
0.006334164588528679,-0.014938921276192169,
0.006384039900249377,-0.022747033592843875,
0.006433915211970074,-0.001879139971997507,
0.006483790523690773,0.007834523484175465,
0.006533665835411471,0.03891005971365319,
0.006583541147132169,0.024516069910638837,
0.006633416458852868,0.007600882005714735,
0.006683291770573566,-0.00949120403296968,
0.006733167082294264,0.009218947612212747,
0.0067830423940149626,0.022840920171237136,
0.006832917705735661,-0.0014835335074741118,
0.006882793017456359,0.0021776992684297974,
0.0069326683291770575,0.016868153832748534,
0.006982543640897756,0.005070020779526828,
0.007032418952618454,0.04442531088021865,
0.007082294264339152,0.017418749545879592,
0.007132169576059851,0.013982905027175904,
0.007182044887780549,0.020871291943789522,
0.007231920199501247,0.010418974938163603,
0.007281795511221945,0.01873260778593721,
0.007331670822942643,0.03022770605704816,
0.007381546134663341,-0.024446689857793035,
0.00743142144638404,0.02465495962847878,
0.007481296758104738,-0.01728017806355761,
0.007531172069825436,0.025593585556291834,
0.007581047381546135,0.0007931975445406442,
0.007630922693266833,0.02747957793438346,
0.007680798004987531,0.029892412925340298,
0.0077306733167082295,0.013792684849350733,
0.007780548628428928,0.01252835098343501,
0.007830423940149626,0.004802686757145069,
0.007880299251870324,0.017571069057283395,
0.007930174563591023,0.02192135669113155,
0.00798004987531172,0.022132978646361438,
0.00802992518703242,0.013875369805821125,
0.008079800498753117,0.0033027390908285225,
0.008129675810473816,0.019367481392767255,
0.008179551122194513,0.008431382187269274,
0.008229426433915213,0.012873664117123526,
0.00827930174563591,0.003028030018968045,
0.00832917705735661,0.00217095726067283,
0.008379052369077307,0.005250441670066662,
0.008428927680798006,0.017961888218824128,
0.008478802992518703,-0.0056567226441076104,
0.0085286783042394,0.0022238818891669922,
0.0085785536159601,0.013725525596058791,
0.008628428927680797,0.03303145076208537,
0.008678304239401496,0.005503675829140015,
0.008728179551122194,-0.0014400782984145023,
0.008778054862842893,0.002690199188364774,
0.00882793017456359,0.02066889120232168,
0.00887780548628429,0.003414076911739023,
0.008927680798004987,0.004639571222933068,
0.008977556109725686,0.011450979604429031,
0.009027431421446384,0.033361912895131976,
0.009077306733167083,-0.012570749838422105,
0.00912718204488778,0.017362081175724967,
0.00917705735660848,0.007997975781540765,
0.009226932668329177,0.01149294612677753,
0.009276807980049876,0.0023562040194627307,
0.009326683291770574,0.005215877596277417,
0.009376558603491271,-0.009535707077166757,
0.00942643391521197,0.013583622438333384,
0.009476309226932668,0.011416990974071372,
0.009526184538653367,0.022713844822104572,
0.009576059850374064,0.0363199431203908,
0.009625935162094763,-0.015858220149612582,
0.00967581047381546,0.0431164422409664,
0.00972568578553616,0.02686695503345794,
0.009775561097256857,0.03103587151680167,
0.009825436408977557,0.003944133456649061,
0.009875311720698254,0.037758654366415276,
0.009925187032418953,0.009125112607314918,
0.00997506234413965,0.011246071939906857,
0.01002493765586035,0.03610559765210573,
0.010074812967581047,0.0461477383324712,
0.010124688279301746,0.020791882747447348,
0.010174563591022444,0.010192273769784797,
0.010224438902743141,0.034168411361237244,
0.01027431421446384,0.00249992889093718,
0.010324189526184538,0.0395431723681104,
0.010374064837905237,0.027620648199083105,
0.010423940149625935,0.011699912802962913,
0.010473815461346634,0.019658525471147225,
0.010523690773067331,0.03248779531996458,
0.01057356608478803,0.030018910520280787,
0.010623441396508728,0.010355522064740942,
0.010673316708229427,0.027101465541100156,
0.010723192019950124,0.04290258639940403,
0.010773067331670824,0.047573837259837326,
0.010822942643391521,0.027002754683303952,
0.01087281795511222,0.023937036560707284,
0.010922693266832918,0.004049542147745753,
0.010972568578553617,0.011833481837637267,
0.011022443890274314,0.016107104303865704,
0.011072319201995013,0.011573609754177767,
0.01112219451371571,0.027198493256252846,
0.011172069825436408,0.021033633083479504,
0.011221945137157107,0.02890169156479779,
0.011271820448877805,0.029330658555821402,
0.011321695760598504,0.030899969508659073,
0.011371571072319201,0.037514444524208046,
0.0114214463840399,0.03958921719284418,
0.011471321695760598,0.027893488854398234,
0.011521197007481297,0.030405129212916777,
0.011571072319201995,0.01455743309986779,
0.011620947630922694,0.04745137117250395,
0.011670822942643391,0.023797804029616572,
0.01172069825436409,0.047617459434636716,
0.011770573566084788,0.023208353842199554,
0.011820448877805487,0.024555521577887894,
0.011870324189526184,0.014374025315964645,
0.011920199501246884,0.013240375221960695,
0.011970074812967581,0.018496435223460957,
0.012019950124688279,0.020667975146294336,
0.012069825436408978,0.020039350533246743,
0.012119700748129675,0.026392037635753228,
0.012169576059850374,0.01323486232798728,
0.012219451371571072,-0.011943487026762852,
0.012269326683291771,0.021412616446594854,
0.012319201995012468,0.02032272209521572,
0.012369077306733168,0.004529508926646502,
0.012418952618453865,0.028120445666074703,
0.012468827930174564,-0.011217079375630941,
0.012518703241895262,0.017015181121291176,
0.01256857855361596,0.02274507957694154,
0.012618453865336658,0.011020447849445177,
0.012668329177057357,0.026397768497673384,
0.012718204488778055,0.0437430531585561,
0.012768079800498754,0.04626814871397729,
0.012817955112219451,0.013487218821477723,
0.012867830423940149,0.02928358032418195,
0.012917705735660848,0.015665506425248787,
0.012967581047381545,0.02321346573857032,
0.013017456359102245,0.02056430898190519,
0.013067331670822942,0.0017516675351749098,
0.013117206982543641,0.03365985382114168,
0.013167082294264339,0.023966850717954354,
0.013216957605985038,0.053564823172031394,
0.013266832917705735,-0.0019985817372375567,
0.013316708229426434,-0.0013270618482375054,
0.013366583541147132,0.015365193312834641,
0.013416458852867831,0.019386488548396048,
0.013466334164588529,0.011606512758743292,
0.013516209476309228,-0.00513838224783515,
0.013566084788029925,0.03248424065011234,
0.013615960099750624,0.026793134482400834,
0.013665835411471322,0.005457267213949305,
0.01371571072319202,-0.00829775422044077,
0.013765586034912718,0.02669901501174022,
0.013815461346633416,0.03752396655650611,
0.013865336658354115,0.013737939586529871,
0.013915211970074812,-0.00441299382726832,
0.013965087281795512,0.02815302471799827,
0.014014962593516209,-0.008543241084704976,
0.014064837905236908,0.013273869748441549,
0.014114713216957606,-0.009777774465540148,
0.014164588528678305,0.010912969232319021,
0.014214463840399002,0.010214102239674299,
0.014264339152119701,0.010429539459456684,
0.014314214463840399,0.024243263776076017,
0.014364089775561098,-0.0030734712103446978,
0.014413965087281795,-0.009845599901962218,
0.014463840399002495,0.009397749975370783,
0.014513715710723192,0.011894633478203331,
0.01456359102244389,-0.0035080707637203234,
0.014613466334164589,0.017693062614226943,
0.014663341645885286,0.004071403115551217,
0.014713216957605985,-0.009192284528918158,
0.014763092269326683,0.006236935813266225,
0.014812967581047382,0.007860013443894098,
0.01486284289276808,0.008072047409419456,
0.014912718204488778,0.0017895177928146993,
0.014962593516209476,-0.0054011500998095464,
0.015012468827930175,-0.0056167947171824485,
0.015062344139650873,-0.009188789294051248,
0.015112219451371572,-0.006017021427185409,
0.01516209476309227,0.005670080618391894,
0.015211970074812968,0.007417532873720214,
0.015261845386533666,0.019636686749694664,
0.015311720698254365,0.008440731366614499,
0.015361596009975062,0.008148919257717137,
0.01541147132169576,-0.004425338487143362,
0.015461346633416459,-0.025924621400703295,
0.015511221945137156,-0.004272523053421162,
0.015561097256857856,0.023204355195909333,
0.015610972568578553,-0.02172092853947268,
0.015660847880299252,-0.003889035550422202,
0.01571072319201995,-0.0024719207692787673,
0.015760598503740647,-0.0026833136972340688,
0.015810473815461346,-0.024576294219674135,
0.015860349127182045,-0.02027295000118139,
0.015910224438902745,-0.010114646174362734,
0.01596009975062344,-0.00872368800647102,
0.01600997506234414,-0.003245239108057774,
0.01605985037406484,0.01492761061606815,
0.016109725685785538,0.01785087436964988,
0.016159600997506234,-0.007343910927705946,
0.016209476309226933,0.0014175653600764404,
0.016259351620947632,-0.012141930963433653,
0.016309226932668328,-0.001057865434449927,
0.016359102244389027,0.01246741838244503,
0.016408977556109726,-0.011041842348595062,
0.016458852867830425,0.006099620289266405,
0.01650872817955112,-0.0068370872782026,
0.01655860349127182,0.027408519226576653,
0.01660847880299252,-0.01799440359909466,
0.01665835411471322,0.010105575479600691,
0.016708229426433914,0.030671931113172037,
0.016758104738154613,-0.02457889580968005,
0.016807980049875312,0.003815829153829545,
0.01685785536159601,-0.010757873312033463,
0.016907730673316707,-0.030169783266452796,
0.016957605985037406,0.0048008265766107516,
0.017007481296758106,-0.02268325815641121,
0.0170573566084788,-0.0068600297640029236,
0.0171072319201995,0.009390556019054542,
0.0171571072319202,0.015956159247614593,
0.0172069825436409,-0.002243196874016501,
0.017256857855361595,0.008454867928221758,
0.017306733167082294,-0.005019353381647572,
0.017356608478802993,0.00187141997478661,
0.017406483790523692,0.0226832148919016,
0.017456359102244388,1.4635077496875926e-05,
0.017506234413965087,-0.01751267144936721,
0.017556109725685786,0.009951476704795676,
0.017605985037406485,-0.02182630877465599,
0.01765586034912718,0.005679263764315157,
0.01770573566084788,-0.015539894370142388,
0.01775561097256858,-0.019132113220340592,
0.01780548628428928,-0.025699327404717757,
0.017855361596009974,0.008831346048515808,
0.017905236907730673,0.0026010995702048668,
0.017955112219451373,-0.029981851729593893,
0.018004987531172068,-0.00971545105828001,
0.018054862842892767,-0.006021438773086521,
0.018104738154613467,-0.0051529696781897625,
0.018154613466334166,-0.00503941204049084,
0.01820448877805486,0.010546840244525006,
0.01825436408977556,-0.01494624415487959,
0.01830423940149626,-0.03478340933635016,
0.01835411471321696,-0.02311125104245803,
0.018403990024937655,0.006815128834127699,
0.018453865336658354,-0.006618762352551648,
0.018503740648379053,-0.051170223851005316,
0.018553615960099752,-0.010244703548407216,
0.018603491271820448,-0.010493551955112578,
0.018653366583541147,-0.022434349133121693,
0.018703241895261846,-0.032052555379406565,
0.018753117206982542,-0.0024467004706901115,
0.01880299251870324,-0.023006146785979523,
0.01885286783042394,-0.012156335893999044,
0.01890274314214464,0.0021231620730792974,
0.018952618453865335,-0.03903254185059736,
0.019002493765586034,-0.02516138466701536,
0.019052369077306733,-0.00571131622467886,
0.019102244389027433,-0.02245370234129098,
0.01915211970074813,-0.0394113444440488,
0.019201995012468828,-0.016384739446966154,
0.019251870324189527,0.003789490046462708,
0.019301745635910226,-0.01913852827043069,
0.01935162094763092,-0.0036146615841016975,
0.01940149625935162,-0.02338949155693127,
0.01945137157107232,-0.028960887857464077,
0.01950124688279302,-0.006880944239836444,
0.019551122194513715,-0.004132702869410344,
0.019600997506234414,-0.01413763075033437,
0.019650872817955113,-0.019317433210552324,
0.01970074812967581,-0.01434545559488056,
0.019750623441396508,-0.01364799949128493,
0.019800498753117207,0.012030705827956206,
0.019850374064837906,0.007985462976085034,
0.019900249376558602,-0.027967267697750278,
0.0199501246882793,-0.026166808122465912,
0.02,-0.0084476427675414,
0.0200498753117207,-0.018810582688049703,
0.020099750623441395,-0.004702481300971515,
0.020149625935162094,-0.018372980634872853,
0.020199501246882794,-0.002426275077096564,
0.020249376558603493,-0.018024808071935607,
0.02029925187032419,-0.04050932286379651,
0.020349127182044888,-0.02656781319865431,
0.020399002493765587,0.008473141088457582,
0.020448877805486283,-0.006119188701730125,
0.02049875311720698,-0.012899770665007379,
0.02054862842892768,-0.03192488541686483,
0.02059850374064838,-0.01546834397337773,
0.020648379052369076,-0.0031629908467928954,
0.020698254364089775,-0.027641177099929713,
0.020748129675810474,-0.03375668558030622,
0.020798004987531173,-0.013707217608955538,
0.02084788029925187,-0.01619792425422778,
0.020897755610972568,-0.006179640617007411,
0.020947630922693267,0.004312619859658428,
0.020997506234413967,-0.01749165138061743,
0.021047381546134662,-0.007995374245044052,
0.02109725685785536,0.01250765258214941,
0.02114713216957606,-0.025221392779938297,
0.02119700748129676,-0.029193432564679683,
0.021246882793017455,-0.01863452955228814,
0.021296758104738155,-0.017740538579551927,
0.021346633416458854,-0.013798029964743453,
0.02139650872817955,-0.03494287443296969,
0.02144638403990025,-0.009989611832266989,
0.021496259351620948,-0.00416756761127611,
0.021546134663341647,-0.0024135584219361714,
0.021596009975062343,-0.02664931046290122,
0.021645885286783042,-0.014051328632771469,
0.02169576059850374,-0.012817951432197107,
0.02174563591022444,-0.01375106639909088,
0.021795511221945136,-0.010868445130627753,
0.021845386533665835,-0.03094795443726729,
0.021895261845386534,-0.01599670640605253,
0.021945137157107233,-0.009019653682430243,
0.02199501246882793,-0.012975879826446744,
0.02204488778054863,-0.005517924279336584,
0.022094763092269327,-0.03111921760847177,
0.022144638403990027,-0.043101437134072586,
0.022194513715710722,-0.027191347911899956,
0.02224438902743142,-0.010178691109629302,
0.02229426433915212,-0.024598833241979715,
0.022344139650872816,-0.015188101724301309,
0.022394014962593516,-0.039583986350165974,
0.022443890274314215,-0.024938212807932115,
0.022493765586034914,0.001979058771882959,
0.02254364089775561,-0.012599163370625489,
0.02259351620947631,-0.01044784273674933,
0.022643391521197008,-0.01825763772198675,
0.022693266832917707,-0.024505526475873122,
0.022743142144638403,-0.011701653399675082,
0.022793017456359102,-0.026984400650615088,
0.0228428927680798,-0.007647838263354425,
0.0228927680798005,0.009011768867471383,
0.022942643391521196,0.0002097579831342629,
0.022992518703241895,-0.0021220900994559887,
0.023042394014962594,-0.001438815612150592,
0.02309226932668329,-0.02067497674393963,
0.02314214463840399,-0.02631489889781715,
0.02319201995012469,0.01412453423950897,
0.023241895261845388,0.012963481718423547,
0.023291770573566083,-0.05896503036876805,
0.023341645885286783,0.0038181856666839858,
0.02339152119700748,0.011180940752546841,
0.02344139650872818,-0.025516835683261244,
0.023491271820448877,-0.030696876392272195,
0.023541147132169576,-0.015180356798176725,
0.023591022443890275,-0.033075293832221214,
0.023640897755610974,-0.004318497355163945,
0.02369077306733167,-0.005194183125241643,
0.02374064837905237,-0.035397473279885565,
0.023790523690773068,-0.006712899898441458,
0.023840399002493767,-0.002429869238200875,
0.023890274314214463,-0.023029554195708644,
0.023940149625935162,0.01487113995750862,
0.02399002493765586,0.02263428129509576,
0.024039900249376557,-0.01834748456436464,
0.024089775561097256,-0.03538042512491325,
0.024139650872817955,-0.01811268359617583,
0.024189526184538655,0.011231039476197078,
0.02423940149625935,0.012667481459780888,
0.02428927680798005,-0.021475158156052027,
0.02433915211970075,0.004652562095153802,
0.024389027431421448,-0.009905686483047987,
0.024438902743142144,-0.010286029895299873,
0.024488778054862843,0.011124942916306339,
0.024538653366583542,-0.03768139818524888,
0.02458852867830424,-0.0140255840109707,
0.024638403990024937,0.016573962717633273,
0.024688279301745636,-0.007692984338077602,
0.024738154613466335,-0.01398783614414574,
0.02478802992518703,0.007580389712418895,
0.02483790523690773,-0.0009199240482254969,
0.02488778054862843,-0.014562631800898835,
0.02493765586034913,-0.01958930927341516,
0.024987531172069824,0.020391675322951802,
0.025037406483790523,-0.0205361940881379,
0.025087281795511222,-0.01574110885518763,
0.02513715710723192,-0.0036844804763728495,
0.025187032418952617,0.00387426844887192,
0.025236907730673316,-0.006211037098526806,
0.025286783042394016,0.00590733846436532,
0.025336658354114715,0.019861484911841375,
0.02538653366583541,-0.0006273838416106748,
0.02543640897755611,-0.007936285199917053,
0.02548628428927681,-0.009596856162795831,
0.025536159600997508,-0.002036953861121929,
0.025586034912718204,0.029460434379701923,
0.025635910224438903,-0.014235095223901212,
0.025685785536159602,0.005615885696642562,
0.025735660847880298,0.004724659237259087,
0.025785536159600997,-0.006604790582827811,
0.025835411471321696,0.01826369286542301,
0.025885286783042395,0.02852366095487518,
0.02593516209476309,0.023352346110898543,
0.02598503740648379,-0.007739453111854084,
0.02603491271820449,0.005992920036248087,
0.02608478802992519,0.0026175444624543295,
0.026134663341645884,-0.0039933815787865055,
0.026184538653366583,0.013871737479660563,
0.026234413965087282,0.013604893286967578,
0.02628428927680798,0.01062047229327497,
0.026334164588528677,0.0049699593179652005,
0.026384039900249377,0.009565908952831832,
0.026433915211970076,0.006082077546329739,
0.02648379052369077,-0.008766111242231405,
0.02653366583541147,0.035021201801733515,
0.02658354114713217,0.019826577799187613,
0.02663341645885287,0.0011171163509517343,
0.026683291770573565,0.016921941173083994,
0.026733167082294264,-0.000502775743179416,
0.026783042394014963,0.007594154377441161,
0.026832917705735662,0.009508536292498645,
0.026882793017456358,-0.008834865277646594,
0.026932668329177057,0.018463344162091985,
0.026982543640897756,0.018577891951740047,
0.027032418952618455,0.0177975841885858,
0.02708229426433915,0.01179765811248851,
0.02713216957605985,0.03493666765931826,
0.02718204488778055,0.02348370176407024,
0.02723192019950125,0.03647912901191769,
0.027281795511221944,0.00204458835100807,
0.027331670822942643,0.012821522383197713,
0.027381546134663343,0.009527224691221211,
0.02743142144638404,0.013013510018507719,
0.027481296758104738,0.021282546505860374,
0.027531172069825437,0.01578849826518166,
0.027581047381546136,0.025934889569286516,
0.02763092269326683,0.021817258987024756,
0.02768079800498753,0.0435721186174121,
0.02773067331670823,0.0011494891218607594,
0.02778054862842893,0.016893420850684723,
0.027830423940149625,2.4786844911774825e-05,
0.027880299251870324,0.02119206208942965,
0.027930174563591023,0.029760743367310757,
0.027980049875311722,0.020059744591889146,
0.028029925187032418,0.030844765132487743,
0.028079800498753117,0.03005375987510828,
0.028129675810473816,0.011033685747352006,
0.028179551122194512,-0.0015190948411929923,
0.02822942643391521,0.018502639965609847,
0.02827930174563591,0.017746548683068353,
0.02832917705735661,0.01722066039511668,
0.028379052369077305,-0.008258171940884872,
0.028428927680798004,0.018676896592211924,
0.028478802992518704,-0.012523901802916373,
0.028528678304239403,0.024851161428026933,
0.0285785536159601,0.01265772715122266,
0.028628428927680798,0.018289378493165715,
0.028678304239401497,0.02680104590445177,
0.028728179551122196,0.04841498630353136,
0.02877805486284289,0.013760402055550569,
0.02882793017456359,0.04155336229220882,
0.02887780548628429,0.023969741654257637,
0.02892768079800499,0.03674349518626323,
0.028977556109725685,0.01410273473595023,
0.029027431421446384,0.0033945680717863344,
0.029077306733167083,0.013319287963511228,
0.02912718204488778,0.02848020302492435,
0.029177057356608478,0.009770672541351017,
0.029226932668329177,0.02321057922862918,
0.029276807980049877,0.01195039088700224,
0.029326683291770572,0.025607757234507568,
0.02937655860349127,0.040123964077005816,
0.02942643391521197,0.005887485213065665,
0.02947630922693267,0.042469687819366345,
0.029526184538653365,0.03667800407741658,
0.029576059850374065,0.043323162193238896,
0.029625935162094764,0.005336975084582477,
0.029675810473815463,0.01558240884414495,
0.02972568578553616,0.02261955915150711,
0.029775561097256858,0.026349260356241758,
0.029825436408977557,0.023830858962147823,
0.029875311720698253,0.03280280471851354,
0.029925187032418952,0.03208382355259934,
0.02997506234413965,0.017125299362442326,
0.03002493765586035,0.013980117912137536,
0.030074812967581046,0.03448830066940587,
0.030124688279301745,0.01711038224234372,
0.030174563591022444,0.022661674487692345,
0.030224438902743143,0.020536080305369273,
0.03027431421446384,0.03521570242423592,
0.03032418952618454,0.04163445661347455,
0.030374064837905237,0.06057999380570912,
0.030423940149625937,0.0164471289796291,
0.030473815461346632,0.02455809954057359,
0.03052369077306733,0.020232485386379947,
0.03057356608478803,0.037243250949471424,
0.03062344139650873,0.010501368344109497,
0.030673316708229426,0.03083022661596279,
0.030723192019950125,0.018144511699060888,
0.030773067331670824,0.020626052942620376,
0.03082294264339152,-0.0201308114879402,
0.03087281795511222,0.02099466275754267,
0.030922693266832918,0.00562428121832707,
0.030972568578553617,0.021229229062430303,
0.031022443890274313,0.02494247424131722,
0.031072319201995012,0.018855382882658527,
0.03112219451371571,3.899509884513347e-05,
0.03117206982543641,0.04507864936385444,
0.031221945137157106,-3.258193540232185e-05,
0.03127182044887781,0.02236323849702875,
0.031321695760598504,0.013799122238337676,
0.0313715710723192,0.0510019201644476,
0.0314214463840399,0.022142849481927095,
0.0314713216957606,0.03088238593499292,
0.031521197007481294,0.0021253737263587993,
0.031571072319202,0.003222784891151083,
0.03162094763092269,0.020947601726020653,
0.03167082294264339,0.0014102389981816496,
0.03172069825436409,0.021780144710870173,
0.03177057356608479,0.018481730406245987,
0.03182044887780549,0.037597939626727625,
0.031870324189526185,0.03337655969462754,
0.03192019950124688,0.01561816776461298,
0.03197007481296758,0.013190903023285886,
0.03201995012468828,0.006547053715281553,
0.032069825436408975,0.01095366129814271,
0.03211970074812968,-0.01226719272051615,
0.03216957605985037,0.013623302378128768,
0.032219451371571076,0.03205955262746331,
0.03226932668329177,0.013045677917552737,
0.03231920199501247,0.02802406909506692,
0.03236907730673317,0.004939127307317978,
0.032418952618453865,0.007220388889555958,
0.03246882793017456,0.04520831545568598,
0.032518703241895264,0.03086872237174774,
0.03256857855361596,0.024533948696908073,
0.032618453865336655,0.03563763521669643,
0.03266832917705736,0.02994827564477517,
0.032718204488778053,0.034295137458019834,
0.032768079800498756,0.030831461061531083,
0.03281795511221945,0.007912508294485612,
0.03286783042394015,0.00921159512201592,
0.03291770573566085,0.0029869764132098835,
0.032967581047381546,-0.006029293811188278,
0.03301745635910224,0.01537392203857418,
0.033067331670822944,-0.004508507894493932,
0.03311720698254364,0.016557661492364137,
0.03316708229426434,0.007844514641586989,
0.03321695760598504,0.007219801817369146,
0.033266832917705734,0.020893348070561188,
0.03331670822942644,-0.00011244151284532655,
0.03336658354114713,0.013970303939174719,
0.03341645885286783,0.014818032125809007,
0.03346633416458853,-0.0013626460353995222,
0.033516209476309226,-0.002143554495205015,
0.03356608478802992,0.012873636153346383,
0.033615960099750625,0.044200715049139375,
0.03366583541147132,-0.009678991676025692,
0.03371571072319202,0.0033911996006753507,
0.03376558603491272,0.004943597999432579,
0.033815461346633414,-0.0033263761971669,
0.03386533665835412,0.029641044203972965,
0.03391521197007481,0.03150336252386336,
0.03396508728179551,0.0014787659045336823,
0.03401496259351621,0.0005795477383068407,
0.03406483790523691,0.03009927849079088,
0.0341147132169576,0.005399878675665618,
0.034164588528678305,-0.0026561595723373476,
0.034214463840399,0.022014318681872813,
0.034264339152119704,0.02685656188271461,
0.0343142144638404,-0.0034073969995459547,
0.034364089775561095,-0.012466826899207447,
0.0344139650872818,0.012561142899419023,
0.03446384039900249,0.004923766004759297,
0.03451371571072319,-0.002624506352383758,
0.03456359102244389,-0.006843776285220064,
0.03461346633416459,0.011707115609362596,
0.03466334164588529,-0.0062975383179651005,
0.034713216957605986,0.004125152335334334,
0.03476309226932668,0.004469676107748872,
0.034812967581047384,0.012035436527711786,
0.03486284289276808,0.02252097246231938,
0.034912718204488775,0.0031778985154701676,
0.03496259351620948,-0.015644268892939895,
0.035012468827930174,0.02686406379120701,
0.03506234413965087,-0.034098859611974244,
0.03511221945137157,-0.0016145793569266468,
0.03516209476309227,-0.004808701112730972,
0.03521197007481297,0.021596508586045997,
0.035261845386533666,0.005075856333563261,
0.03531172069825436,0.0049433328383949055,
0.035361596009975065,-0.0014721637599360094,
0.03541147132169576,-0.010968004944365221,
0.035461346633416456,-0.015756724903056074,
0.03551122194513716,0.007841320392078426,
0.035561097256857854,-0.004521893790134745,
0.03561097256857856,0.0018364081109516742,
0.03566084788029925,-0.0011689720765746445,
0.03571072319201995,0.0032752428269286218,
0.03576059850374065,0.0094180431934035,
0.03581047381546135,0.00849346773321441,
0.03586034912718204,-0.013139759459142917,
0.035910224438902745,-0.0010016993426070681,
0.03596009975062344,0.005558128780576703,
0.036009975062344136,-0.013787666684103864,
0.03605985037406484,0.014434392243357026,
0.036109725685785535,0.0015076193453511509,
0.03615960099750624,-0.020005544682532933,
0.03620947630922693,0.01753646064208121,
0.03625935162094763,-0.0222645466627016,
0.03630922693266833,-0.0020529773322598313,
0.03635910224438903,-0.016110996269949895,
0.03640897755610972,-0.01114798415884311,
0.036458852867830426,-0.0005097512489793236,
0.03650872817955112,-0.010345000760771987,
0.036558603491271824,-0.000486089334702856,
0.03660847880299252,0.0054135053844312775,
0.036658354114713215,0.01636312398416938,
0.03670822942643392,-0.00021292296022553227,
0.036758104738154614,-0.00418896437005644,
0.03680798004987531,-0.03327422420827314,
0.03685785536159601,-0.019163094875161955,
0.03690773067331671,-0.0022663083613023343,
0.0369576059850374,-0.004916114251296819,
0.037007481296758106,-0.018386201558473612,
0.0370573566084788,-0.015453973746737553,
0.037107231920199504,0.0015663401989355792,
0.0371571072319202,0.02182373751359379,
0.037206982543640896,0.007935434715971874,
0.0372568578553616,-0.005671959849307295,
0.037306733167082294,0.0074922853430136,
0.03735660847880299,-0.031622346692859155,
0.03740648379052369,-0.007187417868280468,
0.03745635910224439,-0.03804099200194638,
0.037506234413965084,-0.03236928394655391,
0.037556109725685786,-0.042194599359050886,
0.03760598503740648,-0.01666681564483364,
0.037655860349127185,-0.018902485921600976,
0.03770573566084788,-0.01480909651750276,
0.037755610972568576,-0.012226267531707673,
0.03780548628428928,0.00489780294862046,
0.037855361596009975,0.026467576150317883,
0.03790523690773067,0.020787278421457753,
0.03795511221945137,0.009469258541358206,
0.03800498753117207,0.0061229052463278935,
0.03805486284289277,-0.03908489088881402,
0.03810473815461347,-0.018022028629410124,
0.03815461346633416,-0.015540710129021196,
0.038204488778054865,0.003942257726389772,
0.03825436408977556,-0.027137344571342606,
0.03830423940149626,-0.025613455849886238,
0.03835411471321696,0.007619212332107696,
0.038403990024937655,-0.025875273542740815,
0.03845386533665835,-0.0058943429381447116,
0.03850374064837905,-0.04824685491927915,
0.03855361596009975,-0.032053550077380054,
0.03860349127182045,-0.011620136103518424,
0.03865336658354115,-0.019649277411440447,
0.03870324189526184,-0.00762334942756065,
0.038753117206982546,-0.012014767816872858,
0.03880299251870324,-0.010645033945473085,
0.03885286783042394,-0.005381992688126891,
0.03890274314214464,0.0037590070801140976,
0.038952618453865336,0.00190947962480802,
0.03900249376558604,0.0036463080866784344,
0.039052369077306734,-0.003830670005888673,
0.03910224438902743,-0.01849232090666867,
0.03915211970074813,-0.00428509992630857,
0.03920199501246883,-0.013090079961410293,
0.039251870324189524,-0.006582679340006536,
0.039301745635910226,6.560480752468463e-05,
0.03935162094763092,-0.02619678337110298,
0.03940149625935162,-0.03894630066912752,
0.03945137157107232,-0.013455743931559983,
0.039501246882793016,-0.005445312562347912,
0.03955112219451372,-0.005698787307652034,
0.039600997506234414,-0.004139637181852427,
0.03965087281795511,-0.004128752881019743,
0.03970074812967581,-0.03356834792197487,
0.03975062344139651,-0.019348250425125363,
0.039800498753117204,-0.024373968370690776,
0.03985037406483791,6.1851003609871e-05,
0.0399002493765586,-0.005959343983012981,
0.039950124688279305,-0.03152932161825807,
0.04,-0.004220561165158886,
0.0400498753117207,-0.03639784622458168,
0.0400997506234414,0.0037945553373466834,
0.040149625935162095,-0.01754793609252613,
0.04019950124688279,0.007256541124353009,
0.04024937655860349,-0.0005663002171139332,
0.04029925187032419,-0.020555872725748076,
0.040349127182044885,-0.014921906430463656,
0.04039900249376559,0.0041760814919051675,
0.04044887780548628,-0.02401598474502769,
0.040498753117206986,0.018046720954402302,
0.04054862842892768,-0.02218216717547637,
0.04059850374064838,-0.031178134825353275,
0.04064837905236908,-0.028567738426196566,
0.040698254364089775,-0.009912558714140126,
0.04074812967581047,-0.020089717601392554,
0.040798004987531174,-0.0412351512560468,
0.04084788029925187,-0.027591013625280023,
0.040897755610972565,-0.05356721380514244,
0.04094763092269327,-0.007556635742108287,
0.04099750623441396,-0.017990205595273086,
0.041047381546134666,-0.031451226669170176,
0.04109725685785536,-0.005263137471733504,
0.04114713216957606,-0.0016267288098263648,
0.04119700748129676,-0.0129692140686954,
0.041246882793017456,-0.02399890328620914,
0.04129675810473815,-0.015910582730662388,
0.041346633416458854,-0.024299512868226,
0.04139650872817955,-0.03569988394494873,
0.04144638403990025,-0.029350133359197672,
0.04149625935162095,-0.00990779288857108,
0.041546134663341644,-0.026339999454458432,
0.04159600997506235,-0.054315553031505266,
0.04164588528678304,-0.014953471778964098,
0.04169576059850374,0.007640119927218091,
0.04174563591022444,-0.01551394235378963,
0.041795511221945136,-0.021843341785360487,
0.04184538653366583,-0.00542142502336797,
0.041895261845386535,-0.02297510329650463,
0.04194513715710723,-0.020130700189273452,
0.04199501246882793,-0.027348857638773913,
0.04204488778054863,-0.0173503105281189,
0.042094763092269324,-0.0226053892220221,
0.04214463840399003,-0.01611580013902474,
0.04219451371571072,-0.02241939797113774,
0.04224438902743142,-0.01721967639046556,
0.04229426433915212,0.008316834543986532,
0.04234413965087282,-0.011948996274406251,
0.04239401496259352,-0.007457367814883603,
0.042443890274314215,-0.029132157670491425,
0.04249376558603491,-0.009346127588413754,
0.042543640897755614,-0.01057250737846216,
0.04259351620947631,0.00666164653364212,
0.042643391521197005,0.00618618650379027,
0.04269326683291771,-0.009501135009304853,
0.0427431421446384,-0.002413537122534634,
0.0427930174563591,-0.005571847126916534,
0.0428428927680798,-0.027864463417220858,
0.0428927680798005,-0.03073904557419857,
0.0429426433915212,-0.007067218741463502,
0.042992518703241896,-0.04623458753954318,
0.04304239401496259,-0.009162709031376608,
0.043092269326683294,-0.017575035710693437,
0.04314214463840399,-0.005942798173794051,
0.043192019950124685,-0.009212648152214358,
0.04324189526184539,-0.01738698089675361,
0.043291770573566084,-0.02083564209712227,
0.043341645885286786,0.0006058832073752834,
0.04339152119700748,-0.0008761367000899752,
0.04344139650872818,0.014459701085468674,
0.04349127182044888,-0.007376296414777402,
0.043541147132169576,-0.02688307679622475,
0.04359102244389027,-0.04037474897677516,
0.043640897755610975,0.006983841339507333,
0.04369077306733167,0.010352836127408909,
0.043740648379052366,-0.01276014626528018,
0.04379052369077307,-0.008574016686040582,
0.043840399002493764,0.015772889676066718,
0.04389027431421447,-0.04237579433780696,
0.04394014962593516,-0.006877743916124204,
0.04399002493765586,-0.009502607260846334,
0.04403990024937656,-0.01646356441290277,
0.04408977556109726,0.01667033023236443,
0.04413965087281795,4.527998869938935e-05,
0.044189526184538655,0.010984250590387518,
0.04423940149625935,-0.016861974054604954,
0.04428927680798005,-0.014848423891274071,
0.04433915211970075,-0.00511163740674775,
0.044389027431421445,0.007890232117729785,
0.04443890274314215,-0.00996995733338358,
0.04448877805486284,-0.013874302774192488,
0.04453865336658354,-0.0029389360840383345,
0.04458852867830424,0.01659722842520735,
0.04463840399002494,0.002881257005619496,
0.04468827930174563,-0.004196383622994257,
0.044738154613466335,-0.005974275843840203,
0.04478802992518703,0.01610989452476121,
0.044837905236907734,0.003396407452029117,
0.04488778054862843,0.0034643926258837447,
0.044937655860349125,-0.009142201149481742,
0.04498753117206983,0.0060470270042285446,
0.045037406483790524,-0.015713081379003922,
0.04508728179551122,-0.012564408721576993,
0.04513715710723192,0.031092186435734276,
0.04518703241895262,0.023374114225037997,
0.04523690773067331,0.018274636185194367,
0.045286783042394016,0.024305060083392425,
0.04533665835411471,0.018102406258721986,
0.045386533665835414,0.003060448051416433,
0.04543640897755611,-0.011188823492422626,
0.045486284289276806,0.017659287748150853,
0.04553615960099751,0.005340973561139868,
0.045586034912718204,0.010306281015682064,
0.0456359102244389,0.014411468601659594,
0.0456857855361596,0.023161815167441507,
0.0457356608478803,0.009086546465256643,
0.045785536159601,0.01628558746108397,
0.045835411471321696,-0.006855574720980043,
0.04588528678304239,0.007411722612673164,
0.045935162094763095,-0.0008350398200464154,
0.04598503740648379,-0.009437651693464687,
0.046034912718204486,0.005696207297097605,
0.04608478802992519,-0.007494911135056639,
0.046134663341645885,0.024093632357136546,
0.04618453865336658,-0.030223051385655474,
0.04623441396508728,-0.007339943317216395,
0.04628428927680798,-0.0076420139984890965,
0.04633416458852868,0.006506253689391912,
0.04638403990024938,-0.0013017444590360996,
0.04643391521197007,0.016415246969711424,
0.046483790523690775,0.005569583830308814,
0.04653366583541147,0.006528371212724299,
0.04658354114713217,0.009375501734714697,
0.04663341645885287,0.012607524108753895,
0.046683291770573565,0.0010533328326157044,
0.04673316708229427,0.04527168832431555,
0.04678304239401496,0.004443550605366634,
0.04683291770573566,0.003271979225110685,
0.04688279301745636,-0.0007802000583775875,
0.04693266832917706,0.005218656831113264,
0.04698254364089775,0.011809600258701631,
0.047032418952618456,0.0032934377162105854,
0.04708229426433915,0.007778854113316883,
0.04713216957605985,0.009180953255849927,
0.04718204488778055,0.030544168269395454,
0.047231920199501246,0.023158973183593223,
0.04728179551122195,0.017016471416793945,
0.047331670822942644,0.046216189340137194,
0.04738154613466334,0.02024721826549272,
0.04743142144638404,0.026854659751234154,
0.04748129675810474,0.029451787087592003,
0.047531172069825434,0.021688141786003687,
0.047581047381546136,0.022854646731022443,
0.04763092269326683,0.02305244327628839,
0.047680798004987535,0.019648942772053323,
0.04773067331670823,0.0383453289801611,
0.047780548628428926,0.027584354171715987,
0.04783042394014963,0.004808501293001697,
0.047880299251870324,0.04142751208834415,
0.04793017456359102,0.01430108302019592,
0.04798004987531172,0.008027780191467531,
0.04802992518703242,0.0253691809575943,
0.048079800498753114,0.006975467676119429,
0.04812967581047382,0.04723769536254495,
0.04817955112219451,0.034284764023871483,
0.048229426433915215,0.008293615717054713,
0.04827930174563591,0.04234570879975315,
0.048329177057356607,0.05149768771324098,
0.04837905236907731,0.0069508132198653465,
0.048428927680798005,0.0010379432177658084,
0.0484788029925187,0.03756554348037759,
0.0485286783042394,0.01909479225861538,
0.0485785536159601,0.01760844336382654,
0.048628428927680795,0.005544370063840301,
0.0486783042394015,0.026764380353238422,
0.04872817955112219,0.018005319258611988,
0.048778054862842896,-0.01162359171916473,
0.04882793017456359,0.024462840442669165,
0.04887780548628429,0.025319097389669837,
0.04892768079800499,-0.012873608062282764,
0.048977556109725685,0.04678046655659526,
0.04902743142144638,0.014982863064643581,
0.049077306733167084,0.03125350329344284,
0.04912718204488778,0.002168806201657835,
0.04917705735660848,0.015280366360023046,
0.04922693266832918,0.008024785560013315,
0.04927680798004987,0.032878694069934905,
0.049326683291770576,0.023798221391696465,
0.04937655860349127,0.02441434170891137,
0.04942643391521197,0.02342857026007485,
0.04947630922693267,0.03434644545928427,
0.049526184538653366,0.02564413135993989,
0.04957605985037406,-0.009002732295254827,
0.049625935162094764,0.014653039963357612,
0.04967581047381546,0.024472300200615252,
0.04972568578553616,0.047041964666133466,
0.04977556109725686,0.010469240303634038,
0.049825436408977554,0.014426422119106774,
0.04987531172069826,0.02388231846332465,
0.04992518703241895,0.025280970033573144,
0.04997506234413965,0.013699344066567209,
0.05002493765586035,0.042038361308593446,
0.050074812967581046,0.0441015984607743,
0.05012468827930175,0.042935887060751646,
0.050174563591022445,0.009876168854757516,
0.05022443890274314,0.030650922758252278,
0.05027431421446384,0.025552460025907314,
0.05032418952618454,0.031797722051688786,
0.050374064837905234,0.026703676699333708,
0.05042394014962594,0.02192346128445961,
0.05047381546134663,0.03841205850213342,
0.05052369077306733,0.032562324288798586,
0.05057356608478803,0.03693288393437368,
0.05062344139650873,-0.005799151474469629,
0.05067331670822943,0.018049188631507233,
0.050723192019950125,0.015323215519000746,
0.05077306733167082,0.0034796592545964823,
0.050822942643391524,0.02963764167494084,
0.05087281795511222,0.01913614394136549,
0.050922693266832915,-0.011250242791893773,
0.05097256857855362,0.0237066067316065,
0.05102244389027431,0.02676549648547088,
0.051072319201995016,0.031363596537877236,
0.05112219451371571,0.027144458574045814,
0.05117206982543641,0.033515875997810356,
0.05122194513715711,0.010481794987540656,
0.051271820448877806,0.027482338080508473,
0.0513216957605985,0.031290983607465246,
0.051371571072319204,0.023539440288054023,
0.0514214463840399,-0.0008969685416776903,
0.051471321695760595,0.029895687968391798,
0.0515211970074813,0.019513535634955285,
0.051571072319201994,0.030449239780143772,
0.051620947630922696,0.03086985473143588,
0.05167082294264339,0.041447832415324404,
0.05172069825436409,0.031692401417163694,
0.05177057356608479,0.032005208497909915,
0.051820448877805486,0.021892853068702395,
0.05187032418952618,0.019485125499519154,
0.051920199501246884,0.041227749651670455,
0.05197007481296758,-0.00038443896917158757,
0.052019950124688276,0.04130957272188612,
0.05206982543640898,0.006270577182035719,
0.052119700748129674,0.015584250209076552,
0.05216957605985038,0.060135816317004036,
0.05221945137157107,0.04584212227165938,
0.05226932668329177,0.004144635031650776,
0.05231920199501247,0.02970865068247822,
0.05236907730673317,0.029821176337668294,
0.05241895261845386,0.04174107802482717,
0.052468827930174565,0.06526461984225772,
0.05251870324189526,0.04014963812925251,
0.05256857855361596,0.014069204429316418,
0.05261845386533666,0.020300937233951932,
0.052668329177057355,0.022177249449762588,
0.05271820448877806,0.034759208794727485,
0.05276807980049875,0.023270589610455177,
0.05281795511221945,0.04861825977832919,
0.05286783042394015,0.008042509904395116,
0.05291770573566085,-0.006980065612207213,
0.05296758104738154,0.01621664304405141,
0.053017456359102245,-0.004413402643765076,
0.05306733167082294,0.028953329805018718,
0.053117206982543644,0.023494281293789415,
0.05316708229426434,0.011211406237849789,
0.053216957605985035,0.03471939712855282,
0.05326683291770574,0.012225642292597315,
0.053316708229426434,0.012294279576957294,
0.05336658354114713,0.010733831520237243,
0.05341645885286783,0.015895866373546542,
0.05346633416458853,0.031795564434945606,
0.05351620947630923,0.04248998791238318,
0.053566084788029926,-0.0014725678511166677,
0.05361596009975062,0.008110629122972616,
0.053665835411471324,0.019992128519562644,
0.05371571072319202,0.012451258074575868,
0.053765586034912716,0.043648485776422136,
0.05381546134663342,-0.00422103975045445,
0.053865336658354114,-0.0020479239230169113,
0.05391521197007481,-0.023047864374179272,
0.05396508728179551,-0.012837631488074982,
0.05401496259351621,0.010403224993134222,
0.05406483790523691,-0.007279641329090113,
0.054114713216957606,0.025159401527903538,
0.0541645885286783,0.016355563299236885,
0.054214463840399005,0.026795517026608484,
0.0542643391521197,0.0229610776474843,
0.054314214463840396,0.04112591307660467,
0.0543640897755611,0.02006430431912125,
0.054413965087281795,0.004390844272435597,
0.0544638403990025,-0.01864111395618162,
0.05451371571072319,0.007915198098498888,
0.05456359102244389,0.039783743091335824,
0.05461346633416459,0.007452658621888245,
0.05466334164588529,0.013851649328233288,
0.05471321695760598,-0.0116288100151446,
0.054763092269326685,0.03553700649481248,
0.05481296758104738,0.02216318822006937,
0.05486284289276808,0.009351024022613168,
0.05491271820448878,-0.022977681695744698,
0.054962593516209475,0.021932538791047815,
0.05501246882793018,0.012406994915144923,
0.05506234413965087,-0.005811973115679407,
0.05511221945137157,0.0025284920488902914,
0.05516209476309227,-0.008739665060190773,
0.05521197007481297,0.026148599054727436,
0.05526184538653366,0.02009509498040022,
0.055311720698254366,0.005979744779711469,
0.05536159600997506,-0.00815498945941268,
0.05541147132169576,-0.019463301542631116,
0.05546134663341646,0.005327050235514906,
0.055511221945137156,0.00567436392130228,
0.05556109725685786,-0.011203437036159457,
0.055610972568578554,0.0009937899721850856,
0.05566084788029925,-0.022619077096317768,
0.05571072319201995,-0.00493298352776228,
0.05576059850374065,-0.0014659230511170178,
0.055810473815461344,0.013033250761126006,
0.055860349127182046,0.029840340270680374,
0.05591022443890274,-0.014855536070468543,
0.055960099750623445,0.0016621951316401337,
0.05600997506234414,-0.00022003533695670076,
0.056059850374064836,0.006028444724976233,
0.05610972568578554,0.011350013030979059,
0.056159600997506234,-0.029487169920261867,
0.05620947630922693,-0.010973997832369,
0.05625935162094763,-0.0005600154476157681,
0.05630922693266833,0.004802207631006769,
0.056359102244389024,-0.0139598659537287,
0.05640897755610973,0.008213706336417322,
0.05645885286783042,-0.016558946201346996,
0.056508728179551125,-0.009890828346946608,
0.05655860349127182,-0.002046410965170096,
0.056608478802992516,0.02674764263369772,
0.05665835411471322,-0.008508051224025258,
0.056708229426433915,-0.0017540731720976331,
0.05675810473815461,-0.004124719354060197,
0.05680798004987531,0.0005716286978795179,
0.05685785536159601,0.008621614452776654,
0.05690773067331671,0.0036580206219924078,
0.05695760598503741,0.023784276215073938,
0.0570074812967581,-0.015440646408048169,
0.057057356608478806,0.02364940813379291,
0.0571072319201995,0.014384201434355239,
0.0571571072319202,0.010772416667154287,
0.0572069825436409,-0.002334020594890872,
0.057256857855361595,-0.017682815342932385,
0.05730673316708229,0.0006463240731747382,
0.057356608478802994,0.027289215677076754,
0.05740648379052369,0.012288959822627177,
0.05745635910224439,0.00422926589787873,
0.05750623441396509,0.0014642592692984914,
0.05755610972568578,0.0027485282960580107,
0.057605985037406486,-0.006116096450750841,
0.05765586034912718,-0.01322412698431334,
0.05770573566084788,0.0009044442846978329,
0.05775561097256858,0.01832888716355729,
0.057805486284289276,-0.008325598282197737,
0.05785536159600998,0.0018908400668971505,
0.057905236907730674,-0.0026653214646989764,
0.05795511221945137,-0.03829888848540053,
0.05800498753117207,-0.0006309872844253196,
0.05805486284289277,-0.014447793830513254,
0.058104738154613464,0.021711200910751734,
0.05815461346633417,-0.009660008729523363,
0.05820448877805486,-0.022245430843022104,
0.05825436408977556,0.010873420409701285,
0.05830423940149626,0.003079341454275294,
0.058354114713216956,-0.03493792453100605,
0.05840399002493766,-0.008910200972488565,
0.058453865336658355,-0.011956601936393028,
0.05850374064837905,0.022236760692481157,
0.05855361596009975,-0.018821477343893583,
0.05860349127182045,-0.017465345441866127,
0.058653366583541144,-0.011451125212584711,
0.05870324189526185,0.00040801099438602,
0.05875311720698254,-0.025986609856789952,
0.05880299251870324,-0.006790801836644039,
0.05885286783042394,-0.012786818180561033,
0.05890274314214464,-0.02226971361803612,
0.05895261845386534,-0.015004643302024641,
0.059002493765586035,0.014463003069220095,
0.05905236907730673,-0.01819208003349989,
0.059102244389027433,-0.011066460196272693,
0.05915211970074813,-0.013332783041312222,
0.059201995012468825,-0.02459164324919936,
0.05925187032418953,-0.005486924242129399,
0.05930174563591022,0.0015879794537027245,
0.059351620947630926,-0.008007014915984479,
0.05940149625935162,-0.01785873124090514,
0.05945137157107232,0.006550635126777098,
0.05950124688279302,-0.03221680487010008,
0.059551122194513716,-0.010701300464843903,
0.05960099750623441,-0.027959535052187016,
0.059650872817955114,-0.019595058602089745,
0.05970074812967581,-0.024236943763856073,
0.059750623441396505,-0.005151481806769243,
0.05980049875311721,-0.022128352174384452,
0.059850374064837904,-0.011468062700076352,
0.059900249376558606,-0.021681355567527587,
0.0599501246882793,-0.019678099867081793,
0.06,-0.0004773738911764795,
0.0600498753117207,-0.019978974688111398,
0.060099750623441396,-0.0025160688053040645,
0.06014962593516209,-0.014114124402985337,
0.060199501246882794,-0.007024604190380994,
0.06024937655860349,-0.019120037170601952,
0.06029925187032419,-0.03453793325209288,
0.06034912718204489,-0.041024086382082846,
0.060399002493765584,-0.026543310256093144,
0.06044887780548629,-0.03423440070634911,
0.06049875311720698,-0.009631397217450493,
0.06054862842892768,-0.027316378774597548,
0.06059850374064838,-0.011125007221484195,
0.06064837905236908,-0.00688643145010405,
0.06069825436408977,-0.00843303327229274,
0.060748129675810475,-0.0074428832363818195,
0.06079800498753117,-0.023501117573667452,
0.06084788029925187,-0.023667934210794033,
0.06089775561097257,-0.0027770715044180706,
0.060947630922693265,-0.034279229379574644,
0.06099750623441397,-0.03733828074556822,
0.06104738154613466,-0.013727608734798618,
0.06109725685785536,0.01910266454209674,
0.06114713216957606,-0.017822751686031008,
0.06119700748129676,-0.026354454289965898,
0.06124688279301746,-0.01334705691921105,
0.061296758104738155,-0.010551570927732911,
0.06134663341645885,-0.01564690838925747,
0.061396508728179554,-0.017243059916950403,
0.06144638403990025,-0.013365771474369053,
0.061496259351620945,-0.019790989967453577,
0.06154613466334165,-0.016694509248349716,
0.061596009975062344,-0.0245445714549881,
0.06164588528678304,-0.015944094084153818,
0.06169576059850374,-0.03439159718610118,
0.06174563591022444,0.010077572964150638,
0.06179551122194514,-0.01909993697065639,
0.061845386533665836,0.007594555877521751,
0.06189526184538653,-0.0041653171716965545,
0.061945137157107234,0.020498507239631147,
0.06199501246882793,-0.004059930409187456,
0.062044887780548626,0.00028827583560718517,
0.06209476309226933,-0.026762155959136204,
0.062144638403990024,-0.03837981870531141,
0.06219451371571072,-0.03663532477702057,
0.06224438902743142,0.02285032301765035,
0.06229426433915212,-0.01773420776961525,
0.06234413965087282,-0.007512284537732425,
0.062394014962593516,-0.019967154282218666,
0.06244389027431421,0.007120944528364082,
0.062493765586034915,-0.004709781012381509,
0.06254364089775562,-0.009873256420304077,
0.06259351620947631,-0.005444375097194017,
0.06264339152119701,-0.007340945712189316,
0.0626932668329177,-0.00021679139395606659,
0.0627431421446384,-0.002760753388449491,
0.0627930174563591,0.020770684135020704,
0.0628428927680798,-0.01678422563216314,
0.0628927680798005,-0.008165805503976482,
0.0629426433915212,-0.02413887505028013,
0.06299251870324189,0.014840004108142842,
0.06304239401496259,-0.00793352324316422,
0.0630922693266833,-0.0072106456151258555,
0.063142144638404,-0.015316626033967905,
0.06319201995012469,0.004170785559613484,
0.06324189526184539,-0.02944499307806216,
0.06329177057356608,-0.00826277415521819,
0.06334164588528678,-0.03590196419710273,
0.06339152119700749,-0.017745203203113576,
0.06344139650872818,-0.0396822251427351,
0.06349127182044888,-0.027178804982842072,
0.06354114713216957,-0.012260817029906486,
0.06359102244389027,-0.03436503494065672,
0.06364089775561098,-0.0037288068323034188,
0.06369077306733167,0.0005557086585380264,
0.06374064837905237,0.012148707921961523,
0.06379052369077307,-0.02436126103318678,
0.06384039900249376,0.0019079442829542086,
0.06389027431421446,-0.008552133953413874,
0.06394014962593517,-0.028719916073720174,
0.06399002493765586,-0.02799117626979195,
0.06403990024937656,0.00575626245545539,
0.06408977556109725,-0.02357644991159183,
0.06413965087281795,-0.020573449836932996,
0.06418952618453866,-0.0094401714361555,
0.06423940149625935,0.017259280183469963,
0.06428927680798005,0.02137803036625334,
0.06433915211970075,-0.008123054227398604,
0.06438902743142144,0.005639465011017998,
0.06443890274314215,-0.019420720649456956,
0.06448877805486285,-0.010736581641978042,
0.06453865336658354,-0.010814083537100495,
0.06458852867830424,0.0002752836058391218,
0.06463840399002493,0.005289338779246901,
0.06468827930174563,0.02226118747827182,
0.06473815461346634,0.00912136433633934,
0.06478802992518704,-0.011280431214689596,
0.06483790523690773,0.004842597840124768,
0.06488778054862843,0.0013793699676345119,
0.06493765586034912,-0.022773968869134614,
0.06498753117206983,0.02219677268067608,
0.06503740648379053,0.024523746831710894,
0.06508728179551122,-0.00882771930930135,
0.06513715710723192,-0.0034413119788380213,
0.06518703241895261,-0.009236796950307092,
0.06523690773067331,-0.0020107881163328157,
0.06528678304239402,-0.01349168576606011,
0.06533665835411472,0.020142685709143432,
0.06538653366583541,-0.0016572425526068502,
0.06543640897755611,0.029874544899154996,
0.0654862842892768,0.02424925680954363,
0.06553615960099751,-0.0002422088252353998,
0.06558603491271821,-0.0006457000856979513,
0.0656359102244389,0.01377715654830065,
0.0656857855361596,0.0010856171058109204,
0.0657356608478803,-0.002472172038201636,
0.06578553615960099,0.001442792743364188,
0.0658354114713217,0.006131038097817191,
0.0658852867830424,0.023601272422604583,
0.06593516209476309,-3.899768184336891e-05,
0.06598503740648379,-0.011475490430650184,
0.06603491271820448,-0.000797121009272362,
0.06608478802992519,0.018100003828656695,
0.06613466334164589,0.035773317734139706,
0.06618453865336658,0.0010294697615141953,
0.06623441396508728,0.01999454019878345,
0.06628428927680798,0.008325742466144733,
0.06633416458852869,0.019346707186527985,
0.06638403990024938,0.014964846788327511,
0.06643391521197008,0.008510520011159583,
0.06648379052369077,0.001225877310101894,
0.06653366583541147,0.02064076822529496,
0.06658354114713216,0.021988765825546513,
0.06663341645885287,0.019142016592426973,
0.06668329177057357,0.026427763388013545,
0.06673316708229426,0.011204344318411903,
0.06678304239401496,0.013058000967751086,
0.06683291770573566,0.012614300090315299,
0.06688279301745637,0.04543712897477101,
0.06693266832917706,0.01684274090473964,
0.06698254364089776,0.013639845096085429,
0.06703241895261845,0.026067585550461694,
0.06708229426433915,0.004805146658263433,
0.06713216957605984,0.02223001266230963,
0.06718204488778055,0.012305001561006229,
0.06723192019950125,0.03644634685026555,
0.06728179551122195,-0.004255280480572334,
0.06733167082294264,-0.0030652612327962472,
0.06738154613466334,0.005416162873743956,
0.06743142144638405,0.004034692318524621,
0.06748129675810474,0.01593283255498022,
0.06753117206982544,0.017314788816176107,
0.06758104738154613,0.031549939974492305,
0.06763092269326683,0.04361566486521247,
0.06768079800498752,0.021902446691239027,
0.06773067331670823,0.02864060053387296,
0.06778054862842893,-0.005203899755408293,
0.06783042394014963,0.04183368324163797,
0.06788029925187032,0.02233148791610665,
0.06793017456359102,0.029244095975149778,
0.06798004987531173,0.013808598523456315,
0.06802992518703242,0.01644778591894315,
0.06807980049875312,0.014942885009391296,
0.06812967581047381,-0.003366736613500256,
0.06817955112219451,0.01921813130381864,
0.0682294264339152,0.016983107437796838,
0.06827930174563591,0.045981204417717025,
0.06832917705735661,0.009206207499893183,
0.0683790523690773,0.01946365173012899,
0.068428927680798,0.006079977207952947,
0.0684788029925187,0.033373990131914416,
0.06852867830423941,0.03452292905617226,
0.0685785536159601,0.029755727546652774,
0.0686284289276808,-0.004028561053518516,
0.0686783042394015,0.014793800358397589,
0.06872817955112219,0.019430634989931854,
0.0687780548628429,0.018434450755621192,
0.0688279301745636,-0.00550984258660351,
0.06887780548628429,0.02967235080819218,
0.06892768079800499,0.03661031196642625,
0.06897755610972568,-0.020890398132789898,
0.06902743142144638,0.033215068601664864,
0.06907730673316709,0.008735810587921724,
0.06912718204488778,0.012714393963651531,
0.06917705735660848,0.015766870459265697,
0.06922693266832917,-0.012525017130509741,
0.06927680798004987,0.001944572516834376,
0.06932668329177058,0.013271095890114097,
0.06937655860349128,0.050746212289828334,
0.06942643391521197,0.02271483704080304,
0.06947630922693267,-0.015804773572490945,
0.06952618453865336,0.024197215273871312,
0.06957605985037406,0.060521160953751235,
0.06962593516209477,0.02237269483794027,
0.06967581047381546,0.0349053381342722,
0.06972568578553616,-0.010557444230208064,
0.06977556109725686,0.027481717043267243,
0.06982543640897755,0.06312753533800011,
0.06987531172069826,0.015369873659999122,
0.06992518703241896,0.053309092361363594,
0.06997506234413965,0.008066527540728272,
0.07002493765586035,0.025477036904393954,
0.07007481296758104,0.005824217600652295,
0.07012468827930174,-0.005085041843212526,
0.07017456359102245,0.04125721740699597,
0.07022443890274314,0.00989363446307436,
0.07027431421446384,0.013044275113472207,
0.07032418952618454,0.053943454820150005,
0.07037406483790523,0.03793963549589949,
0.07042394014962594,-0.004923450607370698,
0.07047381546134664,0.026375085945203797,
0.07052369077306733,0.03101129723769358,
0.07057356608478803,0.026108012804280847,
0.07062344139650872,0.06075804073467866,
0.07067331670822943,0.010543859061022372,
0.07072319201995013,0.056043258648557616,
0.07077306733167082,0.01683254600627955,
0.07082294264339152,0.038258907560168795,
0.07087281795511222,0.014353473917637794,
0.07092269326683291,0.035407120955289764,
0.07097256857855362,0.008611529718413946,
0.07102244389027432,0.013170671023033128,
0.07107231920199501,0.04315215736332852,
0.07112219451371571,0.038255938352197164,
0.0711720698254364,0.05389076838122205,
0.07122194513715711,0.030954833043454033,
0.07127182044887781,0.02665925114818269,
0.0713216957605985,0.03893469149495049,
0.0713715710723192,0.039181466327123785,
0.0714214463840399,0.011058781588719546,
0.07147132169576059,0.011800910487490995,
0.0715211970074813,0.05744975336884728,
0.071571072319202,0.01866687144688463,
0.0716209476309227,0.020110080239848366,
0.07167082294264339,0.04627245777870415,
0.07172069825436408,0.050759189942008336,
0.0717705735660848,0.032298776325104195,
0.07182044887780549,-0.0028473235889526043,
0.07187032418952619,0.0048499780460547134,
0.07192019950124688,0.04392784908400124,
0.07197007481296758,0.018414293888591296,
0.07201995012468827,0.007281641456309801,
0.07206982543640898,0.016428820576124013,
0.07211970074812968,0.012363512299449979,
0.07216957605985037,0.03437295836805362,
0.07221945137157107,0.03346741827184024,
0.07226932668329177,0.03353305199370343,
0.07231920199501247,0.029789214938702728,
0.07236907730673317,0.022965555942750092,
0.07241895261845387,0.03475040344633832,
0.07246882793017456,0.0508079450253201,
0.07251870324189526,0.030571798010155644,
0.07256857855361595,0.007410288473198173,
0.07261845386533666,0.022851236589390683,
0.07266832917705736,0.017724508959741356,
0.07271820448877805,0.05956381681631544,
0.07276807980049875,0.018796383925219953,
0.07281795511221945,0.02301499499717178,
0.07286783042394016,0.0249705695674466,
0.07291770573566085,-0.015278421503738725,
0.07296758104738155,0.017578067671180645,
0.07301745635910224,0.028769722637365797,
0.07306733167082294,0.020415412512311316,
0.07311720698254365,0.024934513338382393,
0.07316708229426434,0.008023041977964242,
0.07321695760598504,0.01646581683111461,
0.07326683291770573,0.02510554311356801,
0.07331670822942643,0.0371094899278415,
0.07336658354114713,0.025454796351763898,
0.07341645885286784,0.03960812271395307,
0.07346633416458853,0.01710085753724528,
0.07351620947630923,0.0024387957034345664,
0.07356608478802992,-0.0031469256221132516,
0.07361596009975062,0.020587735218595773,
0.07366583541147133,0.01183739815517393,
0.07371571072319202,0.04844044011418618,
0.07376558603491272,0.034446656595834464,
0.07381546134663342,0.013548082467064767,
0.07386533665835411,0.010339080780821859,
0.0739152119700748,0.030044368130116406,
0.07396508728179552,0.03220826015536711,
0.07401496259351621,-0.0009154615422740098,
0.07406483790523691,0.005873321454372402,
0.0741147132169576,0.015273613240037646,
0.0741645885286783,-0.00458300417041577,
0.07421446384039901,0.03225041947275546,
0.0742643391521197,0.060486354901811853,
0.0743142144638404,0.03028472279169666,
0.0743640897755611,0.02699017172871455,
0.07441396508728179,-0.014984766409503282,
0.07446384039900249,0.006480087198285896,
0.0745137157107232,-0.0028687517529634703,
0.07456359102244389,0.017531107294323157,
0.07461346633416459,0.019528211599223064,
0.07466334164588528,0.009917035730918681,
0.07471321695760598,0.0025456180615482694,
0.07476309226932669,0.003211758463395078,
0.07481296758104738,0.00822360646593089,
0.07486284289276808,0.0279093866760851,
0.07491271820448878,-0.0003711537172535941,
0.07496259351620947,0.0012981823440003301,
0.07501246882793017,0.007692792313582024,
0.07506234413965088,0.0065423907246083225,
0.07511221945137157,-0.004720217464335262,
0.07516209476309227,0.035027301162160435,
0.07521197007481296,0.028867190284575496,
0.07526184538653366,0.02886108160557903,
0.07531172069825437,-0.009260352928542956,
0.07536159600997507,0.015429595019200795,
0.07541147132169576,0.0014281301035454106,
0.07546134663341646,-0.02519856324091376,
0.07551122194513715,0.013138047616614563,
0.07556109725685786,-0.001132704539293575,
0.07561097256857856,0.002696793857145265,
0.07566084788029925,0.004079102710720155,
0.07571072319201995,0.010227905225856822,
0.07576059850374064,0.02797033269257465,
0.07581047381546134,-0.013346113049289707,
0.07586034912718205,-0.018732922448795427,
0.07591022443890275,0.012175077079362223,
0.07596009975062344,-0.022798493233836335,
0.07600997506234414,0.00013447806304284693,
0.07605985037406483,-0.014574880781867474,
0.07610972568578554,-0.0157044088937447,
0.07615960099750624,0.008984411895728298,
0.07620947630922693,0.008128266541923983,
0.07625935162094763,0.011365342349384785,
0.07630922693266833,-0.001979793054836494,
0.07635910224438902,0.01908778205026527,
0.07640897755610973,-0.0024991295175534694,
0.07645885286783043,0.032489946486153734,
0.07650872817955112,0.002755822177605082,
0.07655860349127182,-0.023303732347385846,
0.07660847880299251,0.034148197816324846,
0.07665835411471322,0.013244596953912151,
0.07670822942643392,0.024783138483590667,
0.07675810473815461,-0.02883684341227409,
0.07680798004987531,-0.012956482478186083,
0.076857855361596,0.002121323835832459,
0.0769077306733167,-0.03170190719599081,
0.07695760598503741,0.009966091778603671,
0.0770074812967581,-0.005556315122714418,
0.0770573566084788,0.0021378577919804326,
0.0771072319201995,-0.01952016354030734,
0.0771571072319202,-0.026572311242911064,
0.0772069825436409,-0.03175628066479232,
0.0772568578553616,-0.002418005286077751,
0.0773067331670823,-0.00238163448818385,
0.07735660847880299,-0.008102388377199584,
0.07740648379052369,-0.02729627935297321,
0.0774563591022444,-0.0053682904469199355,
0.07750623441396509,-1.8355733901132855e-05,
0.07755610972568579,0.007672570981954924,
0.07760598503740648,0.002302970193327014,
0.07765586034912718,-0.03144904568998692,
0.07770573566084787,0.005788398895266099,
0.07775561097256858,-0.0021736195131923305,
0.07780548628428928,-0.044576229976336416,
0.07785536159600998,0.008313235049510832,
0.07790523690773067,-0.01872424872015653,
0.07795511221945137,0.009407366362745929,
0.07800498753117208,-0.011280959091395665,
0.07805486284289277,-0.015953778816823812,
0.07810473815461347,-0.010458527281309925,
0.07815461346633416,0.012663889058530813,
0.07820448877805486,0.02244125360190602,
0.07825436408977555,-0.023918217212346105,
0.07830423940149626,-0.027209704771216314,
0.07835411471321696,0.001006004021907399,
0.07840399002493766,0.015273835712569656,
0.07845386533665835,0.013474007457466866,
0.07850374064837905,-0.01975638839607791,
0.07855361596009976,-0.022517162386815007,
0.07860349127182045,0.013921314205670027,
0.07865336658354115,-0.01056259753067628,
0.07870324189526184,-0.011835309775520374,
0.07875311720698254,-0.011222341685904356,
0.07880299251870324,0.014109690923769262,
0.07885286783042394,-0.010402205422185425,
0.07890274314214464,-0.029133592320038638,
0.07895261845386534,-0.007796729112048755,
0.07900249376558603,-0.01762593686034946,
0.07905236907730673,-0.03093753406503459,
0.07910224438902744,-0.030700297063928413,
0.07915211970074813,0.005545038965755271,
0.07920199501246883,0.0012607861973101177,
0.07925187032418952,-0.0010955885524238963,
0.07930174563591022,-0.017800159808106703,
0.07935162094763092,-0.033231720901636314,
0.07940149625935163,-0.008958623505036449,
0.07945137157107232,-0.00495610609262475,
0.07950124688279302,-0.037958671200306424,
0.07955112219451371,-0.006561997925186928,
0.07960099750623441,0.0041490883807406495,
0.07965087281795512,-0.03950115789250733,
0.07970074812967581,-0.00942486188763092,
0.07975062344139651,-0.023055207351412102,
0.0798004987531172,-0.02058504368564634,
0.0798503740648379,-0.007843167851822685,
0.07990024937655861,-0.03789794763198248,
0.0799501246882793,-0.010348968915023099,
0.08,0.006139645873821736,
0.0800498753117207,-0.004759003338183696,
0.0800997506234414,-0.006004644852079943,
0.08014962593516209,-0.049264039941247936,
0.0801995012468828,0.005273993399218378,
0.0802493765586035,-0.002161790589082009,
0.08029925187032419,-0.014255106126377171,
0.08034912718204489,-0.019560394000329204,
0.08039900249376558,-0.007989353574531184,
0.08044887780548629,-0.023455879245153827,
0.08049875311720699,-0.008303868310724188,
0.08054862842892768,-0.001041936421150533,
0.08059850374064838,-0.02571886751237615,
0.08064837905236907,-0.02019862836335721,
0.08069825436408977,-0.006671842277137944,
0.08074812967581048,-0.02186299522453964,
0.08079800498753117,-0.012351108958300046,
0.08084788029925187,-0.013708237435944124,
0.08089775561097257,-0.04205552594808373,
0.08094763092269326,-0.008379294480563319,
0.08099750623441397,0.006345815164968859,
0.08104738154613467,-0.0372572890131282,
0.08109725685785536,0.02302910044785534,
0.08114713216957606,-0.01058568632610983,
0.08119700748129675,-0.03057756033726139,
0.08124688279301745,-0.037436820605792176,
0.08129675810473816,0.010125989431925634,
0.08134663341645886,-0.014937664709839652,
0.08139650872817955,0.00045522185488852847,
0.08144638403990025,-0.005544625981988341,
0.08149625935162094,-0.02428803365703585,
0.08154613466334165,-0.0036568594635084974,
0.08159600997506235,-0.02556329605113574,
0.08164588528678304,-0.02712425548961292,
0.08169576059850374,0.0148930121416063,
0.08174563591022443,-0.012896430473526033,
0.08179551122194513,-0.011659330846757363,
0.08184538653366584,-0.011123153693061529,
0.08189526184538654,-0.03357169856347103,
0.08194513715710723,-0.005030579577053978,
0.08199501246882793,-0.011587428181293838,
0.08204488778054862,-0.006160830598282218,
0.08209476309226933,0.006007241282499246,
0.08214463840399003,-0.007307619694891766,
0.08219451371571072,-0.009714525614231723,
0.08224438902743142,-0.03455856336047122,
0.08229426433915212,-0.013880680963876419,
0.08234413965087282,-0.02513755587932016,
0.08239401496259352,-0.004950771112712523,
0.08244389027431422,-0.008566367080643383,
0.08249376558603491,-0.017895506555797983,
0.08254364089775561,-0.02785270057820162,
0.0825935162094763,0.012650174132681144,
0.08264339152119701,0.00769682703000003,
0.08269326683291771,-0.00758165434518514,
0.0827431421446384,0.01330042923715383,
0.0827930174563591,-0.003622082428928552,
0.0828428927680798,-0.026599146226967248,
0.0828927680798005,0.013774941768671398,
0.0829426433915212,0.005089502828236883,
0.0829925187032419,-0.030374762008597338,
0.08304239401496259,-0.018961235809668416,
0.08309226932668329,-0.011344166715206789,
0.08314214463840398,0.025546073891062705,
0.0831920199501247,-0.01612148602496316,
0.08324189526184539,-0.015794504729987446,
0.08329177057356608,-0.0012565398842527848,
0.08334164588528678,-0.01905119219369165,
0.08339152119700748,-0.01665967457192847,
0.08344139650872819,-0.004349614448008721,
0.08349127182044888,-0.01125704920701813,
0.08354114713216958,0.015137175347745604,
0.08359102244389027,-0.008186660408706446,
0.08364089775561097,0.010473954083208604,
0.08369077306733166,-0.0059024775259430284,
0.08374064837905237,0.014059296538505218,
0.08379052369077307,0.0152145835054726,
0.08384039900249377,0.01528501056865086,
0.08389027431421446,-0.008129356254035715,
0.08394014962593516,-0.013459929373155396,
0.08399002493765587,0.0019304608421870009,
0.08403990024937656,-0.007794517522590802,
0.08408977556109726,-0.023608931971804213,
0.08413965087281795,0.031821673731659145,
0.08418952618453865,-0.0036438252419588,
0.08423940149625936,-0.011238199916250708,
0.08428927680798005,-0.01739187595948459,
0.08433915211970075,0.010067731495002646,
0.08438902743142145,0.009845105206629071,
0.08443890274314214,-0.010396514147425413,
0.08448877805486284,-0.0008925612454626506,
0.08453865336658355,0.004627469036522903,
0.08458852867830424,-0.010211707698137677,
0.08463840399002494,0.019455084165347962,
0.08468827930174563,0.015207291727681291,
0.08473815461346633,0.02489342131504584,
0.08478802992518704,-0.005828242156150904,
0.08483790523690773,-0.03077829272320724,
0.08488778054862843,-0.0033238287207729717,
0.08493765586034913,-0.00943775059844737,
0.08498753117206982,-0.0043178077503070065,
0.08503740648379052,-0.015992414767167493,
0.08508728179551123,0.007822058025460682,
0.08513715710723192,0.018639081168988537,
0.08518703241895262,0.03414339667812815,
0.08523690773067331,0.011511391596912151,
0.08528678304239401,0.004794034465574146,
0.08533665835411472,0.021055992392791482,
0.08538653366583542,0.024530413791098354,
0.08543640897755611,0.00995177038014822,
0.0854862842892768,-0.025607274971845985,
0.0855361596009975,0.005948352867381602,
0.0855860349127182,0.007302467645863543,
0.08563591022443891,-0.007957602445437546,
0.0856857855361596,0.013777211597489507,
0.0857356608478803,-0.01657030426835346,
0.085785536159601,-0.01676628715212693,
0.08583541147132169,-0.004147077789094078,
0.0858852867830424,0.0005406608100735058,
0.0859351620947631,0.0023966604775866197,
0.08598503740648379,0.026413592974051804,
0.08603491271820449,-0.01042681076080726,
0.08608478802992518,0.021293909228357003,
0.08613466334164588,0.013240158152036816,
0.08618453865336659,0.022662989099131677,
0.08623441396508728,0.012977644284807978,
0.08628428927680798,0.021675518565415233,
0.08633416458852868,-0.019458415335728965,
0.08638403990024937,-0.006679750889149613,
0.08643391521197008,-0.003380695879936309,
0.08648379052369078,-0.009125768811712875,
0.08653366583541147,0.013778683076544302,
0.08658354114713217,0.02603978501530588,
0.08663341645885286,0.003667484515236328,
0.08668329177057357,0.03627274201936602,
0.08673316708229427,0.010341229586240334,
0.08678304239401496,-0.006108763660288953,
0.08683291770573566,0.00208110718069982,
0.08688279301745636,0.013088290688584076,
0.08693266832917705,0.026585044595422047,
0.08698254364089776,0.026007169815244605,
0.08703241895261846,0.0406455775604239,
0.08708229426433915,0.002521500459624841,
0.08713216957605985,0.03870157912580134,
0.08718204488778054,0.01555561641793455,
0.08723192019950125,0.013800323023483982,
0.08728179551122195,-0.019211601951107007,
0.08733167082294264,0.017890071550385796,
0.08738154613466334,0.007248501060571495,
0.08743142144638404,0.0331990568470594,
0.08748129675810473,0.0021437688635470506,
0.08753117206982544,0.037052759437049394,
0.08758104738154614,0.002617275302306526,
0.08763092269326683,0.004496664912337706,
0.08768079800498753,0.0328088575104196,
0.08773067331670822,0.01087001550462624,
0.08778054862842893,-0.012598338884914219,
0.08783042394014963,-0.01181591044537414,
0.08788029925187033,0.024063198120125348,
0.08793017456359102,0.04740382359295438,
0.08798004987531172,0.011957821960958754,
0.08802992518703241,0.0167485342771083,
0.08807980049875312,0.0395034867026234,
0.08812967581047382,0.02678174135701994,
0.08817955112219451,0.0271635882134202,
0.08822942643391521,0.030620042435448566,
0.0882793017456359,0.018273732176731537,
0.08832917705735661,0.02484061495306842,
0.08837905236907731,0.034626776210162094,
0.088428927680798,0.004690102208533647,
0.0884788029925187,0.05465986040192976,
0.0885286783042394,0.019883957325163477,
0.0885785536159601,0.013013066066116994,
0.0886284289276808,0.017958515914418376,
0.0886783042394015,0.008086878664175434,
0.0887281795511222,-0.0033549907374774597,
0.08877805486284289,0.0022134339327752953,
0.08882793017456359,0.03730758345190777,
0.0888778054862843,0.0032482952404687855,
0.08892768079800499,0.04366583691381934,
0.08897755610972569,-0.004287682926094768,
0.08902743142144638,0.02525783393439639,
0.08907730673316708,-0.008746265093334971,
0.08912718204488779,0.03478539455242437,
0.08917705735660848,0.002809977365511005,
0.08922693266832918,0.005267015304425134,
0.08927680798004987,0.00020064757280446183,
0.08932668329177057,0.03046112719062623,
0.08937655860349127,0.022140509626285384,
0.08942643391521198,0.00844788172079012,
0.08947630922693267,0.01708066461465771,
0.08952618453865337,0.009157344553278081,
0.08957605985037406,0.028794189686938743,
0.08962593516209476,0.027759246801912742,
0.08967581047381547,0.013557463359884963,
0.08972568578553616,-0.010043568663865052,
0.08977556109725686,0.006854588353771972,
0.08982543640897755,0.03933242213521161,
0.08987531172069825,0.017976732982252008,
0.08992518703241895,0.02772940908213548,
0.08997506234413966,0.04323831597910635,
0.09002493765586035,0.04692874509713976,
0.09007481296758105,0.019565816707240922,
0.09012468827930174,0.047709667881887005,
0.09017456359102244,0.03444943820128058,
0.09022443890274315,0.010586388747971815,
0.09027431421446384,0.02919830636561125,
0.09032418952618454,0.026198911585561892,
0.09037406483790524,0.04244239037476314,
0.09042394014962593,0.0014293770303843052,
0.09047381546134663,0.010874631970820926,
0.09052369077306734,0.02188180314869339,
0.09057356608478803,0.036757254339787576,
0.09062344139650873,0.023381210519523198,
0.09067331670822942,0.01885386864548918,
0.09072319201995012,0.026524332040892537,
0.09077306733167083,0.011556658659950468,
0.09082294264339152,0.049046969126287074,
0.09087281795511222,0.0345066835568055,
0.09092269326683292,0.001967158507325043,
0.09097256857855361,0.039495653139367065,
0.09102244389027432,0.04145572135100804,
0.09107231920199502,0.046308658573669975,
0.09112219451371571,0.04315065390019003,
0.09117206982543641,0.019268375929574564,
0.0912219451371571,0.003812756723865128,
0.0912718204488778,0.020489069549026497,
0.09132169576059851,0.053113680035665634,
0.0913715710723192,0.03401369612996674,
0.0914214463840399,0.009218203112615803,
0.0914713216957606,0.026949697916009766,
0.09152119700748129,0.03224454894589727,
0.091571072319202,0.0072524317539688216,
0.0916209476309227,0.04712623860576795,
0.09167082294264339,0.024736731336529986,
0.09172069825436409,0.027766796022420173,
0.09177057356608478,0.02152403208139252,
0.09182044887780548,0.02001817013777524,
0.09187032418952619,0.027594753869201637,
0.09192019950124689,0.0294812173315067,
0.09197007481296758,-0.006250115411573925,
0.09201995012468828,0.03681001044075362,
0.09206982543640897,0.023848284979447423,
0.09211970074812968,0.04706580542827164,
0.09216957605985038,0.03559426809542094,
0.09221945137157107,0.03300435479358148,
0.09226932668329177,-0.009257625475365894,
0.09231920199501246,-0.01361301790003289,
0.09236907730673316,0.01579976650591263,
0.09241895261845387,-0.021625854803718852,
0.09246882793017457,0.015162052763150271,
0.09251870324189526,0.03464803720764177,
0.09256857855361596,0.007723864867440037,
0.09261845386533665,0.009438837205324936,
0.09266832917705736,0.021812845694508254,
0.09271820448877806,0.012849113060354913,
0.09276807980049875,0.013162196475795846,
0.09281795511221945,0.0286878691746199,
0.09286783042394015,0.00041808175752534524,
0.09291770573566084,0.04042724615197742,
0.09296758104738155,0.017865428006050756,
0.09301745635910225,0.030436029504903615,
0.09306733167082294,0.018835008931446826,
0.09311720698254364,0.025321336185484093,
0.09316708229426433,0.026707095273882746,
0.09321695760598504,0.01405161715256701,
0.09326683291770574,0.012360821740992031,
0.09331670822942643,0.024076105861337738,
0.09336658354114713,-0.0002180220017687015,
0.09341645885286783,0.03187670349884285,
0.09346633416458854,0.02060783551461882,
0.09351620947630923,0.015489532325861421,
0.09356608478802993,0.025395734700673623,
0.09361596009975062,0.019459222662549215,
0.09366583541147132,0.0018012340951591953,
0.09371571072319201,0.041091327149727866,
0.09376558603491272,0.023303180838291984,
0.09381546134663342,0.05127996186131344,
0.09386533665835411,0.01309032543213812,
0.09391521197007481,0.0017795982995158083,
0.0939650872817955,0.018818141997711015,
0.09401496259351622,-0.0023354177582429296,
0.09406483790523691,0.025776036933167067,
0.09411471321695761,0.007191615608111374,
0.0941645885286783,0.023531733135136394,
0.094214463840399,0.011995580327080785,
0.0942643391521197,0.021202617990489746,
0.0943142144638404,0.035364715556078556,
0.0943640897755611,-0.01011041111333989,
0.0944139650872818,0.017345817421361744,
0.09446384039900249,0.010531505467208553,
0.09451371571072319,0.026054248072679323,
0.0945635910224439,-0.011504562121591462,
0.09461346633416459,-0.004459060962659507,
0.09466334164588529,0.008811029959352654,
0.09471321695760598,0.009305665455201603,
0.09476309226932668,-0.000854468489376297,
0.09481296758104737,0.018046467143844905,
0.09486284289276808,0.008339502627610474,
0.09491271820448878,-0.022654879301910284,
0.09496259351620948,0.017940021757982677,
0.09501246882793017,0.03222586723299641,
0.09506234413965087,0.02703552432252839,
0.09511221945137158,0.04085551915810227,
0.09516209476309227,-0.0036164137156574037,
0.09521197007481297,0.031291126491066745,
0.09526184538653366,-0.004476539354086604,
0.09531172069825436,-0.007129912000078332,
0.09536159600997507,0.01417205617664524,
0.09541147132169576,0.014245817991812744,
0.09546134663341646,0.01992156448358122,
0.09551122194513716,0.007330816733532312,
0.09556109725685785,0.014534022706675597,
0.09561097256857855,0.0011305068154486694,
0.09566084788029926,0.0006463020974351932,
0.09571072319201995,-0.005212601596994565,
0.09576059850374065,0.0006251367893164387,
0.09581047381546134,0.009235019037876713,
0.09586034912718204,-0.013310453009881288,
0.09591022443890275,0.003828809590094605,
0.09596009975062345,0.007054831413956476,
0.09600997506234414,0.002534181790148055,
0.09605985037406484,0.03831503927605401,
0.09610972568578553,0.00623880095741176,
0.09615960099750623,0.01866970077243887,
0.09620947630922694,0.02302557523112079,
0.09625935162094763,0.01355375896708129,
0.09630922693266833,-0.01396494543703879,
0.09635910224438902,0.014289768057362437,
0.09640897755610972,-0.0261420470607229,
0.09645885286783043,0.03308867115332893,
0.09650872817955113,-0.01063019237113069,
0.09655860349127182,-0.0032182635702408006,
0.09660847880299252,-9.169320873068888e-05,
0.09665835411471321,-0.02351696937837821,
0.09670822942643391,0.010504410255663253,
0.09675810473815462,-0.012134135037623285,
0.09680798004987531,-0.017170072374402524,
0.09685785536159601,0.011524488123007819,
0.0969077306733167,0.014278954801629388,
0.0969576059850374,-0.007743335233813468,
0.09700748129675811,-0.005965196044337056,
0.0970573566084788,-0.03264976145506332,
0.0971072319201995,0.022694401976745174,
0.0971571072319202,0.014633310091688624,
0.0972069825436409,0.014106196213888943,
0.09725685785536159,0.0029747257391248222,
0.0973067331670823,0.010002890796557591,
0.097356608478803,0.009465824903462438,
0.09740648379052369,-0.017078558831393486,
0.09745635910224439,-0.01364331444479322,
0.09750623441396508,0.016826471660559176,
0.09755610972568579,0.01835445966757769,
0.09760598503740649,0.004547163076745751,
0.09765586034912718,0.0017700649558959197,
0.09770573566084788,-0.0016192452159963268,
0.09775561097256857,0.009941707306663284,
0.09780548628428928,-0.011574220554674853,
0.09785536159600998,-0.012342636760737574,
0.09790523690773068,0.0035063923701020303,
0.09795511221945137,-0.02120026138101081,
0.09800498753117207,-0.035123899627974124,
0.09805486284289276,-0.014587958798692801,
0.09810473815461347,-0.017571425383587073,
0.09815461346633417,0.0019071509229626575,
0.09820448877805486,-0.014410031097023275,
0.09825436408977556,-0.0030191088540146493,
0.09830423940149625,-0.014344505403192227,
0.09835411471321696,-0.019645030028015455,
0.09840399002493766,0.0031825949046807474,
0.09845386533665836,-0.00800028061790486,
0.09850374064837905,0.002927501722984536,
0.09855361596009975,-0.019164904057551314,
0.09860349127182044,-0.00915422849899487,
0.09865336658354115,-0.014696253719691374,
0.09870324189526185,-0.02071512828700412,
0.09875311720698254,-0.020964890643621958,
0.09880299251870324,0.0019053688679356202,
0.09885286783042393,0.011644901733234174,
0.09890274314214464,-0.016319270895724824,
0.09895261845386534,-0.006283310428455476,
0.09900249376558604,0.008012566258588637,
0.09905236907730673,-0.018049153622325318,
0.09910224438902743,-0.030230538471204015,
0.09915211970074812,-0.01087840202093863,
0.09920199501246883,-0.020091654846931706,
0.09925187032418953,-0.012889564709836229,
0.09930174563591022,-0.026848670977844092,
0.09935162094763092,-0.005165664626619359,
0.09940149625935162,0.0022396641988442316,
0.09945137157107233,-0.008039488503352893,
0.09950124688279302,0.003374815472496172,
0.09955112219451372,-0.012761792631971448,
0.09960099750623441,-0.0034971456367196927,
0.09965087281795511,-0.006619749479966905,
0.0997007481296758,0.0016039580825463282,
0.09975062344139651,-0.0022321480337408276,
0.09980049875311721,0.010947566534333942,
0.0998503740648379,-0.019150392785131223,
0.0999002493765586,-0.02948445376156804,
0.0999501246882793,-0.02035825908456193,
0.1,-0.005578471080301134,
0.1000498753117207,-0.008826231399631488,
0.1000997506234414,-0.038901629665586995,
0.10014962593516209,-0.01101351260153244,
0.10019950124688279,-0.02101852823927427,
0.1002493765586035,-0.00435570545602109,
0.1002992518703242,0.006674459512446069,
0.10034912718204489,-0.0025628578830436174,
0.10039900249376559,-0.00855409916629999,
0.10044887780548628,-0.020999043500207253,
0.10049875311720698,0.004150135804068259,
0.10054862842892769,-0.00015031586513152527,
0.10059850374064838,-0.03134107425968523,
0.10064837905236908,0.003637349927354927,
0.10069825436408977,-0.015835796042919785,
0.10074812967581047,0.0017273990178746333,
0.10079800498753118,-0.01107268251209519,
0.10084788029925187,-0.01950812555219267,
0.10089775561097257,0.004788990754093756,
0.10094763092269327,0.01857219057285258,
0.10099750623441396,-0.01774297132240805,
0.10104738154613466,-0.02494149418428685,
0.10109725685785537,-0.0030638391515388757,
0.10114713216957606,-0.009959405867234991,
0.10119700748129676,-0.03369202174685733,
0.10124688279301745,0.008426081941578269,
0.10129675810473815,-0.010743274037437007,
0.10134663341645886,-0.0057015878872360886,
0.10139650872817955,-0.029009815546094095,
0.10144638403990025,-0.016498022066106493,
0.10149625935162095,-0.03565280921691854,
0.10154613466334164,-0.006535801551369874,
0.10159600997506234,-0.0027168710910808174,
0.10164588528678305,-0.01885272947974096,
0.10169576059850374,-0.0098937438800469,
0.10174563591022444,-0.013542499133482553,
0.10179551122194513,-0.039359390966748994,
0.10184538653366583,-0.036282705253977025,
0.10189526184538654,-0.03590122637836633,
0.10194513715710724,-0.003093757166449617,
0.10199501246882793,0.018226447368656414,
0.10204488778054863,-0.028432760221306076,
0.10209476309226932,-0.015078450016086946,
0.10214463840399003,0.002834171037484609,
0.10219451371571073,-0.003385519708391834,
0.10224438902743142,0.0018581449038398788,
0.10229426433915212,-0.017226115668387283,
0.10234413965087281,-0.02541780529331051,
0.10239401496259351,-0.01965306480437707,
0.10244389027431422,-0.028048590432374454,
0.10249376558603492,0.01765225668387228,
0.10254364089775561,-0.0025847830925590405,
0.10259351620947631,-0.018638517148345843,
0.102643391521197,-0.010707711704123074,
0.10269326683291771,0.0011747260604816814,
0.10274314214463841,0.0028323029085383783,
0.1027930174563591,-0.005921974597489714,
0.1028428927680798,-0.02548054634436748,
0.1028927680798005,-0.01635212911831203,
0.10294264339152119,-0.015745661749185378,
0.1029925187032419,0.01061507820006953,
0.1030423940149626,-0.008372258308734195,
0.10309226932668329,-0.007147039784240137,
0.10314214463840399,-0.015107332805588104,
0.10319201995012468,-0.03603732772092803,
0.10324189526184539,0.0057644113443553946,
0.10329177057356609,0.01042291652049301,
0.10334164588528678,-0.019056615050523026,
0.10339152119700748,-0.008318302890186206,
0.10344139650872818,-0.01135799266443923,
0.10349127182044887,-0.004040337869494795,
0.10354114713216958,0.007369914987503132,
0.10359102244389028,-0.024753811837489845,
0.10364089775561097,0.003274614040728218,
0.10369077306733167,-0.01634905761050452,
0.10374064837905236,-0.008549149224472818,
0.10379052369077307,-0.01026856957425094,
0.10384039900249377,-0.01893363355727753,
0.10389027431421446,-0.007587713243807286,
0.10394014962593516,0.014342684097505397,
0.10399002493765586,-0.005296301486183704,
0.10403990024937655,0.0107619838596563,
0.10408977556109726,0.009229909537756669,
0.10413965087281796,-0.019579302373414726,
0.10418952618453865,-0.019023310000567728,
0.10423940149625935,-0.0032269619927129665,
0.10428927680798004,-0.003368332752395332,
0.10433915211970075,0.03142674662485873,
0.10438902743142145,-0.009162446287008852,
0.10443890274314215,0.011467244530701089,
0.10448877805486284,0.005381137053537916,
0.10453865336658354,-0.015698068845909716,
0.10458852867830425,0.012441320847636246,
0.10463840399002494,0.010234649570938142,
0.10468827930174564,0.020047294137601576,
0.10473815461346633,0.021287083004448683,
0.10478802992518703,-0.03452134815685451,
0.10483790523690772,0.024365465981781905,
0.10488778054862843,0.010432524302324182,
0.10493765586034913,0.0022490630111905493,
0.10498753117206983,-0.01970383168791197,
0.10503740648379052,0.016153428394835162,
0.10508728179551122,0.03945662435012331,
0.10513715710723193,-0.023052557684068345,
0.10518703241895262,0.015417035182553185,
0.10523690773067332,-0.02201002047262657,
0.10528678304239401,-0.0079139919345036,
0.10533665835411471,0.021128184118691367,
0.1053865336658354,-0.023763638128936643,
0.10543640897755611,0.021060581603098615,
0.10548628428927681,0.014466910056018911,
0.1055361596009975,0.0035772568305990037,
0.1055860349127182,-0.024636797187221275,
0.1056359102244389,0.003779851057469411,
0.10568578553615961,0.016621674315248882,
0.1057356608478803,0.02349040377367497,
0.105785536159601,0.011141175533123203,
0.1058354114713217,0.012832615787069741,
0.10588528678304239,0.02215854920500377,
0.10593516209476309,0.001558991428762771,
0.1059850374064838,0.013613047460627026,
0.10603491271820449,0.0012888457702692445,
0.10608478802992519,-0.005938841689992794,
0.10613466334164588,0.004846051627149556,
0.10618453865336658,0.015752970549576688,
0.10623441396508729,0.030802380704189093,
0.10628428927680798,0.016557301599864818,
0.10633416458852868,0.00555138066027761,
0.10638403990024937,0.01681179317560965,
0.10643391521197007,0.0135565878139427,
0.10648379052369077,0.018974383398816956,
0.10653366583541148,0.02003105998252328,
0.10658354114713217,0.023566368105556318,
0.10663341645885287,0.029255679292633976,
0.10668329177057356,0.011966839595833365,
0.10673316708229426,0.03505683948014468,
0.10678304239401497,0.0013035231474684376,
0.10683291770573566,0.023246092578445992,
0.10688279301745636,0.027917900519509896,
0.10693266832917706,0.012505094893771936,
0.10698254364089775,-0.0047527160282997485,
0.10703241895261846,0.019910489271948863,
0.10708229426433916,0.03452978663072123,
0.10713216957605985,0.04367000257168028,
0.10718204488778055,0.0005023652576387379,
0.10723192019950124,0.020067366839046086,
0.10728179551122194,0.01669455081394217,
0.10733167082294265,0.013937472562778882,
0.10738154613466334,-0.003446480076950531,
0.10743142144638404,0.016919995751459523,
0.10748129675810474,0.030316832439341065,
0.10753117206982543,0.0460886063861075,
0.10758104738154614,0.03783618858094086,
0.10763092269326684,-0.0005553538405375751,
0.10768079800498753,-0.004476952819147003,
0.10773067331670823,0.04518131106933024,
0.10778054862842892,0.017638477509455915,
0.10783042394014962,0.009329317861729471,
0.10788029925187033,0.049253511499650335,
0.10793017456359102,0.016929924638914632,
0.10798004987531172,0.017521047270391627,
0.10802992518703242,0.015619183620476275,
0.10807980049875311,0.004121146946843776,
0.10812967581047382,0.01426700479119494,
0.10817955112219452,0.008148653553820122,
0.10822942643391521,0.008690239699118042,
0.10827930174563591,-0.008856887025834308,
0.1083291770573566,0.024868080757646654,
0.1083790523690773,-0.0027074415475334228,
0.10842892768079801,0.01643767035674258,
0.1084788029925187,0.026075062487968585,
0.1085286783042394,0.0068707613452290775,
0.1085785536159601,0.023307892121303308,
0.10862842892768079,0.021886455625137528,
0.1086783042394015,0.013362641915461567,
0.1087281795511222,0.020828487913486068,
0.1087780548628429,0.027575171814971343,
0.10882793017456359,0.0019484857394717753,
0.10887780548628428,0.012925448576930945,
0.108927680798005,0.024089432288562803,
0.10897755610972569,0.023736828369178183,
0.10902743142144639,0.023694913136296923,
0.10907730673316708,-0.008200654162024198,
0.10912718204488778,0.00940859364204226,
0.10917705735660847,0.02033729581719945,
0.10922693266832918,0.006218340286451903,
0.10927680798004988,0.028685439085894077,
0.10932668329177057,0.026968228120837243,
0.10937655860349127,0.024937522926910195,
0.10942643391521197,0.021676141096205206,
0.10947630922693267,0.026793936455210055,
0.10952618453865337,0.03613251948611581,
0.10957605985037407,0.040942475850487575,
0.10962593516209476,0.042342114038092835,
0.10967581047381546,0.029326816966421643,
0.10972568578553615,0.014147101182176606,
0.10977556109725686,0.017160287153359387,
0.10982543640897756,0.05529184820808456,
0.10987531172069825,0.030620143217104174,
0.10992518703241895,0.030750284868618326,
0.10997506234413965,0.016558587203346162,
0.11002493765586036,0.04228944252716984,
0.11007481296758105,0.03307632416466951,
0.11012468827930175,0.02963588630930941,
0.11017456359102244,0.043775701304472156,
0.11022443890274314,0.045720750282472675,
0.11027431421446383,0.046029860157666816,
0.11032418952618454,0.029574829039094655,
0.11037406483790524,0.019387345414046353,
0.11042394014962593,0.03549904384027848,
0.11047381546134663,0.02161178243175501,
0.11052369077306733,0.025551529113123857,
0.11057356608478804,0.04112144577204592,
0.11062344139650873,0.05985229958124643,
0.11067331670822943,0.04942406374968264,
0.11072319201995012,0.04821486157402495,
0.11077306733167082,0.03077016839922906,
0.11082294264339151,0.020615410051540738,
0.11087281795511222,0.043633473858409405,
0.11092269326683292,0.030003492259590068,
0.11097256857855362,0.02845979480870521,
0.11102244389027431,0.020790836598952474,
0.111072319201995,0.029023376992153065,
0.11112219451371572,0.013338191229885298,
0.11117206982543641,0.03759443954519397,
0.11122194513715711,0.013858695688238016,
0.1112718204488778,0.002405349862070392,
0.1113216957605985,0.022948697987989767,
0.11137157107231921,0.007270651165417925,
0.1114214463840399,0.03897580017832811,
0.1114713216957606,0.05229037804367977,
0.1115211970074813,0.0286638207608359,
0.11157107231920199,0.05257886139996248,
0.11162094763092269,0.03553936511952908,
0.1116708229426434,0.01849335201064128,
0.11172069825436409,0.021499439933849878,
0.11177057356608479,0.052867920855131305,
0.11182044887780548,0.015497778518110529,
0.11187032418952618,0.027593952017826332,
0.11192019950124689,0.02616562026423799,
0.11197007481296758,0.038579877651866254,
0.11201995012468828,0.007343819146997499,
0.11206982543640898,0.03225930688527866,
0.11211970074812967,0.01650905422530833,
0.11216957605985037,0.02027306497294469,
0.11221945137157108,0.0062562234735605154,
0.11226932668329177,0.004221995472389731,
0.11231920199501247,0.019115862060733263,
0.11236907730673316,0.01701347771494428,
0.11241895261845386,0.01903766539709131,
0.11246882793017457,0.028408782516226312,
0.11251870324189527,0.031054482764469322,
0.11256857855361596,0.02214670732708854,
0.11261845386533666,0.04196483342169076,
0.11266832917705735,-0.01103691570768913,
0.11271820448877805,0.016860090111017224,
0.11276807980049876,0.026494712589190516,
0.11281795511221945,0.01808527154340723,
0.11286783042394015,0.013692257176475457,
0.11291770573566084,0.02523879141478799,
0.11296758104738154,0.037385151396227376,
0.11301745635910225,0.016835870831566423,
0.11306733167082295,0.011981826590075018,
0.11311720698254364,0.0025026725039638403,
0.11316708229426434,0.030295981912977527,
0.11321695760598503,0.03211542942947463,
0.11326683291770574,-0.0018125140433088507,
0.11331670822942644,0.01220117875444357,
0.11336658354114713,0.03899808315320494,
0.11341645885286783,0.04323488122576433,
0.11346633416458853,0.038735196910128764,
0.11351620947630922,0.050839381932115776,
0.11356608478802993,0.019300900263561533,
0.11361596009975063,0.012070023912711279,
0.11366583541147132,0.016676650282236357,
0.11371571072319202,0.021685572246083584,
0.11376558603491271,0.013949506039126536,
0.11381546134663342,0.015472309981729729,
0.11386533665835412,0.023758689238025363,
0.11391521197007481,0.01830034463467548,
0.11396508728179551,0.003797874425610269,
0.1140149625935162,0.020310822959327804,
0.1140648379052369,0.01030152651728067,
0.11411471321695761,0.028842914583847416,
0.1141645885286783,0.0313862256753966,
0.114214463840399,0.015064007454993995,
0.1142643391521197,-0.009494455457912561,
0.1143142144638404,0.031157962746588545,
0.1143640897755611,0.023801298432227676,
0.1144139650872818,0.026358175798703285,
0.1144638403990025,0.02093777545200365,
0.11451371571072319,-0.0006911726888114388,
0.11456359102244389,0.046287484095445176,
0.11461346633416458,0.024307338448628306,
0.11466334164588529,0.025210265039816694,
0.11471321695760599,-0.0025755115750840836,
0.11476309226932668,0.015725990343634613,
0.11481296758104738,-0.0021026948783052744,
0.11486284289276807,0.017443051016397693,
0.11491271820448878,0.0042794835187666275,
0.11496259351620948,-0.0005168722672044997,
0.11501246882793018,-0.007400644402820265,
0.11506234413965087,0.022602794641459336,
0.11511221945137157,0.0185628275944877,
0.11516209476309226,-0.020931833912711615,
0.11521197007481297,0.0002641813515966828,
0.11526184538653367,0.01566454389095841,
0.11531172069825436,0.025735240911079815,
0.11536159600997506,0.005308841919206902,
0.11541147132169575,0.03093736509911163,
0.11546134663341646,0.033071615539802986,
0.11551122194513716,0.012512938043497353,
0.11556109725685786,-0.007368634972075903,
0.11561097256857855,0.008718070132607213,
0.11566084788029925,-0.0005281875843911338,
0.11571072319201996,0.003973019299967285,
0.11576059850374065,0.021961000838888085,
0.11581047381546135,-0.004994869855817743,
0.11586034912718204,0.028634924372703777,
0.11591022443890274,0.003906272489143629,
0.11596009975062344,0.011432000824613767,
0.11600997506234415,0.029157073393473364,
0.11605985037406484,-0.020114790959879073,
0.11610972568578554,0.010335226292335676,
0.11615960099750623,-0.008340257046496158,
0.11620947630922693,0.0009693963556075824,
0.11625935162094764,0.025591996873500555,
0.11630922693266833,-0.009131589056706477,
0.11635910224438903,-0.008598712663868094,
0.11640897755610972,0.016668589298156927,
0.11645885286783042,-0.009132940349129377,
0.11650872817955112,0.01699403234022208,
0.11655860349127183,0.015965111983925084,
0.11660847880299252,-0.005733481540387556,
0.11665835411471322,0.018567152918975986,
0.11670822942643391,0.00691812441898314,
0.11675810473815461,0.020565420595400438,
0.11680798004987532,-0.009297680645790573,
0.11685785536159601,-0.017861318287047966,
0.11690773067331671,0.005787780604884212,
0.1169576059850374,0.009059109530915427,
0.1170074812967581,-0.0067536115320074,
0.1170573566084788,-0.013078237091882997,
0.1171072319201995,-0.02911358757585413,
0.1171571072319202,0.0207853049292467,
0.1172069825436409,-0.0003607592315582798,
0.1172568578553616,0.018705625885061916,
0.11730673316708229,-0.005629319855451458,
0.117356608478803,0.01719228089362697,
0.1174064837905237,0.004255275039140014,
0.11745635910224439,-0.013273624931748378,
0.11750623441396509,-0.025094813230372878,
0.11755610972568578,9.179441492599815e-05,
0.11760598503740648,0.0013622785165002928,
0.11765586034912719,0.026687191972872518,
0.11770573566084788,-0.014873586311235934,
0.11775561097256858,-0.0037478363675170164,
0.11780548628428927,0.0023505880583018788,
0.11785536159600997,-0.0022159260920127854,
0.11790523690773068,-0.004579880802036773,
0.11795511221945137,0.001971879253788396,
0.11800498753117207,-0.007519870629973002,
0.11805486284289277,-0.008379854556630555,
0.11810473815461346,0.013071067384746051,
0.11815461346633417,-0.0015117250637477347,
0.11820448877805487,0.015850809416257636,
0.11825436408977556,0.014093114313959884,
0.11830423940149626,-0.01750845097191813,
0.11835411471321695,0.009020102719431869,
0.11840399002493765,0.004477663956814582,
0.11845386533665836,-0.00486567111897947,
0.11850374064837906,0.007513237761367241,
0.11855361596009975,0.006684845322791911,
0.11860349127182045,1.0699743125736592e-05,
0.11865336658354114,-0.021493285477154754,
0.11870324189526185,-0.014450705295960863,
0.11875311720698255,-0.018621015935718237,
0.11880299251870324,-0.01801977843942141,
0.11885286783042394,-0.009398329629763943,
0.11890274314214463,-0.022463857749950127,
0.11895261845386533,-0.0039257326522583,
0.11900249376558604,-0.010097003776769883,
0.11905236907730674,0.00836984710847126,
0.11910224438902743,0.011182142903034225,
0.11915211970074813,-0.03387717923403834,
0.11920199501246882,-0.009127625514320233,
0.11925187032418953,-0.033256614377616595,
0.11930174563591023,-0.010820182819206027,
0.11935162094763092,-0.0244949625861471,
0.11940149625935162,-0.028266567633390267,
0.11945137157107232,-0.014299741757780784,
0.11950124688279301,-0.018844100710884597,
0.11955112219451372,0.01465242112226249,
0.11960099750623442,0.014548557968122605,
0.11965087281795511,-0.0009848852658544856,
0.11970074812967581,-0.029437146563226914,
0.1197506234413965,-0.002823024067223765,
0.11980049875311721,-0.018823080780167728,
0.11985037406483791,-0.015213145714388254,
0.1199002493765586,-0.02235913768433729,
0.1199501246882793,-0.011033219093727474,
0.12,-0.0033224000164745427,
0.1200498753117207,-0.006611012301879949,
0.1200997506234414,-0.03729689753296342,
0.1201496259351621,-0.040660996946270886,
0.12019950124688279,0.005300784859716632,
0.12024937655860349,0.0023980605875448327,
0.12029925187032418,-0.017144153392534653,
0.1203491271820449,-0.03286038171396881,
0.12039900249376559,-0.01001411895798186,
0.12044887780548628,-0.02296013851203789,
0.12049875311720698,-0.022471532351010796,
0.12054862842892768,-0.037204350589886165,
0.12059850374064839,-0.014783193157470339,
0.12064837905236908,0.006884461559533912,
0.12069825436408978,-0.02533297436139684,
0.12074812967581047,-0.014697559374828556,
0.12079800498753117,0.004026942121204467,
0.12084788029925186,-0.022049978433254545,
0.12089775561097257,-0.0327404167779458,
0.12094763092269327,-0.01003105225174827,
0.12099750623441397,-0.007331085092129923,
0.12104738154613466,-0.0072201722236393834,
0.12109725685785536,-0.011084004819741394,
0.12114713216957607,-0.022993802739048837,
0.12119700748129676,0.016501843178570896,
0.12124688279301746,-0.011758892556962714,
0.12129675810473815,-0.0035474663190552917,
0.12134663341645885,0.010779714285688064,
0.12139650872817954,0.004207264811280495,
0.12144638403990025,-0.01272427383735584,
0.12149625935162095,-0.014592650240635758,
0.12154613466334165,0.008800516725127333,
0.12159600997506234,0.0028838943611309634,
0.12164588528678304,0.008986908597343265,
0.12169576059850375,-0.0014514784052961915,
0.12174563591022444,-0.02606527490225423,
0.12179551122194514,-0.01646912033973183,
0.12184538653366583,0.008903611302164594,
0.12189526184538653,-0.020867499474220595,
0.12194513715710723,-0.01716423042223894,
0.12199501246882793,0.02699098317233893,
0.12204488778054863,-0.018288447547337758,
0.12209476309226933,-0.00029559764148137484,
0.12214463840399002,-0.01680644335193132,
0.12219451371571072,-0.0045400977285290234,
0.12224438902743143,0.010935596128121597,
0.12229426433915212,0.010054684321915478,
0.12234413965087282,-0.01860080995453825,
0.12239401496259351,0.009345179100441008,
0.12244389027431421,-0.031423702823778724,
0.12249376558603492,-0.0011393109297220512,
0.12254364089775562,0.013485814985496489,
0.12259351620947631,-0.014284643018374128,
0.122643391521197,-0.019088907526499294,
0.1226932668329177,0.012443960633522377,
0.1227431421446384,0.005679986382706411,
0.12279301745635911,-0.007686789707092276,
0.1228428927680798,-0.006541002415662247,
0.1228927680798005,-0.02038314760885788,
0.1229426433915212,-0.031449581628197595,
0.12299251870324189,-0.02552418050678496,
0.1230423940149626,-0.018618232991775056,
0.1230922693266833,-0.009749912083688778,
0.12314214463840399,-0.014173721145665848,
0.12319201995012469,-0.01593642819212821,
0.12324189526184538,-0.025816538295108153,
0.12329177057356608,-0.0073715554851866115,
0.12334164588528679,0.0033851535412328156,
0.12339152119700748,0.004694598792052385,
0.12344139650872818,0.0050628120926556955,
0.12349127182044888,0.010562940801596124,
0.12354114713216957,-0.04100560820082431,
0.12359102244389028,0.03356265986818762,
0.12364089775561098,0.017411552194558044,
0.12369077306733167,0.0005537535985877767,
0.12374064837905237,-0.007147211376619297,
0.12379052369077306,-0.005905507503873602,
0.12384039900249376,-0.005972227813978827,
0.12389027431421447,-0.034254458415253444,
0.12394014962593516,-0.004123436545310746,
0.12399002493765586,-0.0020541419343275196,
0.12403990024937656,0.005935155972899775,
0.12408977556109725,0.007273917808377449,
0.12413965087281796,0.018952528004684305,
0.12418952618453866,-0.0036598234218725616,
0.12423940149625935,0.004172123437563421,
0.12428927680798005,0.0011534501304145497,
0.12433915211970074,0.011361730974706214,
0.12438902743142144,-0.007347987137572818,
0.12443890274314215,0.020333804753697518,
0.12448877805486284,0.00567370265355034,
0.12453865336658354,-0.021607398120360926,
0.12458852867830424,0.003139943395856549,
0.12463840399002493,0.00459141568303732,
0.12468827930174564,0.013510134608955643,
0.12473815461346634,0.011756224495695567,
0.12478802992518703,0.015238814425651732,
0.12483790523690773,-0.022692340536591415,
0.12488778054862842,0.02014556274286552,
0.12493765586034913,0.01481799524193303,
0.12498753117206983,0.005914093447687388,
0.12503740648379053,0.011053922525050679,
0.12508728179551123,-0.004695915803081378,
0.12513715710723192,-0.007851852452701176,
0.12518703241895263,-0.00725409690638878,
0.1252369077306733,0.02639375859676995,
0.12528678304239402,0.0009082516304204273,
0.1253366583541147,0.012488407713988212,
0.1253865336658354,-0.010091271610077796,
0.12543640897755612,0.009412607059185394,
0.1254862842892768,0.018096502860716554,
0.1255361596009975,-0.0015025276469637482,
0.1255860349127182,0.014096908269148774,
0.1256359102244389,0.008795325141749202,
0.1256857855361596,0.025496862302345505,
0.1257356608478803,0.011295128456093269,
0.125785536159601,0.018150168135647387,
0.12583541147132168,-0.006193507781019085,
0.1258852867830424,0.03689757805121666,
0.1259351620947631,0.005192068408264311,
0.12598503740648379,-0.008289845365542257,
0.1260349127182045,0.024917733706090357,
0.12608478802992518,0.03531280286764422,
0.1261346633416459,0.015886194249934933,
0.1261845386533666,-0.00924527476101055,
0.12623441396508728,0.04327778494000395,
0.126284289276808,0.0056729935355484835,
0.12633416458852867,0.007875768690574537,
0.12638403990024938,0.011251484182880332,
0.1264339152119701,0.0017797503108181005,
0.12648379052369077,-0.0066077037262994645,
0.12653366583541148,-0.008497079706052707,
0.12658354114713216,0.00933278194513099,
0.12663341645885287,0.011612393035775635,
0.12668329177057355,-0.0022034860899651336,
0.12673316708229426,0.025164182478344357,
0.12678304239401497,0.023261512376370103,
0.12683291770573565,0.022368172680310692,
0.12688279301745636,0.031462144399366204,
0.12693266832917705,0.035999596497885145,
0.12698254364089775,0.008100733295083823,
0.12703241895261846,0.008917977636751808,
0.12708229426433915,-0.011238429997712105,
0.12713216957605986,0.002073832332395272,
0.12718204488778054,0.020786666720255146,
0.12723192019950125,0.02019487546970613,
0.12728179551122196,0.04805985589922206,
0.12733167082294264,0.026814023934780568,
0.12738154613466335,0.02595675765050638,
0.12743142144638403,0.03135763020900274,
0.12748129675810474,-0.01596388320828644,
0.12753117206982545,0.026273246068725158,
0.12758104738154613,0.017692860767819524,
0.12763092269326684,0.03609152283687584,
0.12768079800498752,0.017512195249484788,
0.12773067331670823,0.006232394612571862,
0.1277805486284289,0.022610001036000346,
0.12783042394014962,0.03836397901412647,
0.12788029925187033,0.012216094022863654,
0.12793017456359101,0.0239318452843519,
0.12798004987531172,0.03808350430132831,
0.1280299251870324,0.03601336925469166,
0.12807980049875312,0.021021533961825396,
0.12812967581047383,0.002918751823955363,
0.1281795511221945,0.006999953450569696,
0.12822942643391522,0.029777668027956897,
0.1282793017456359,0.027430018387546284,
0.1283291770573566,0.014818726621253421,
0.12837905236907732,0.02985229696873965,
0.128428927680798,0.01766023219584505,
0.1284788029925187,0.022358612279302126,
0.1285286783042394,0.048928833522075194,
0.1285785536159601,0.05018831254650642,
0.1286284289276808,0.024913933172742694,
0.1286783042394015,0.02560218776642077,
0.1287281795511222,0.020800188318404977,
0.12877805486284288,0.043865558676460796,
0.1288279301745636,0.014898272760186949,
0.1288778054862843,-0.006659625797980507,
0.12892768079800498,0.030809194403474262,
0.1289775561097257,0.051254621055055405,
0.12902743142144638,0.06145939846577203,
0.12907730673316709,0.015899726722763668,
0.12912718204488777,0.04665772048146942,
0.12917705735660848,0.020751408758287397,
0.1292269326683292,0.0494474383225571,
0.12927680798004987,0.015848577932594636,
0.12932668329177058,0.04655419679246716,
0.12937655860349126,0.035089084111570065,
0.12942643391521197,0.050135955764179375,
0.12947630922693268,0.028618243479801957,
0.12952618453865336,0.04203776059771944,
0.12957605985037407,0.013266240399705826,
0.12962593516209475,0.012468777831037878,
0.12967581047381546,0.03608984755487826,
0.12972568578553617,0.02292175430014382,
0.12977556109725685,0.022768748069284632,
0.12982543640897756,0.024007672020822816,
0.12987531172069824,0.02393815092996903,
0.12992518703241895,0.0237331963275638,
0.12997506234413966,0.04079188779262633,
0.13002493765586035,-0.0025542246297390048,
0.13007481296758105,0.02627447600430329,
0.13012468827930174,0.030100559631404893,
0.13017456359102245,0.016251244631655247,
0.13022443890274316,0.011861318478520629,
0.13027431421446384,0.02722288990847043,
0.13032418952618455,0.019419879241122262,
0.13037406483790523,0.02070513470471679,
0.13042394014962594,0.03970629112695055,
0.13047381546134662,0.020784433935980583,
0.13052369077306733,0.027432197599816452,
0.13057356608478804,0.013587176099732031,
0.13062344139650872,0.05970621738111928,
0.13067331670822943,0.013968649982386398,
0.1307231920199501,0.008802181549840662,
0.13077306733167082,0.02724146776925485,
0.13082294264339153,0.01755220470400358,
0.13087281795511221,0.03691927781376739,
0.13092269326683292,0.016708049914750972,
0.1309725685785536,0.042441682526726525,
0.13102244389027431,0.03669982828827476,
0.13107231920199502,0.014380446829799878,
0.1311221945137157,0.022853552138041865,
0.13117206982543642,0.008808413842275292,
0.1312219451371571,0.035592878591755535,
0.1312718204488778,0.02304231774468104,
0.13132169576059852,0.02220910424115143,
0.1313715710723192,0.034880325212598054,
0.1314214463840399,0.029676821086503772,
0.1314713216957606,0.02521823181418372,
0.1315211970074813,0.03517061067267132,
0.13157107231920198,0.022215712182543583,
0.1316209476309227,0.025489684266832593,
0.1316708229426434,0.02763837463804486,
0.13172069825436408,0.031054248815794813,
0.1317705735660848,0.026131943516225498,
0.13182044887780547,0.03875516913250096,
0.13187032418952618,0.013468600676981989,
0.1319201995012469,0.01332314962727521,
0.13197007481296757,0.00593935353123843,
0.13201995012468828,0.03588003443091026,
0.13206982543640897,0.02362614070891403,
0.13211970074812968,0.026988356906509598,
0.13216957605985039,0.0012599936201519168,
0.13221945137157107,0.0346298521305954,
0.13226932668329178,0.02699127445286024,
0.13231920199501246,0.03183150715913005,
0.13236907730673317,0.05389378547000861,
0.13241895261845388,0.017521673995352198,
0.13246882793017456,0.014900233551656665,
0.13251870324189527,0.034514607520726825,
0.13256857855361595,0.02496054448273862,
0.13261845386533666,0.01187936636129141,
0.13266832917705737,0.033614242333173186,
0.13271820448877805,0.01630011321835192,
0.13276807980049876,0.0017095635840244407,
0.13281795511221944,0.019260370237529995,
0.13286783042394015,0.04320511494607328,
0.13291770573566083,0.036822410016141637,
0.13296758104738154,0.04166960090494863,
0.13301745635910225,0.020896730209025476,
0.13306733167082294,0.01766493435113006,
0.13311720698254365,0.03725178271401895,
0.13316708229426433,0.00036349423721869153,
0.13321695760598504,0.03692488777997554,
0.13326683291770575,0.01782275650067734,
0.13331670822942643,-0.019686536825650375,
0.13336658354114714,0.02644503341612489,
0.13341645885286782,0.024084715644966188,
0.13346633416458853,0.04500809619569478,
0.13351620947630924,0.02055912606577362,
0.13356608478802992,0.019685498207421114,
0.13361596009975063,0.06736496297224154,
0.1336658354114713,0.022242877435218494,
0.13371571072319202,0.03539975579450918,
0.13376558603491273,-0.0014336151542851672,
0.1338154613466334,0.04135218647647197,
0.13386533665835412,0.018669881232574872,
0.1339152119700748,0.005244047454786403,
0.13396508728179551,0.01859241504547138,
0.1340149625935162,0.03508618626522981,
0.1340648379052369,0.03297052278169791,
0.13411471321695762,0.002408448305356855,
0.1341645885286783,0.02259294707145202,
0.134214463840399,0.020811128858376965,
0.1342643391521197,-0.0012054710260752458,
0.1343142144638404,-0.0020422156872279794,
0.1343640897755611,0.02735616163125689,
0.1344139650872818,0.016311082477836657,
0.1344638403990025,0.022218362842125763,
0.13451371571072318,0.014758658892925137,
0.1345635910224439,0.011997551771795763,
0.1346134663341646,0.016884461958461872,
0.13466334164588528,0.018636278380945063,
0.134713216957606,0.005984683902415184,
0.13476309226932667,0.003904371916124947,
0.13481296758104738,0.004528557171212264,
0.1348628428927681,0.012404607166245878,
0.13491271820448877,0.015052713773151679,
0.13496259351620948,0.023114629101969836,
0.13501246882793017,0.026073346736081436,
0.13506234413965088,0.015455390521999193,
0.13511221945137158,0.010369698575728545,
0.13516209476309227,0.0219136657894528,
0.13521197007481298,-0.01423870317444817,
0.13526184538653366,0.022840665428457585,
0.13531172069825437,0.012908307684644089,
0.13536159600997505,0.0021039201258576824,
0.13541147132169576,0.013864122326242751,
0.13546134663341647,0.00740145498866667,
0.13551122194513715,-0.0022218427432502425,
0.13556109725685786,0.022028690359692432,
0.13561097256857854,0.01140382450163643,
0.13566084788029925,0.003793128634560313,
0.13571072319201996,-0.0008548322376197223,
0.13576059850374064,0.045447632722812235,
0.13581047381546135,-0.023686478126832902,
0.13586034912718203,0.004536118779571572,
0.13591022443890274,-0.01764582729456772,
0.13596009975062345,0.0032818676946674043,
0.13600997506234414,-0.0027072707747795473,
0.13605985037406484,0.026552968928034992,
0.13610972568578553,-0.00415585293657676,
0.13615960099750624,0.03155367667100151,
0.13620947630922695,0.023855501952543004,
0.13625935162094763,-0.0027536308010925516,
0.13630922693266834,0.01520764265592663,
0.13635910224438902,-0.013849807554527804,
0.13640897755610973,0.01394668883587544,
0.1364588528678304,0.027759056414670243,
0.13650872817955112,0.009023004734714303,
0.13655860349127183,-0.0009284092329494946,
0.1366084788029925,0.0031390529041639735,
0.13665835411471322,-0.0061254580805166145,
0.1367082294264339,-0.01878593696469233,
0.1367581047381546,-0.01645650454139267,
0.13680798004987532,0.012900056690033067,
0.136857855361596,-0.021945301414169418,
0.1369077306733167,0.013845737070160518,
0.1369576059850374,0.039924313273638753,
0.1370074812967581,0.017944049223891194,
0.13705735660847881,0.028886552511397698,
0.1371072319201995,0.01793077208025984,
0.1371571072319202,-0.017271947045689573,
0.1372069825436409,0.018671639828085895,
0.1372568578553616,-0.004920027643950119,
0.1373067331670823,0.009550565537109095,
0.137356608478803,-6.291978894410477e-05,
0.1374064837905237,-0.003002970642641766,
0.13745635910224438,-0.024458248641113324,
0.1375062344139651,0.0034696158833732,
0.1375561097256858,-0.01586469923767573,
0.13760598503740648,-0.00661186324329568,
0.1376558603491272,0.008783474129885593,
0.13770573566084787,-0.014148243009827893,
0.13775561097256858,-0.015901448967046386,
0.13780548628428926,0.004434001378253933,
0.13785536159600997,0.00591907001706286,
0.13790523690773068,-0.0023729993587978215,
0.13795511221945136,0.016192364142132147,
0.13800498753117207,-0.005619319232586466,
0.13805486284289276,0.0010228515687971057,
0.13810473815461347,-0.014944774268820677,
0.13815461346633418,-0.00460774876892336,
0.13820448877805486,-0.03266876955091124,
0.13825436408977557,-0.029716690050199206,
0.13830423940149625,0.005034544249030468,
0.13835411471321696,-0.02264101968846732,
0.13840399002493767,-0.008666934204463218,
0.13845386533665835,-0.0006795248144877905,
0.13850374064837906,-0.020399281331671126,
0.13855361596009974,-0.008378077890312648,
0.13860349127182045,-0.015182100842929227,
0.13865336658354116,-0.02943618034844783,
0.13870324189526184,-0.0002773797921400197,
0.13875311720698255,-0.023647782548631365,
0.13880299251870323,-0.006848043448699225,
0.13885286783042394,0.03035903341855909,
0.13890274314214462,-0.015965212507828293,
0.13895261845386533,0.011429939297338503,
0.13900249376558604,0.0026885313521176797,
0.13905236907730673,-0.0346342306733784,
0.13910224438902744,-0.022546215755616703,
0.13915211970074812,0.013957736399703973,
0.13920199501246883,0.0072165973335592565,
0.13925187032418954,-0.006561709031327158,
0.13930174563591022,0.0071373875318802,
0.13935162094763093,-0.014831253171816569,
0.1394014962593516,0.007267538594062227,
0.13945137157107232,-0.011328363259051637,
0.13950124688279303,-0.00522018999014197,
0.1395511221945137,-0.022872134832020607,
0.13960099750623442,-0.022883123616522512,
0.1396508728179551,0.005775803388995198,
0.1397007481296758,-0.0023810507752912184,
0.13975062344139652,-0.0100749602612368,
0.1398004987531172,-0.0161306387945815,
0.1398503740648379,0.004195147893937726,
0.1399002493765586,-0.02790108252403235,
0.1399501246882793,-0.012675661346978132,
0.14,0.010313881188569756,
0.1400498753117207,-0.015441010513243838,
0.1400997506234414,-0.015394600827425253,
0.1401496259351621,-0.030229264818539284,
0.1401995012468828,0.0035458597109085735,
0.14024937655860348,-0.027131137296975413,
0.1402992518703242,-0.012674339316163456,
0.1403491271820449,-0.0204120181562875,
0.14039900249376558,-0.008903929423803317,
0.1404488778054863,-0.0101096632113352,
0.14049875311720697,-0.03635398152462479,
0.14054862842892768,-0.04107227091204147,
0.1405985037406484,-0.00642855776120841,
0.14064837905236907,-0.0016117340737144721,
0.14069825436408978,-0.00822104420797062,
0.14074812967581046,-0.010301731635397007,
0.14079800498753117,-0.002761661627777516,
0.14084788029925188,-0.014198119999619705,
0.14089775561097256,-0.01848072909824578,
0.14094763092269327,0.004792870452292215,
0.14099750623441396,0.019447743524857026,
0.14104738154613466,0.008959383326316269,
0.14109725685785537,-0.013238830134841619,
0.14114713216957606,0.014517901602705488,
0.14119700748129677,-0.030352161929474625,
0.14124688279301745,-0.026589799509285996,
0.14129675810473816,0.02000503035110851,
0.14134663341645887,-0.009451373199033242,
0.14139650872817955,-0.017321620297090765,
