time,amplitude,label
0.0,0.0017637481144302768,
4.987531172069826e-05,0.030273882645131523,
9.975062344139652e-05,0.033466504031011736,
0.00014962593516209475,0.005571774942550048,
0.00019950124688279303,-0.0023750397812370393,
0.00024937655860349125,0.037492041723434955,
0.0002992518703241895,0.0036775569822888876,
0.00034912718204488776,0.03931745035397963,
0.00039900249376558606,0.015523786493626276,
0.0004488778054862843,0.03852082551285657,
0.0004987531172069825,0.05262762229072883,
0.0005486284289276808,0.01861008781201587,
0.000598503740648379,0.019610816913692524,
0.0006483790523690773,0.04034824386061263,
0.0006982543640897755,0.027371431838455907,
0.0007481296758104738,0.003493692735375486,
0.0007980049875311721,0.035076898071471505,
0.0008478802992518703,0.01897539161447297,
0.0008977556109725686,0.002370935968592211,
0.0009476309226932668,0.023893228461080343,
0.000997506234413965,0.00874273959004844,
0.0010473815461346633,0.01183644816986713,
0.0010972568578553616,0.004288222848837061,
0.00114713216957606,0.011248305195918242,
0.001197007481296758,0.021603997458677818,
0.0012468827930174563,0.00664580187938333,
0.0012967581047381546,0.019494219976066304,
0.001346633416458853,0.04102662939702224,
0.001396508728179551,-0.00419505027289202,
0.0014463840399002493,0.025339361519895992,
0.0014962593516209476,0.014704903399414427,
0.001546134663341646,0.005164516873327828,
0.0015960099750623442,0.007102974627676534,
0.0016458852867830423,0.05343198566471792,
0.0016957605985037406,0.0023072130890955736,
0.001745635910224439,0.024543876763516787,
0.0017955112219451373,0.03830498703002983,
0.0018453865336658353,0.007539957630726953,
0.0018952618453865336,0.03855648097613923,
0.001945137157107232,-0.0013678450155792908,
0.00199501246882793,0.013518322682501796,
0.0020448877805486283,0.007734004363441438,
0.0020947630922693266,-0.012685658954160045,
0.002144638403990025,0.027124393287912295,
0.0021945137157107233,0.037949199928565366,
0.0022443890274314216,0.032321390791176824,
0.00229426433915212,0.012215033514046604,
0.0023441396508728177,0.025684285030937087,
0.002394014962593516,-0.002301668170626922,
0.0024438902743142144,0.019051495336665062,
0.0024937655860349127,-0.01029723475752771,
0.002543640897755611,0.03363927393381639,
0.0025935162094763093,0.005911001290630298,
0.0026433915211970076,-0.011974859875974742,
0.002693266832917706,0.03269272909853663,
0.002743142144638404,0.019201309798960314,
0.002793017456359102,0.00297592229146733,
0.0028428927680798004,-0.01130785834597338,
0.0028927680798004987,0.002982939402274386,
0.002942643391521197,0.011529205651633581,
0.0029925187032418953,0.0029779937367822185,
0.0030423940149625936,0.012490366289779694,
0.003092269326683292,0.00553789454823932,
0.00314214463840399,-0.006582917023333622,
0.0031920199501246885,0.003460100980339763,
0.0032418952618453864,0.016444885996178354,
0.0032917705735660847,-0.017994558892117457,
0.003341645885286783,0.0032668616552286468,
0.0033915211970074813,0.014254980775893496,
0.0034413965087281796,0.012687797906465504,
0.003491271820448878,-0.024750835673403596,
0.003541147132169576,-0.030788254144247906,
0.0035910224438902745,-0.0021838649211370475,
0.0036408977556109724,-0.009548555155229777,
0.0036907730673316707,0.016666106933115852,
0.003740648379052369,0.004105618628035405,
0.0037905236907730673,0.020537724974988035,
0.0038403990024937656,0.015077639208540414,
0.003890274314214464,-0.009001580029444496,
0.003940149625935162,0.013140853206148651,
0.00399002493765586,0.028108700788203052,
0.004039900249376558,-0.004708281669160482,
0.004089775561097257,0.006232563116959413,
0.004139650872817955,-0.0194260069668419,
0.004189526184538653,0.027584477684020198,
0.004239401496259352,0.013725361427146726,
0.00428927680798005,0.0028655207083385743,
0.004339152119700748,-0.010794685367952212,
0.0043890274314214465,0.003690267806909988,
0.004438902743142145,0.011932358704564015,
0.004488778054862843,0.0013023718362315142,
0.004538653366583541,0.029156393604969702,
0.00458852867830424,-0.016180480510524876,
0.004638403990024938,0.01796814779342716,
0.0046882793017456355,-0.028867555207459386,
0.004738154613466334,-0.0016580454544726344,
0.004788029925187032,0.0042025070631834735,
0.00483790523690773,-0.031375138642731164,
0.004887780548628429,-0.004015869947463558,
0.004937655860349127,0.006297102228676116,
0.004987531172069825,-0.017703580574130524,
0.005037406483790524,0.018423898066172954,
0.005087281795511222,-0.02593274811201725,
0.00513715710723192,0.002171815993146549,
0.0051870324189526185,-0.011890865688030834,
0.005236907730673317,-0.010664487677458907,
0.005286783042394015,0.00462120360666078,
0.0053366583541147134,-0.007567171467951459,
0.005386533665835412,-0.005078932953603023,
0.00543640897755611,-0.0070277505864261725,
0.005486284289276808,-0.004824755059339043,
0.005536159600997507,0.013393401077970718,
0.005586034912718204,-0.003269467188121973,
0.005635910224438902,0.015090204934684603,
0.005685785536159601,0.0024366508965256743,
0.005735660847880299,-0.0068364164125854195,
0.005785536159600997,0.020768740105290426,
0.005835411471321696,0.021416038795702547,
0.005885286783042394,-0.004479175276986798,
0.005935162094763092,-0.001203629943434449,
0.0059850374064837905,-0.006346777975941867,
0.006034912718204489,0.004736974486427566,
0.006084788029925187,-0.009331596971394199,
0.0061346633416458855,0.007566118369035759,
0.006184538653366584,0.015947855160718068,
0.006234413965087282,-0.004591437024808833,
0.00628428927680798,-0.014891795337569569,
0.006334164588528679,0.002838783436537394,
0.006384039900249377,-0.02797137336325308,
0.006433915211970074,0.001036947255719285,
0.006483790523690773,0.010419601685923537,
0.006533665835411471,-0.015621295905866582,
0.006583541147132169,-0.0035593692855093997,
0.006633416458852868,-0.01738838344550292,
0.006683291770573566,-0.007209785113649334,
0.006733167082294264,0.006062506306548969,
0.0067830423940149626,0.002479909585833655,
0.006832917705735661,-0.000602496123097547,
0.006882793017456359,-0.028069162385668128,
0.0069326683291770575,-0.011216413605677355,
0.006982543640897756,0.0030818897785286695,
0.007032418952618454,-0.020540665100712674,
0.007082294264339152,0.011606915049697873,
0.007132169576059851,0.009584795909211146,
0.007182044887780549,-0.01819774760663646,
0.007231920199501247,0.004615574477553173,
0.007281795511221945,-0.007680892836036473,
0.007331670822942643,-0.024501045080570587,
0.007381546134663341,-0.031651153886485456,
0.00743142144638404,-0.03856994007874254,
0.007481296758104738,-0.0021933201765590594,
0.007531172069825436,-0.030453820886466133,
0.007581047381546135,-0.01792768685002539,
0.007630922693266833,1.4721327292943273e-05,
0.007680798004987531,-0.010475336706889965,
0.0077306733167082295,-0.021393182830176542,
0.007780548628428928,-0.02216682634389843,
0.007830423940149626,-0.02086677142683945,
0.007880299251870324,-0.0038848677325118413,
0.007930174563591023,-0.007901911868372292,
0.00798004987531172,-0.02833068620972988,
0.00802992518703242,-0.028740949375787056,
0.008079800498753117,-0.003997408086171411,
0.008129675810473816,0.01748494750675062,
0.008179551122194513,-0.014290440913520244,
0.008229426433915213,-0.028108716901088973,
0.00827930174563591,-0.02656558909191592,
0.00832917705735661,-0.0014240125340637677,
0.008379052369077307,-6.666566921510048e-05,
0.008428927680798006,-0.0035802889028353577,
0.008478802992518703,-0.016657299831359103,
0.0085286783042394,0.013398553157814973,
0.0085785536159601,-0.015563497501647455,
0.008628428927680797,-0.03489561837018136,
0.008678304239401496,-0.0329982681575131,
0.008728179551122194,-0.019810008494348212,
0.008778054862842893,-0.0056801330482364396,
0.00882793017456359,-0.042860106638804664,
0.00887780548628429,-0.0297382089601014,
0.008927680798004987,-0.01312485366774194,
0.008977556109725686,-0.03710718584061681,
0.009027431421446384,-0.0474118524153708,
0.009077306733167083,-0.018365803722415773,
0.00912718204488778,-0.019203568856508348,
0.00917705735660848,-0.0028627391018412173,
0.009226932668329177,-0.024015488359123784,
0.009276807980049876,-0.03570876678116802,
0.009326683291770574,-0.015641387702370984,
0.009376558603491271,-0.036680153686853095,
0.00942643391521197,-0.01861118240534688,
0.009476309226932668,-0.02356505962312927,
0.009526184538653367,-0.025063262745769522,
0.009576059850374064,-0.012796656874417582,
0.009625935162094763,-0.02518089503341783,
0.00967581047381546,-0.0012257911629205594,
0.00972568578553616,-0.030939685868433327,
0.009775561097256857,-0.01910170358845333,
0.009825436408977557,-0.020319854251145568,
0.009875311720698254,-0.0007087305990954723,
0.009925187032418953,-0.027489774528755326,
0.00997506234413965,-0.0012766981228488454,
0.01002493765586035,-0.002357098963256199,
0.010074812967581047,-0.03242883473941642,
0.010124688279301746,-0.044053480942718326,
0.010174563591022444,0.005662842414628614,
0.010224438902743141,-0.047445728110133166,
0.01027431421446384,-0.03479876027188089,
0.010324189526184538,-0.03463830779646962,
0.010374064837905237,-0.03858104736253974,
0.010423940149625935,-0.0037592456212667998,
0.010473815461346634,-0.02437098975912442,
0.010523690773067331,-0.008093712772414921,
0.01057356608478803,-0.0035554408741777163,
0.010623441396508728,-0.0024628222902494702,
0.010673316708229427,-0.022768170298274198,
0.010723192019950124,-0.041921291402799224,
0.010773067331670824,-0.011906959316827375,
0.010822942643391521,-0.021530833676300598,
0.01087281795511222,-0.010798007838972362,
0.010922693266832918,-0.04458077402994711,
0.010972568578553617,-0.031170403620630383,
0.011022443890274314,-0.012137381138775471,
0.011072319201995013,-0.010922849945289085,
0.01112219451371571,-0.006633223501778196,
0.011172069825436408,-0.018565743666510034,
0.011221945137157107,-0.015987081395862263,
0.011271820448877805,-0.03524794933130836,
0.011321695760598504,-0.016668600645075724,
0.011371571072319201,-0.010242292905150253,
0.0114214463840399,0.009690333772011991,
0.011471321695760598,-0.011180087461154996,
0.011521197007481297,-0.0028789543047211975,
0.011571072319201995,-0.021592666847256213,
0.011620947630922694,-0.023630635485361647,
0.011670822942643391,-0.0007593592677518461,
0.01172069825436409,-0.014572094752600358,
0.011770573566084788,-0.0030525307306307533,
0.011820448877805487,-0.045373335773326084,
0.011870324189526184,-0.049072808673689336,
0.011920199501246884,-0.04277133275576507,
0.011970074812967581,-0.025406763783546088,
0.012019950124688279,-0.025704612588176547,
0.012069825436408978,-0.028959309428199652,
0.012119700748129675,-0.00270795552813277,
0.012169576059850374,-0.015923474229330575,
0.012219451371571072,-0.005293304608023939,
0.012269326683291771,-0.006360332537470207,
0.012319201995012468,0.005940080007609145,
0.012369077306733168,-0.004344000065381336,
0.012418952618453865,-0.014047051266291459,
0.012468827930174564,-0.01603552268472305,
0.012518703241895262,-0.01647753600450961,
0.01256857855361596,-0.0013195896401898312,
0.012618453865336658,0.010390522075960808,
0.012668329177057357,-0.00790754537809407,
0.012718204488778055,-0.006533592909047386,
0.012768079800498754,-0.024477281814649678,
0.012817955112219451,-0.04288894317237209,
0.012867830423940149,0.0003635486816187146,
0.012917705735660848,-0.026169179978002582,
0.012967581047381545,-0.012988345450283347,
0.013017456359102245,-0.006566263202138459,
0.013067331670822942,-0.0027729114650269122,
0.013117206982543641,-0.021396498445842953,
0.013167082294264339,-0.018868977295380084,
0.013216957605985038,-0.008132525101875305,
0.013266832917705735,-0.007745780100581848,
0.013316708229426434,-0.028020409698070764,
0.013366583541147132,-0.017636853801398858,
0.013416458852867831,-0.042671280713909215,
0.013466334164588529,-0.008685862926179556,
0.013516209476309228,0.00735609327119556,
0.013566084788029925,-0.005541895605634501,
0.013615960099750624,-0.0020402107388259984,
0.013665835411471322,-0.0196452953127438,
0.01371571072319202,0.0019007806570257215,
0.013765586034912718,0.016939176242074142,
0.013815461346633416,-0.00522907910252218,
0.013865336658354115,0.0038091663136453936,
0.013915211970074812,-0.0035147168235888132,
0.013965087281795512,-0.0015744752760230027,
0.014014962593516209,0.00986374586834062,
0.014064837905236908,-0.010754654277722979,
0.014114713216957606,-0.006420211022309428,
0.014164588528678305,-0.01930953891070888,
0.014214463840399002,-0.009166874866693864,
0.014264339152119701,-0.0011083726635457577,
0.014314214463840399,0.008513223585079423,
0.014364089775561098,0.0034518094340416665,
0.014413965087281795,0.0003211909229977727,
0.014463840399002495,0.004570896294953307,
0.014513715710723192,-0.011466382634441526,
0.01456359102244389,0.025463784696539885,
0.014613466334164589,-0.00876337194320798,
0.014663341645885286,-0.02257606151871296,
0.014713216957605985,-0.010192796049263335,
0.014763092269326683,-0.01711935947918816,
0.014812967581047382,0.018409490678335014,
0.01486284289276808,-0.01226588833205641,
0.014912718204488778,-0.016877849461173055,
0.014962593516209476,-0.017299815819832507,
0.015012468827930175,-0.004405419511997249,
0.015062344139650873,0.001134000285683169,
0.015112219451371572,-0.011300174410690167,
0.01516209476309227,0.007107407836483344,
0.015211970074812968,-0.0032629124847429764,
0.015261845386533666,-0.00754509241760009,
0.015311720698254365,0.0017270635177379244,
0.015361596009975062,0.012317622181588366,
0.01541147132169576,0.0003111957311453847,
0.015461346633416459,0.017957139154709333,
0.015511221945137156,-0.009213153952079063,
0.015561097256857856,-0.011564492648952138,
0.015610972568578553,0.009378277095131863,
0.015660847880299252,0.013413455617594747,
0.01571072319201995,-0.004887759385060037,
0.015760598503740647,0.026029487864500284,
0.015810473815461346,6.578169159751276e-05,
0.015860349127182045,0.0032337859501174477,
0.015910224438902745,-0.007478228625833819,
0.01596009975062344,0.006159366201222734,
0.01600997506234414,0.014898330324115788,
0.01605985037406484,0.016778597224099818,
0.016109725685785538,-0.02684165258026876,
0.016159600997506234,0.013050145859377874,
0.016209476309226933,0.005140827303435026,
0.016259351620947632,-0.0017565185594638853,
0.016309226932668328,0.010879919635492707,
0.016359102244389027,0.01398037658041175,
0.016408977556109726,0.024476764410301284,
0.016458852867830425,0.03399510935492727,
0.01650872817955112,-0.003690366523272759,
0.01655860349127182,0.02169723824430477,
0.01660847880299252,0.0015089314593806826,
0.01665835411471322,0.002354809911240911,
0.016708229426433914,-0.0010130611251696533,
0.016758104738154613,0.03109016380289272,
0.016807980049875312,0.004397943188657705,
0.01685785536159601,0.028794884561754802,
0.016907730673316707,-0.00788591638048789,
0.016957605985037406,0.0015053961443239373,
0.017007481296758106,-0.011680921997583167,
0.0170573566084788,0.019463223588397652,
0.0171072319201995,0.006627439731323146,
0.0171571072319202,0.007270066099497203,
0.0172069825436409,0.03749167263435431,
0.017256857855361595,-0.002522535769137314,
0.017306733167082294,0.0032507847994522835,
0.017356608478802993,0.009452606295113589,
0.017406483790523692,-0.009006207237447737,
0.017456359102244388,-0.0035979358009144025,
0.017506234413965087,0.008779241080684355,
0.017556109725685786,0.011985782569487942,
0.017605985037406485,0.02343404583592848,
0.01765586034912718,0.007734212541134498,
0.01770573566084788,0.01325818136467258,
0.01775561097256858,0.008157381232396592,
0.01780548628428928,0.012061902591235905,
0.017855361596009974,-0.004965477556273561,
0.017905236907730673,-0.0027900960225106866,
0.017955112219451373,0.023849610647158962,
0.018004987531172068,0.011326892163250925,
0.018054862842892767,0.015068384550046766,
0.018104738154613467,0.022908612856869844,
0.018154613466334166,0.03243310091632851,
0.01820448877805486,0.008856291316962826,
0.01825436408977556,0.009526472344743858,
0.01830423940149626,0.0016815887489899477,
0.01835411471321696,0.006332819186897581,
0.018403990024937655,0.012293580785823552,
0.018453865336658354,0.016354994751328903,
0.018503740648379053,0.029198643335033074,
0.018553615960099752,0.0036084695480705017,
0.018603491271820448,-0.02263765273201213,
0.018653366583541147,0.0076008692488893186,
0.018703241895261846,-0.011823056368066489,
0.018753117206982542,0.029734535208920148,
0.01880299251870324,0.01618576667890568,
0.01885286783042394,0.025507723887504486,
0.01890274314214464,0.03076707279151125,
0.018952618453865335,0.014163762006216777,
0.019002493765586034,0.031291736803140624,
0.019052369077306733,0.01447495860159512,
0.019102244389027433,0.027285205247893487,
0.01915211970074813,0.03613084986197475,
0.019201995012468828,0.028166642863937545,
0.019251870324189527,0.025493883723151173,
0.019301745635910226,0.04820007792563255,
0.01935162094763092,0.0016201136189151095,
0.01940149625935162,0.030066429662178085,
0.01945137157107232,0.05920682199812591,
0.01950124688279302,0.013391391508791525,
0.019551122194513715,0.019610792574964193,
0.019600997506234414,0.02978161211019166,
0.019650872817955113,0.0399182858712818,
0.01970074812967581,0.020280105980971557,
0.019750623441396508,0.030117827255360812,
0.019800498753117207,0.00533900382398814,
0.019850374064837906,0.022746149492548256,
0.019900249376558602,0.014175973085138602,
0.0199501246882793,0.07192981139005197,
0.02,0.015129111434883213,
0.0200498753117207,0.0343557123454271,
0.020099750623441395,0.031984644576427135,
0.020149625935162094,0.0245779010985198,
0.020199501246882794,0.04021326397258437,
0.020249376558603493,0.043347495720622714,
0.02029925187032419,0.0529001393387418,
0.020349127182044888,-0.0026056366203379283,
0.020399002493765587,0.043824146223984194,
0.020448877805486283,0.025330319760491576,
0.02049875311720698,0.01892471699381141,
0.02054862842892768,0.0070051856774459575,
0.02059850374064838,0.02526209540565074,
0.020648379052369076,0.026915494548225137,
0.020698254364089775,0.018578392670576774,
0.020748129675810474,0.01891434158790615,
0.020798004987531173,0.04741817452585709,
0.02084788029925187,0.045256034093560694,
0.020897755610972568,0.03566251094597868,
0.020947630922693267,0.03217031446813165,
0.020997506234413967,0.011382702810029519,
0.021047381546134662,0.021276904297683124,
0.02109725685785536,0.01489644117751406,
0.02114713216957606,0.029396282203388566,
0.02119700748129676,0.04356261108222881,
0.021246882793017455,0.024953214024754602,
0.021296758104738155,0.02314835781155881,
0.021346633416458854,0.022001449769587882,
0.02139650872817955,0.030071003998002742,
0.02144638403990025,0.015637347433018783,
0.021496259351620948,0.016944678149038363,
0.021546134663341647,0.029198093770809987,
0.021596009975062343,0.015655878265522255,
0.021645885286783042,0.054047901840943116,
0.02169576059850374,0.021807248310277257,
0.02174563591022444,0.013162166064187446,
0.021795511221945136,0.024386439576755837,
0.021845386533665835,-0.003330399709124115,
0.021895261845386534,0.02267502207657435,
0.021945137157107233,0.049191320667490476,
0.02199501246882793,0.01285081806396745,
0.02204488778054863,0.026443326517866062,
0.022094763092269327,0.008303593756434281,
0.022144638403990027,0.01479449950566955,
0.022194513715710722,0.025199082319544507,
0.02224438902743142,0.024456145361849584,
0.02229426433915212,-0.007028711079681775,
0.022344139650872816,0.010238088793172444,
0.022394014962593516,0.00017341776304532347,
0.022443890274314215,0.02551994401557353,
0.022493765586034914,0.037027311451539945,
0.02254364089775561,0.026200795201554834,
0.02259351620947631,0.02623180998754544,
0.022643391521197008,0.0063953667464978405,
0.022693266832917707,0.002419577303986623,
0.022743142144638403,0.01825371678508657,
0.022793017456359102,0.011823526878752565,
0.0228428927680798,-0.010864192055200356,
0.0228927680798005,-0.002131500223919223,
0.022942643391521196,0.031765484232389146,
0.022992518703241895,0.012483962825059139,
0.023042394014962594,-0.004786884547184534,
0.02309226932668329,0.008333867939292996,
0.02314214463840399,0.004646755976803458,
0.02319201995012469,0.0330162512011751,
0.023241895261845388,0.00043664176086330095,
0.023291770573566083,0.019014884281544246,
0.023341645885286783,0.007963967538333026,
0.02339152119700748,-0.008465342992716781,
0.02344139650872818,-0.00140840090615524,
0.023491271820448877,-0.009257258655335622,
0.023541147132169576,0.013726744209053522,
0.023591022443890275,0.008411429138062403,
0.023640897755610974,0.005624376745877397,
0.02369077306733167,0.021905955876990815,
0.02374064837905237,0.005758996250456635,
0.023790523690773068,0.004483800332317699,
0.023840399002493767,-0.003295049622423194,
0.023890274314214463,0.01605959195595595,
0.023940149625935162,0.00980885927373254,
0.02399002493765586,-0.010155270817848063,
0.024039900249376557,-0.0014900002743211804,
0.024089775561097256,0.020239363048780646,
0.024139650872817955,0.005445710451769642,
0.024189526184538655,-0.02194898391136557,
0.02423940149625935,0.0015742973063181988,
0.02428927680798005,-0.012506878841071961,
0.02433915211970075,-0.011884478441885156,
0.024389027431421448,-0.012581828380950458,
0.024438902743142144,0.022949975518161192,
0.024488778054862843,0.017695215761233563,
0.024538653366583542,-0.009533055600770944,
0.02458852867830424,0.023362182270435322,
0.024638403990024937,0.0094475645688122,
0.024688279301745636,0.03362785591462333,
0.024738154613466335,-0.005460073506812385,
0.02478802992518703,0.012838881397538708,
0.02483790523690773,0.01632011758308663,
0.02488778054862843,0.0012510948706723718,
0.02493765586034913,0.012441937519675834,
0.024987531172069824,-0.022169238262124004,
0.025037406483790523,0.0310345672588279,
0.025087281795511222,-0.0012440587294580067,
0.02513715710723192,-0.006993713028283209,
0.025187032418952617,0.035260767792579945,
0.025236907730673316,-0.009330175949618623,
0.025286783042394016,-0.014936250942691806,
0.025336658354114715,-0.001961269949015801,
0.02538653366583541,0.013890258554693037,
0.02543640897755611,0.02032938454662948,
0.02548628428927681,-0.0017014058573568286,
0.025536159600997508,-0.006768880761636847,
0.025586034912718204,0.008030504659036984,
0.025635910224438903,-0.025006179137736124,
0.025685785536159602,-0.0207773392071231,
0.025735660847880298,-0.005353994969753744,
0.025785536159600997,-0.026366765595700798,
0.025835411471321696,-0.017375515097734703,
0.025885286783042395,-0.0015388085574653352,
0.02593516209476309,-0.0001995503909470761,
0.02598503740648379,-0.013045870831125097,
0.02603491271820449,0.01826461207651896,
0.02608478802992519,0.014596313129643042,
0.026134663341645884,-0.006942374153790501,
0.026184538653366583,-0.00023006316697647645,
0.026234413965087282,-0.011066369409323287,
0.02628428927680798,0.022149956976975804,
0.026334164588528677,0.0017918366373365123,
0.026384039900249377,-0.013349541803500262,
0.026433915211970076,0.005160820820832846,
0.02648379052369077,-0.00039336921553369264,
0.02653366583541147,-0.014890285554827591,
0.02658354114713217,-0.008223579939443556,
0.02663341645885287,-0.00037119483059885796,
0.026683291770573565,-0.032535571056249275,
0.026733167082294264,-0.0322658841606283,
0.026783042394014963,-0.02363515609644816,
0.026832917705735662,-0.009064672216232089,
0.026882793017456358,-0.03488711401746672,
0.026932668329177057,-0.005200136017093533,
0.026982543640897756,-0.010929795735592123,
0.027032418952618455,-0.03778948793101976,
0.02708229426433915,0.02141551652962647,
0.02713216957605985,-0.044009345023392155,
0.02718204488778055,-0.018768242432320847,
0.02723192019950125,-0.03451889754268906,
0.027281795511221944,-0.013359519762102517,
0.027331670822942643,0.008717797474247257,
0.027381546134663343,-0.04230657716465153,
0.02743142144638404,0.021802981080380472,
0.027481296758104738,0.009236636033761595,
0.027531172069825437,-0.020227595379151087,
0.027581047381546136,-0.03483400743651517,
0.02763092269326683,-0.04195915750237847,
0.02768079800498753,0.03422075529930936,
0.02773067331670823,-0.0016991347416801111,
0.02778054862842893,-0.02848794057642197,
0.027830423940149625,-0.040460392458687565,
0.027880299251870324,-0.0032745230691451025,
0.027930174563591023,-0.013923782567911923,
0.027980049875311722,-0.01212768011877017,
0.028029925187032418,-0.009115634064607352,
0.028079800498753117,-0.02522312786164585,
0.028129675810473816,-0.01235295022124501,
0.028179551122194512,-0.03912021002239484,
0.02822942643391521,-2.1660939661487244e-06,
0.02827930174563591,-0.008377686536049478,
0.02832917705735661,-0.017789748400452065,
0.028379052369077305,-0.004702323943098729,
0.028428927680798004,-0.011919687010355895,
0.028478802992518704,-0.006058748891736318,
0.028528678304239403,0.005051921676711516,
0.0285785536159601,-0.01381534084673874,
0.028628428927680798,-0.019174953525590527,
0.028678304239401497,-0.005991393130155315,
0.028728179551122196,-0.021055140388485903,
0.02877805486284289,-0.009959243474455322,
0.02882793017456359,-0.04234467380462381,
0.02887780548628429,-0.009960147850120102,
0.02892768079800499,-0.011163878590249737,
0.028977556109725685,-0.02423531743055228,
0.029027431421446384,0.0021012750962281744,
0.029077306733167083,0.01783608116023674,
0.02912718204488778,-0.007257743765191933,
0.029177057356608478,-0.045551347277853135,
0.029226932668329177,-0.016473718178507287,
0.029276807980049877,-0.014802676783546034,
0.029326683291770572,-0.024036156152872773,
0.02937655860349127,-0.016445536484806525,
0.02942643391521197,-0.022120293626570663,
0.02947630922693267,-0.03573083454408825,
0.029526184538653365,-0.008182116402747923,
0.029576059850374065,-0.013739304341487646,
0.029625935162094764,-0.028693214773508988,
0.029675810473815463,-0.010102380572067056,
0.02972568578553616,-0.01823584117488122,
0.029775561097256858,0.0029155670804289664,
0.029825436408977557,-0.03469618194332791,
0.029875311720698253,-0.02054653596121814,
0.029925187032418952,-0.023102397758436866,
0.02997506234413965,-0.021507284689083764,
0.03002493765586035,-0.0016699179564253382,
0.030074812967581046,-0.024092310346840798,
0.030124688279301745,-0.026708077692451728,
0.030174563591022444,0.008496195695220525,
0.030224438902743143,-0.0012736505004265278,
0.03027431421446384,-0.008169715335416902,
0.03032418952618454,-0.04456965029217673,
0.030374064837905237,0.0020711162327294134,
0.030423940149625937,-0.033579306191842816,
0.030473815461346632,-0.01708015806541819,
0.03052369077306733,-0.009350822392200078,
0.03057356608478803,-0.014649060291997093,
0.03062344139650873,-0.011205873372959453,
0.030673316708229426,-0.03875939170678381,
0.030723192019950125,0.0012492005989064962,
0.030773067331670824,-0.01713871840212562,
0.03082294264339152,-0.024922372181706547,
0.03087281795511222,-0.013234080536245543,
0.030922693266832918,-0.043033844450221875,
0.030972568578553617,0.0076538409029151405,
0.031022443890274313,-0.03002619557422239,
0.031072319201995012,-0.006622019377841093,
0.03112219451371571,-0.014186126982784932,
0.03117206982543641,-0.024668619175155955,
0.031221945137157106,-0.012061942565158943,
0.03127182044887781,-0.037191055570522075,
0.031321695760598504,-0.04800699950798375,
0.0313715710723192,-0.02692424383145598,
0.0314214463840399,-0.022722514600799118,
0.0314713216957606,-0.027782593280935224,
0.031521197007481294,-0.040746093563136396,
0.031571072319202,-0.025724901281402472,
0.03162094763092269,-0.004492166844089195,
0.03167082294264339,-0.014062490971501057,
0.03172069825436409,-0.04601751223976978,
0.03177057356608479,-0.002323224720836306,
0.03182044887780549,0.01706111774923599,
0.031870324189526185,-0.02737664004290056,
0.03192019950124688,-0.03813714792045636,
0.03197007481296758,-0.022913643210353912,
0.03201995012468828,-0.018297407888910062,
0.032069825436408975,-0.008049893918364602,
0.03211970074812968,-0.00738563440996365,
0.03216957605985037,0.01383002825562966,
0.032219451371571076,-0.009879118272544608,
0.03226932668329177,-0.01531174800421364,
0.03231920199501247,0.008581167707341462,
0.03236907730673317,0.019634642122827357,
0.032418952618453865,-0.028413065629698805,
0.03246882793017456,-0.011522323533989258,
0.032518703241895264,-0.016146508412926537,
0.03256857855361596,-0.00134285592148343,
0.032618453865336655,0.012206083105623341,
0.03266832917705736,-0.03663175706503824,
0.032718204488778053,0.002162112751314461,
0.032768079800498756,-0.024480627215113654,
0.03281795511221945,-0.0044561604560272835,
0.03286783042394015,-0.003903695765506065,
0.03291770573566085,-0.01795997242629403,
0.032967581047381546,-0.0023646145262442454,
0.03301745635910224,-0.0031339443790570753,
0.033067331670822944,-0.02315236941787529,
0.03311720698254364,-0.010526867352204927,
0.03316708229426434,-0.03629543031025224,
0.03321695760598504,-0.027690602120324828,
0.033266832917705734,-0.0246390886111513,
0.03331670822942644,-0.008978343441009186,
0.03336658354114713,-0.011747807023330413,
0.03341645885286783,0.0009474405346886743,
0.03346633416458853,-0.017184910105605824,
0.033516209476309226,0.01877973141891384,
0.03356608478802992,-0.01244156918578777,
0.033615960099750625,-0.005154705989758592,
0.03366583541147132,0.00269327616634685,
0.03371571072319202,0.008321326931037707,
0.03376558603491272,-0.0005252424664119104,
0.033815461346633414,-0.02886865050650616,
0.03386533665835412,0.008379175648492405,
0.03391521197007481,-0.009788882349169279,
0.03396508728179551,-0.007977739401560479,
0.03401496259351621,-0.018248174132117455,
0.03406483790523691,-0.019164482887037263,
0.0341147132169576,0.00380996445214311,
0.034164588528678305,-0.018098766789653813,
0.034214463840399,-0.008327264711365698,
0.034264339152119704,-0.000643305210675218,
0.0343142144638404,-0.00737661751601062,
0.034364089775561095,-0.011864214865582973,
0.0344139650872818,-0.016767158610288317,
0.03446384039900249,-0.011036976491297971,
0.03451371571072319,-0.0035375331404715487,
0.03456359102244389,0.01766365334443363,
0.03461346633416459,0.003901849013598749,
0.03466334164588529,-0.024413945768023894,
0.034713216957605986,0.0030352101297715477,
0.03476309226932668,-0.007548701993527639,
0.034812967581047384,0.007246936131548568,
0.03486284289276808,-0.012424596777770842,
0.034912718204488775,0.007719221913635327,
0.03496259351620948,-0.0027015077929222068,
0.035012468827930174,0.013528499377411227,
0.03506234413965087,-0.02264901432633435,
0.03511221945137157,-0.025069945162373593,
0.03516209476309227,-0.006858988902133552,
0.03521197007481297,0.018412729743432093,
0.035261845386533666,0.03215144250076685,
0.03531172069825436,-0.026611851918790078,
0.035361596009975065,0.023244140937716325,
0.03541147132169576,-0.01953075936365277,
0.035461346633416456,0.033264412484024994,
0.03551122194513716,0.00398335041520634,
0.035561097256857854,0.02364063032863594,
0.03561097256857856,0.01058919233170582,
0.03566084788029925,0.007356691862714003,
0.03571072319201995,0.015500291852674349,
0.03576059850374065,-0.00931267455569868,
0.03581047381546135,0.016505297490253458,
0.03586034912718204,0.005393351892235826,
0.035910224438902745,0.023609424112833073,
0.03596009975062344,-0.015761608509019746,
0.036009975062344136,0.004736948673220797,
0.03605985037406484,0.009110405941908513,
0.036109725685785535,0.032693570895641504,
0.03615960099750624,-0.00814743374348389,
0.03620947630922693,0.010205503802964574,
0.03625935162094763,-0.003970112698062703,
0.03630922693266833,0.032886928013574984,
0.03635910224438903,-0.006721289716698459,
0.03640897755610972,-0.00554261656768461,
0.036458852867830426,0.03846951372974907,
0.03650872817955112,0.017798100246629468,
0.036558603491271824,0.0021811970526036655,
0.03660847880299252,-0.01146757102210344,
0.036658354114713215,0.020076764656573695,
0.03670822942643392,0.03869981328687283,
0.036758104738154614,0.013826727870066478,
0.03680798004987531,0.0024238232808125454,
0.03685785536159601,0.02645013754421635,
0.03690773067331671,0.030264780799281122,
0.0369576059850374,0.021957614400605403,
0.037007481296758106,0.039139656693931824,
0.0370573566084788,0.060975846552334345,
0.037107231920199504,-0.010262846262467464,
0.0371571072319202,-0.02073258283314827,
0.037206982543640896,0.01862057322054419,
0.0372568578553616,0.04766680501268835,
0.037306733167082294,0.013965009622355456,
0.03735660847880299,0.012019020106115146,
0.03740648379052369,-0.005671782030802626,
0.03745635910224439,0.026415853862500394,
0.037506234413965084,0.018005012993556432,
0.037556109725685786,0.001879674508277293,
0.03760598503740648,0.02893487281107843,
0.037655860349127185,0.013405853126804274,
0.03770573566084788,0.04562518238328826,
0.037755610972568576,-0.00031277445534451387,
0.03780548628428928,0.0045020216635890935,
0.037855361596009975,0.021581124372255553,
0.03790523690773067,0.045008990204365454,
0.03795511221945137,-0.001579547766378725,
0.03800498753117207,-0.013153110709415005,
0.03805486284289277,0.0439909214439783,
0.03810473815461347,0.031940696452216276,
0.03815461346633416,0.0019189506137020432,
0.038204488778054865,0.023222133908409652,
0.03825436408977556,0.003781298660894706,
0.03830423940149626,-0.001342232498827669,
0.03835411471321696,0.0142753449739361,
0.038403990024937655,0.009227494782473238,
0.03845386533665835,0.006740176195472942,
0.03850374064837905,0.0067955059484041125,
0.03855361596009975,0.018659012107503457,
0.03860349127182045,0.03548798235543392,
0.03865336658354115,0.02603299966572732,
0.03870324189526184,0.025866894889697713,
0.038753117206982546,0.02983579322558116,
0.03880299251870324,0.03390443486021809,
0.03885286783042394,-0.0085706325350372,
0.03890274314214464,0.0006039578513767317,
0.038952618453865336,0.01518590314709543,
0.03900249376558604,0.0043866444783301,
0.039052369077306734,0.02525131763031889,
0.03910224438902743,0.009585247702754927,
0.03915211970074813,0.03891774310289396,
0.03920199501246883,0.008656050771515503,
0.039251870324189524,0.06950914292194994,
0.039301745635910226,0.030304121843420986,
0.03935162094763092,0.02633927717947341,
0.03940149625935162,0.01830665353323537,
0.03945137157107232,0.004348891304621388,
0.039501246882793016,0.02478360399511401,
0.03955112219451372,0.04452698179173041,
0.039600997506234414,0.03363083367690959,
0.03965087281795511,0.001023483235532089,
0.03970074812967581,0.022850922397593083,
0.03975062344139651,0.010703163802614617,
0.039800498753117204,0.0206897825820035,
0.03985037406483791,0.020796902169329525,
0.0399002493765586,-0.003449989159464626,
0.039950124688279305,0.024612078558463594,
0.04,0.023730847652889627,
0.0400498753117207,0.04148700679117505,
0.0400997506234414,0.008698026795050181,
0.040149625935162095,0.01506732215650925,
0.04019950124688279,0.03643638104244812,
0.04024937655860349,0.05405230344379447,
0.04029925187032419,-0.0039666029897511175,
0.040349127182044885,0.023383346071843596,
0.04039900249376559,-0.011853773146137444,
0.04044887780548628,0.011644724387089673,
0.040498753117206986,0.016431803767995308,
0.04054862842892768,0.0035239948464533995,
0.04059850374064838,0.011794937104795601,
0.04064837905236908,0.02950433425902621,
0.040698254364089775,0.008052228795387315,
0.04074812967581047,0.0003464051873487556,
0.040798004987531174,0.012092424093249036,
0.04084788029925187,0.027042025657930836,
0.040897755610972565,0.03356300580803809,
0.04094763092269327,0.03802124398229279,
0.04099750623441396,0.01354223038688585,
0.041047381546134666,-0.0019434123676657887,
0.04109725685785536,0.012930216786303596,
0.04114713216957606,0.03695166126697136,
0.04119700748129676,0.01521942514975289,
0.041246882793017456,0.009725376502336965,
0.04129675810473815,0.011063988981442433,
0.041346633416458854,0.002189096710018934,
0.04139650872817955,0.004093814757959748,
0.04144638403990025,0.01684662587506973,
0.04149625935162095,0.018777969651518348,
0.041546134663341644,0.011805153836447528,
0.04159600997506235,0.022680448864854732,
0.04164588528678304,0.021801611689846186,
0.04169576059850374,0.000862417155674304,
0.04174563591022444,0.0026080307243847335,
0.041795511221945136,0.014856514970133688,
0.04184538653366583,0.03210799626015061,
0.041895261845386535,-0.014667331016383133,
0.04194513715710723,0.03011213672587732,
0.04199501246882793,-0.0018422424512465757,
0.04204488778054863,0.052010956020497844,
0.042094763092269324,0.013563428880776248,
0.04214463840399003,0.029910206577275708,
0.04219451371571072,0.010784299383048432,
0.04224438902743142,0.019936322882600308,
0.04229426433915212,0.00970625211157597,
0.04234413965087282,0.0077053059197801695,
0.04239401496259352,0.00837115163230746,
0.042443890274314215,0.03071654114366737,
0.04249376558603491,0.0320994747161763,
0.042543640897755614,0.005646919513917223,
0.04259351620947631,0.010619366228247822,
0.042643391521197005,0.010414646468460062,
0.04269326683291771,0.017913492860320644,
0.0427431421446384,-0.004818511969298587,
0.0427930174563591,0.00165317914722834,
0.0428428927680798,0.0021613354883224176,
0.0428927680798005,0.022484194751840793,
0.0429426433915212,0.02366096160647143,
0.042992518703241896,0.005181404565542369,
0.04304239401496259,0.010018427374271742,
0.043092269326683294,0.030250155213525864,
0.04314214463840399,0.010076516711989647,
0.043192019950124685,-0.00633716912876332,
0.04324189526184539,-0.007351651564927456,
0.043291770573566084,-0.01094897657261805,
0.043341645885286786,0.02497864951889809,
0.04339152119700748,-0.0053006133409291625,
0.04344139650872818,0.01883397593048884,
0.04349127182044888,0.022331950061430336,
0.043541147132169576,0.004282563688500073,
0.04359102244389027,0.04039004657082231,
0.043640897755610975,0.004528242144911612,
0.04369077306733167,0.010730128644649058,
0.043740648379052366,0.0054021290285393205,
0.04379052369077307,0.0006634347024934567,
0.043840399002493764,0.004646255005469454,
0.04389027431421447,-0.020465256028183776,
0.04394014962593516,0.008463130439481752,
0.04399002493765586,0.006703210925736711,
0.04403990024937656,0.03697911891731423,
0.04408977556109726,0.03413783912615204,
0.04413965087281795,-0.009035821332127051,
0.044189526184538655,0.015633734863540676,
0.04423940149625935,0.030179190230075068,
0.04428927680798005,-1.2163018828715427e-05,
0.04433915211970075,0.0025358767480106537,
0.044389027431421445,0.002349309633534905,
0.04443890274314215,0.022061221681998953,
0.04448877805486284,0.00736863993181001,
0.04453865336658354,0.008614178418285755,
0.04458852867830424,0.026917950664742944,
0.04463840399002494,-0.010386407119574205,
0.04468827930174563,0.018409070608948554,
0.044738154613466335,0.016684925966877026,
0.04478802992518703,-0.0026667600060260362,
0.044837905236907734,0.018846525253413047,
0.04488778054862843,0.015563471517630054,
0.044937655860349125,0.012071210755850107,
0.04498753117206983,0.02415983947751344,
0.045037406483790524,0.001873319217574923,
0.04508728179551122,0.002404127443596679,
0.04513715710723192,-0.024310526689539917,
0.04518703241895262,0.01572210673526569,
0.04523690773067331,-0.01673520424052785,
0.045286783042394016,0.009381948153562907,
0.04533665835411471,0.001187923370431869,
0.045386533665835414,0.003564729877002711,
0.04543640897755611,0.008556746706969922,
0.045486284289276806,-0.009042185954576351,
0.04553615960099751,-0.0025788709665620106,
0.045586034912718204,0.0031346924917099676,
0.0456359102244389,-0.012016731527655141,
0.0456857855361596,0.006176498052403154,
0.0457356608478803,0.002692517153305202,
0.045785536159601,-0.03142493359391755,
0.045835411471321696,0.009393611039148894,
0.04588528678304239,-0.003681429857863516,
0.045935162094763095,0.01951401878729257,
0.04598503740648379,-0.0023469135650260164,
0.046034912718204486,-0.013304925500438238,
0.04608478802992519,-0.0148393339020568,
0.046134663341645885,-0.00738754356447127,
0.04618453865336658,0.024010859165937634,
0.04623441396508728,-0.026960295677629042,
0.04628428927680798,0.006254874492229537,
0.04633416458852868,0.011251617156748345,
0.04638403990024938,0.03624598092685164,
0.04643391521197007,-0.006048258194664404,
0.046483790523690775,-0.02542800006792969,
0.04653366583541147,0.0005729097428877625,
0.04658354114713217,-0.002798134365898883,
0.04663341645885287,-0.01815455109143269,
0.046683291770573565,0.03219695587917308,
0.04673316708229427,-0.0017438866086432387,
0.04678304239401496,-0.021219568106113286,
0.04683291770573566,-0.018132311382312444,
0.04688279301745636,0.0028188040110894517,
0.04693266832917706,-0.03485361472062221,
0.04698254364089775,-0.004611537759175445,
0.047032418952618456,0.00015482329126176742,
0.04708229426433915,-0.020453248588041588,
0.04713216957605985,-0.0207590820048799,
0.04718204488778055,-0.03003090201743129,
0.047231920199501246,-0.03868917641304446,
0.04728179551122195,-0.020998200694711734,
0.047331670822942644,-0.0007052203494472206,
0.04738154613466334,-0.007751781349998586,
0.04743142144638404,-0.02419945848798561,
0.04748129675810474,-0.004535742014613289,
0.047531172069825434,-0.013893695305590512,
0.047581047381546136,-0.018032181866498433,
0.04763092269326683,-0.04254165601103435,
0.047680798004987535,0.020164515977191003,
0.04773067331670823,0.01098512977574764,
0.047780548628428926,-0.015139323654698807,
0.04783042394014963,-0.03676120823230253,
0.047880299251870324,-0.0022697048372546883,
0.04793017456359102,-0.05524877065248654,
0.04798004987531172,-0.012729791527286554,
0.04802992518703242,0.014467326416862217,
0.048079800498753114,-0.0263422374732927,
0.04812967581047382,0.019373745338449246,
0.04817955112219451,-0.00862758649753093,
0.048229426433915215,-0.03675966092330996,
0.04827930174563591,-0.02563396173931702,
0.048329177057356607,0.025342306629713846,
0.04837905236907731,-0.02013192756249963,
0.048428927680798005,-0.009641870524340922,
0.0484788029925187,-0.014584624333728771,
0.0485286783042394,-0.005747063824606106,
0.0485785536159601,-0.03729876436403063,
0.048628428927680795,-0.012866709821277853,
0.0486783042394015,-0.007171166422326202,
0.04872817955112219,-0.010077836829001586,
0.048778054862842896,-0.0023407466559941924,
0.04882793017456359,-0.009853286233808461,
0.04887780548628429,-0.03398480072038626,
0.04892768079800499,-0.02218526122304862,
0.048977556109725685,-0.0005303152958682309,
0.04902743142144638,-0.02172942171832104,
0.049077306733167084,-0.02490896043224068,
0.04912718204488778,-0.009685504947940897,
0.04917705735660848,-0.010839376920853308,
0.04922693266832918,-0.011872555359730662,
0.04927680798004987,-0.024430547772762618,
0.049326683291770576,0.005687268645372279,
0.04937655860349127,-0.018851456781434427,
0.04942643391521197,-0.0020947843081255274,
0.04947630922693267,-0.015496670973921683,
0.049526184538653366,-0.018975865080507005,
0.04957605985037406,-0.029979489224127197,
0.049625935162094764,-0.030142208222623063,
0.04967581047381546,-0.02059624830403472,
0.04972568578553616,-0.011590038705327063,
0.04977556109725686,-0.0326444365442833,
0.049825436408977554,-0.015337922621126298,
0.04987531172069826,0.0003157749419831525,
0.04992518703241895,-0.023143295551454987,
0.04997506234413965,-0.0056758348138959604,
0.05002493765586035,-0.010769602402351374,
0.050074812967581046,-0.021460653006369224,
0.05012468827930175,-0.0062360962652414555,
0.050174563591022445,-0.023185792328076806,
0.05022443890274314,-0.01742927179507396,
0.05027431421446384,-0.010192527872874162,
0.05032418952618454,-0.03281029008963873,
0.050374064837905234,0.004055742101711581,
0.05042394014962594,-0.002658662591483358,
0.05047381546134663,-0.0075421739327701225,
0.05052369077306733,-0.01955171933201451,
0.05057356608478803,-0.034433649199125296,
0.05062344139650873,-0.03442519079143604,
0.05067331670822943,-0.020103715446778754,
0.050723192019950125,-0.021487868254080156,
0.05077306733167082,-0.022534296509829375,
0.050822942643391524,0.015404360301891813,
0.05087281795511222,-0.0162709338286492,
0.050922693266832915,-0.017600613785785122,
0.05097256857855362,-0.022097492172974076,
0.05102244389027431,-0.015903055406932105,
0.051072319201995016,-0.003728545451629619,
0.05112219451371571,-0.015092971213467329,
0.05117206982543641,-0.008383842081460029,
0.05122194513715711,-0.028146082192609084,
0.051271820448877806,-0.027840855046438205,
0.0513216957605985,-0.002780216330107903,
0.051371571072319204,-0.0027315159639705808,
0.0514214463840399,-0.040953968493474276,
0.051471321695760595,-0.005756603344958302,
0.0515211970074813,-0.04728109446861552,
0.051571072319201994,-0.019385705901689483,
0.051620947630922696,-0.014620584380318834,
0.05167082294264339,-0.03534755749906453,
0.05172069825436409,-0.027636196813814642,
0.05177057356608479,-0.010865382822035424,
0.051820448877805486,-0.03444336261424233,
0.05187032418952618,-0.01289901954993192,
0.051920199501246884,-0.003961376146155009,
0.05197007481296758,-0.0064448715097697685,
0.052019950124688276,-0.013521572781261947,
0.05206982543640898,-0.003626081341222623,
0.052119700748129674,-0.008053980626889896,
0.05216957605985038,-0.0023549485881942944,
0.05221945137157107,9.143765163607993e-05,
0.05226932668329177,-0.010310907988427022,
0.05231920199501247,0.006055886181989977,
0.05236907730673317,-0.016774076951146216,
0.05241895261845386,0.010136876802399435,
0.052468827930174565,-0.0004068387073422747,
0.05251870324189526,-0.023227068339966104,
0.05256857855361596,-0.0214056211606556,
0.05261845386533666,-0.009803806720549372,
0.052668329177057355,-0.01750829704157663,
0.05271820448877806,-0.002122463579613378,
0.05276807980049875,-0.037940890036977384,
0.05281795511221945,0.008975289472009623,
0.05286783042394015,-0.020256941874005598,
0.05291770573566085,-0.017592512311035792,
0.05296758104738154,-0.011320428865523112,
0.053017456359102245,-0.014708270270414447,
0.05306733167082294,0.0012715220361013066,
0.053117206982543644,0.007157250571795391,
0.05316708229426434,-0.005488231245070705,
0.053216957605985035,-0.02603506544948089,
0.05326683291770574,-0.007688014492143625,
0.053316708229426434,-0.009369601945185529,
0.05336658354114713,-0.014855233610232041,
0.05341645885286783,-0.000392753476587732,
0.05346633416458853,-0.013768744903654874,
0.05351620947630923,-0.022727130490347143,
0.053566084788029926,0.011803795056676511,
0.05361596009975062,0.024957152899403708,
0.053665835411471324,-0.00941036314387654,
0.05371571072319202,-0.03253365906389773,
0.053765586034912716,0.02887893717595206,
0.05381546134663342,-0.0017051392377432717,
0.053865336658354114,0.0068165812242579425,
0.05391521197007481,5.061301027249349e-05,
0.05396508728179551,-0.023497978516223726,
0.05401496259351621,-0.01672927033663471,
0.05406483790523691,-0.01784313720517827,
0.054114713216957606,0.004731474036798572,
0.0541645885286783,0.0037441183292508977,
0.054214463840399005,-0.020991788196586886,
0.0542643391521197,-0.010734150803754502,
0.054314214463840396,-0.015591848113968064,
0.0543640897755611,-0.017302225299064562,
0.054413965087281795,-0.00400907793699549,
0.0544638403990025,-0.013440922778542612,
0.05451371571072319,-0.010478410345205726,
0.05456359102244389,-0.016588805079794815,
0.05461346633416459,-0.015921078204120333,
0.05466334164588529,0.005049525692198496,
0.05471321695760598,-0.01718588615589142,
0.054763092269326685,-0.002848220097024811,
0.05481296758104738,0.001683734146617177,
0.05486284289276808,0.0010185630161754673,
0.05491271820448878,-0.004072954744845694,
0.054962593516209475,0.017043590916322484,
0.05501246882793018,0.0006286031188182432,
0.05506234413965087,-0.01153182355609056,
0.05511221945137157,-0.0015342305103789432,
0.05516209476309227,0.0006461327756569148,
0.05521197007481297,-0.020320496397932014,
0.05526184538653366,-0.0039689321918155995,
0.055311720698254366,0.02721372130875241,
0.05536159600997506,0.00827017683585371,
0.05541147132169576,-0.0015359678360643792,
0.05546134663341646,-0.025590563486767023,
0.055511221945137156,0.0005880059390086356,
0.05556109725685786,-0.0047531577241524655,
0.055610972568578554,0.03099171934562297,
0.05566084788029925,0.015704772147628387,
0.05571072319201995,0.041703155261279296,
0.05576059850374065,0.006972947392121457,
0.055810473815461344,0.020015577633626346,
0.055860349127182046,0.013479336322804684,
0.05591022443890274,0.008376322560587757,
0.055960099750623445,0.016904844761540715,
0.05600997506234414,-0.004207946522558072,
0.056059850374064836,0.0007599813094916041,
0.05610972568578554,0.02857701805755122,
0.056159600997506234,0.01715432053716069,
0.05620947630922693,0.02333529208268442,
0.05625935162094763,0.022095130049093754,
0.05630922693266833,0.01343023213424734,
0.056359102244389024,0.018276548284717104,
0.05640897755610973,0.0011349338830817426,
0.05645885286783042,0.04424513992204744,
0.056508728179551125,0.016395461496617175,
0.05655860349127182,0.020111403602961587,
0.056608478802992516,0.017835153374683468,
0.05665835411471322,0.026104640683704015,
0.056708229426433915,0.01942563091443835,
0.05675810473815461,0.0005830235228423929,
0.05680798004987531,-0.006118637289139299,
0.05685785536159601,0.02731723143277093,
0.05690773067331671,0.007660596310644963,
0.05695760598503741,0.013442661097891941,
0.0570074812967581,-0.00011746498962267315,
0.057057356608478806,0.026558051120595165,
0.0571072319201995,0.02027559294156688,
0.0571571072319202,0.016768523201039682,
0.0572069825436409,0.029769897572509085,
0.057256857855361595,0.019971648050539494,
0.05730673316708229,0.0020635393455254326,
0.057356608478802994,0.0030539527777962063,
0.05740648379052369,0.004866152506910911,
0.05745635910224439,0.024856478384010658,
0.05750623441396509,0.015170011637749838,
0.05755610972568578,0.018301153380955917,
0.057605985037406486,0.021228119975313948,
0.05765586034912718,0.03938041536942498,
0.05770573566084788,0.026874632266655023,
0.05775561097256858,0.02694025713650535,
0.057805486284289276,0.03135562701353204,
0.05785536159600998,0.024224491259499915,
0.057905236907730674,0.03236837559166759,
0.05795511221945137,0.01235198433338272,
0.05800498753117207,0.04352322957232871,
0.05805486284289277,0.041955307979421146,
0.058104738154613464,0.0034838367342724073,
0.05815461346633417,0.05888455540236873,
0.05820448877805486,0.036173363886481215,
0.05825436408977556,0.021369042490712663,
0.05830423940149626,0.011199569024177045,
0.058354114713216956,0.024653112915679426,
0.05840399002493766,0.014698990877868839,
0.058453865336658355,0.002319861919018347,
0.05850374064837905,0.06866484163530662,
0.05855361596009975,0.008593023072553104,
0.05860349127182045,-0.003032199147304949,
0.058653366583541144,0.011237736195013582,
0.05870324189526185,0.013731130100527981,
0.05875311720698254,0.026752053243989795,
0.05880299251870324,-0.0013376745132948412,
0.05885286783042394,0.02076605630574591,
0.05890274314214464,0.05966078053851687,
0.05895261845386534,-0.014222386627732418,
0.059002493765586035,0.01603989934358412,
0.05905236907730673,0.0370069374978395,
0.059102244389027433,0.04207993922434854,
0.05915211970074813,0.013297786074341475,
0.059201995012468825,0.018319043685106656,
0.05925187032418953,0.017870743810396335,
0.05930174563591022,0.0122650504491586,
0.059351620947630926,0.028200036399733473,
0.05940149625935162,0.013829598772875613,
0.05945137157107232,0.02443556871489612,
0.05950124688279302,0.022397614098067998,
0.059551122194513716,-0.006394393890771472,
0.05960099750623441,0.03440213695863395,
0.059650872817955114,0.026095810073259958,
0.05970074812967581,0.004074496930527808,
0.059750623441396505,0.04360595930227665,
0.05980049875311721,0.0028183220881093374,
0.059850374064837904,0.017953247759516837,
0.059900249376558606,0.02387260693303828,
0.0599501246882793,0.01109944055969267,
0.06,0.03519855196418427,
0.0600498753117207,0.04474770581005273,
0.060099750623441396,0.01449959692903546,
0.06014962593516209,0.031808927017610816,
0.060199501246882794,0.0360467714997048,
0.06024937655860349,0.04762962473841265,
0.06029925187032419,0.045209192050209165,
0.06034912718204489,0.024734498924551377,
0.060399002493765584,0.05311069519321847,
0.06044887780548629,0.05628285562803963,
0.06049875311720698,0.02810561922968859,
0.06054862842892768,0.022584666788288625,
0.06059850374064838,0.015805752214247765,
0.06064837905236908,0.032116632875530765,
0.06069825436408977,0.01518515867659395,
0.060748129675810475,0.02027629155795274,
0.06079800498753117,-0.0024520160867652976,
0.06084788029925187,0.05807967287974455,
0.06089775561097257,0.02703520918318171,
0.060947630922693265,0.019953176504962672,
0.06099750623441397,0.029552188043817172,
0.06104738154613466,0.017714236320839884,
0.06109725685785536,0.02592069789544254,
0.06114713216957606,0.014882878877103533,
0.06119700748129676,0.036435851696533045,
0.06124688279301746,0.021063171904511714,
0.061296758104738155,0.026959406953117857,
0.06134663341645885,0.03790348482005211,
0.061396508728179554,0.010481984180793033,
0.06144638403990025,0.04071757216035615,
0.061496259351620945,0.03034180420258173,
0.06154613466334165,0.04324748277762892,
0.061596009975062344,0.014400076963530632,
0.06164588528678304,0.021022929761444167,
0.06169576059850374,0.053613751332129346,
0.06174563591022444,0.027437385445365642,
0.06179551122194514,0.010395066372298017,
0.061845386533665836,0.015698966701664395,
0.06189526184538653,0.051362940046326404,
0.061945137157107234,0.04313506708784167,
0.06199501246882793,0.02075943774445299,
0.062044887780548626,0.03446386450647031,
0.06209476309226933,0.027418493271697365,
0.062144638403990024,0.034822243801988784,
0.06219451371571072,0.010067767993927982,
0.06224438902743142,0.020702693514900648,
0.06229426433915212,0.013226586720777153,
0.06234413965087282,0.01835328489586411,
0.062394014962593516,-0.0005472458770277785,
0.06244389027431421,0.013908597653222953,
0.062493765586034915,0.011361868738602442,
0.06254364089775562,0.00357300905556375,
0.06259351620947631,0.01002950364904621,
0.06264339152119701,0.006628158929444343,
0.0626932668329177,0.008631939189521525,
0.0627431421446384,0.031040064879794618,
0.0627930174563591,0.022082046007380996,
0.0628428927680798,0.030530245415263453,
0.0628927680798005,0.019930372880998595,
0.0629426433915212,0.018843056592329748,
0.06299251870324189,0.00254127567068305,
0.06304239401496259,0.0211056868614725,
0.0630922693266833,-0.02031384681340179,
0.063142144638404,0.030545609914652314,
0.06319201995012469,0.037757851590942776,
0.06324189526184539,0.020095299049223858,
0.06329177057356608,0.021506631624693053,
0.06334164588528678,0.013992400204892038,
0.06339152119700749,0.015395087472073778,
0.06344139650872818,-0.003356620672752813,
0.06349127182044888,0.012521947553053225,
0.06354114713216957,0.010628831507582075,
0.06359102244389027,-0.021778159195647007,
0.06364089775561098,0.004463267369255732,
0.06369077306733167,-0.019006653696421502,
0.06374064837905237,0.022855549920764717,
0.06379052369077307,0.021681033208855803,
0.06384039900249376,0.0022177192979041024,
0.06389027431421446,0.0030909712916509634,
0.06394014962593517,0.01873788810239992,
0.06399002493765586,0.02036900285137039,
0.06403990024937656,0.01711462493357751,
0.06408977556109725,0.0005371706678318003,
0.06413965087281795,0.03728413602952187,
0.06418952618453866,0.021571753439936895,
0.06423940149625935,0.04011315739335411,
0.06428927680798005,0.011284551654247089,
0.06433915211970075,-0.003198323333473148,
0.06438902743142144,-0.0002424869282245251,
0.06443890274314215,0.03659723269325557,
0.06448877805486285,0.023633415278396724,
0.06453865336658354,0.03488083053543635,
0.06458852867830424,-0.007099826136690152,
0.06463840399002493,0.02223748351496441,
0.06468827930174563,0.008771073819710148,
0.06473815461346634,0.019353473539729257,
0.06478802992518704,-0.012364288638573395,
0.06483790523690773,0.011443714844183595,
0.06488778054862843,0.009588742504350043,
0.06493765586034912,0.015465796150787728,
0.06498753117206983,-0.004781831088196837,
0.06503740648379053,0.0010641627304268583,
0.06508728179551122,0.0018536208941153272,
0.06513715710723192,0.01590530365692208,
0.06518703241895261,-0.006810121573813787,
0.06523690773067331,0.005424657091654168,
0.06528678304239402,0.006568262381381655,
0.06533665835411472,0.017787872479600973,
0.06538653366583541,0.015299708659112551,
0.06543640897755611,0.001370705592122322,
0.0654862842892768,-0.025192073963062497,
0.06553615960099751,0.011410108183078315,
0.06558603491271821,0.008654669055735115,
0.0656359102244389,0.00545978524396614,
0.0656857855361596,0.01657666814042095,
0.0657356608478803,-0.014565972370307358,
0.06578553615960099,0.017271488633063953,
0.0658354114713217,0.014150979468425638,
0.0658852867830424,-0.0037955915781436363,
0.06593516209476309,-0.026083395022033926,
0.06598503740648379,0.036376048326745354,
0.06603491271820448,0.00099742125440024,
0.06608478802992519,-0.016943711719521852,
0.06613466334164589,-0.007245176487181601,
0.06618453865336658,0.012642622410316808,
0.06623441396508728,0.017968131062668213,
0.06628428927680798,0.0030659312385715046,
0.06633416458852869,0.019863160478612397,
0.06638403990024938,-0.0057553994356486044,
0.06643391521197008,-0.021491874097417783,
0.06648379052369077,-0.014839555928068704,
0.06653366583541147,0.008167978796333844,
0.06658354114713216,-0.006880996001709964,
0.06663341645885287,-0.005175847646696649,
0.06668329177057357,-0.030671783001491044,
0.06673316708229426,-0.005284715132813606,
0.06678304239401496,-0.0010089960251660544,
0.06683291770573566,-0.005026790774832587,
0.06688279301745637,-0.01108309589036787,
0.06693266832917706,-0.0015565231553408099,
0.06698254364089776,-0.024535521684864055,
0.06703241895261845,0.028869715281484368,
0.06708229426433915,-0.016414377192461943,
0.06713216957605984,0.014527227307524981,
0.06718204488778055,-0.02110542243046047,
0.06723192019950125,-0.005035308111665265,
0.06728179551122195,-0.01145289201439094,
0.06733167082294264,0.00046220447328357544,
0.06738154613466334,-0.026059089944962248,
0.06743142144638405,0.01244603997538619,
0.06748129675810474,-0.022076633319419683,
0.06753117206982544,0.0017022624164845027,
0.06758104738154613,-0.020377366818678418,
0.06763092269326683,-0.0023679143700558363,
0.06768079800498752,-0.0007778168462446132,
0.06773067331670823,-0.007575488579534889,
0.06778054862842893,-0.012833058205853903,
0.06783042394014963,-0.024519941406332214,
0.06788029925187032,-0.0063478748502903155,
0.06793017456359102,0.006377484574335162,
0.06798004987531173,-0.008080034996956177,
0.06802992518703242,-0.01623345611444967,
0.06807980049875312,0.009748600988739586,
0.06812967581047381,-0.0028513040037823024,
0.06817955112219451,-0.03262048075155222,
0.0682294264339152,-0.019737046544308197,
0.06827930174563591,-0.0007440610789445912,
0.06832917705735661,0.019844154287198355,
0.0683790523690773,-0.008408933517164211,
0.068428927680798,-0.011851227937329034,
0.0684788029925187,-0.023956632905563352,
0.06852867830423941,0.0004224891430578172,
0.0685785536159601,0.0010659183567337024,
0.0686284289276808,-0.04510754771822162,
0.0686783042394015,-0.02372255270398013,
0.06872817955112219,-0.0006460526420676588,
0.0687780548628429,-0.02848504169917207,
0.0688279301745636,-0.02351080328091522,
0.06887780548628429,-0.020987755233000498,
0.06892768079800499,-0.051521359990150145,
0.06897755610972568,-0.01678978090281914,
0.06902743142144638,-0.01717794855393112,
0.06907730673316709,0.003146068167018238,
0.06912718204488778,-0.01019358479733769,
0.06917705735660848,-0.058880934240328996,
0.06922693266832917,-0.021439220851180794,
0.06927680798004987,-0.006317657375938971,
0.06932668329177058,-0.03307872588744486,
0.06937655860349128,-0.022247966046643614,
0.06942643391521197,-0.024165723170862706,
0.06947630922693267,0.004825609648305047,
0.06952618453865336,-0.02370714483351964,
0.06957605985037406,-0.007020626159302957,
0.06962593516209477,0.004702509418966015,
0.06967581047381546,-0.01568492707687366,
0.06972568578553616,-0.02316894291388337,
0.06977556109725686,-0.005689321927067061,
0.06982543640897755,0.01400862249250235,
0.06987531172069826,-0.010511413854050536,
0.06992518703241896,-0.007884786422910926,
0.06997506234413965,-0.021773063987039844,
0.07002493765586035,0.009338246079066147,
0.07007481296758104,-0.008785140983581533,
0.07012468827930174,-0.0057176822214538865,
0.07017456359102245,-0.004428242950248577,
0.07022443890274314,-0.010906756976137385,
0.07027431421446384,-0.036725040007338366,
0.07032418952618454,-0.010651208051459216,
0.07037406483790523,-0.010173591979839618,
0.07042394014962594,-0.01642708147331934,
0.07047381546134664,0.009809256179157238,
0.07052369077306733,-0.002677548006087861,
0.07057356608478803,-0.011958932435549094,
0.07062344139650872,-0.03230648827983896,
0.07067331670822943,0.024378495936407403,
0.07072319201995013,-0.02365132725723528,
0.07077306733167082,0.0211526212924409,
0.07082294264339152,-0.021271819600302333,
0.07087281795511222,-0.029406009103170868,
0.07092269326683291,-0.018268270852289534,
0.07097256857855362,-0.015616062579773904,
0.07102244389027432,-0.026041383697897956,
0.07107231920199501,-0.02110533228796546,
0.07112219451371571,-0.02095090409826173,
0.0711720698254364,-0.014374425381714332,
0.07122194513715711,0.004982691502419631,
0.07127182044887781,-0.02030768737236038,
0.0713216957605985,-0.013985533758626904,
0.0713715710723192,-0.02115941905581141,
0.0714214463840399,0.006625574124173101,
0.07147132169576059,-0.004757876803840358,
0.0715211970074813,0.0017988843453044714,
0.071571072319202,-0.013513275663882274,
0.0716209476309227,0.0033577351764025997,
0.07167082294264339,-0.05404094048768124,
0.07172069825436408,-0.01015650784352975,
0.0717705735660848,-0.02128509398738007,
0.07182044887780549,0.0015196587223455828,
0.07187032418952619,-0.0037768800756396523,
0.07192019950124688,-0.0056928790267473835,
0.07197007481296758,0.03692619334901649,
0.07201995012468827,0.026027764773382818,
0.07206982543640898,-0.014413701355941711,
0.07211970074812968,-0.04208305126643991,
0.07216957605985037,-0.021842549714714395,
0.07221945137157107,-0.013309805255662745,
0.07226932668329177,0.0052802028039371715,
0.07231920199501247,-0.012689912805437817,
0.07236907730673317,0.0027113698107089027,
0.07241895261845387,0.0059470476298447775,
0.07246882793017456,-0.013036015142291116,
0.07251870324189526,0.0076172517825843,
0.07256857855361595,-0.018009555431600793,
0.07261845386533666,0.02378625620003272,
0.07266832917705736,-0.018237587079271554,
0.07271820448877805,-0.009529888340925852,
0.07276807980049875,0.005562440997456168,
0.07281795511221945,-0.007486180522243515,
0.07286783042394016,-0.018802350087757054,
0.07291770573566085,-0.017624615179444816,
0.07296758104738155,0.011331180668272713,
0.07301745635910224,-0.004675697820073335,
0.07306733167082294,0.006819878687823134,
0.07311720698254365,0.02556510201297242,
0.07316708229426434,0.0036618976343261393,
0.07321695760598504,-0.00684124974595783,
0.07326683291770573,-0.02584114477724231,
0.07331670822942643,0.012406168753479094,
0.07336658354114713,0.019609281948377286,
0.07341645885286784,-0.017597828010123363,
0.07346633416458853,-0.007716858680114815,
0.07351620947630923,0.008024882903172346,
0.07356608478802992,-0.01214890941969514,
0.07361596009975062,0.002137562648533556,
0.07366583541147133,0.014102577690713354,
0.07371571072319202,-0.024372270594377174,
0.07376558603491272,-0.02664563096026061,
0.07381546134663342,0.022682606616346867,
0.07386533665835411,0.004747284188858595,
0.0739152119700748,-0.002461039756125665,
0.07396508728179552,-0.006218863458198978,
0.07401496259351621,-0.013758540044537922,
0.07406483790523691,-0.006071061398462022,
0.0741147132169576,-0.0045908036483566575,
0.0741645885286783,0.012777248297339817,
0.07421446384039901,-0.019703948869492956,
0.0742643391521197,0.0003714307217668666,
0.0743142144638404,-0.010490062720708935,
0.0743640897755611,-0.00023203245502185528,
0.07441396508728179,-0.0005211573722257686,
0.07446384039900249,-0.0013775992148476138,
0.0745137157107232,0.012037936223657389,
0.07456359102244389,0.008195777159390143,
0.07461346633416459,-0.00020560868185840798,
0.07466334164588528,-0.004584135750714993,
0.07471321695760598,0.011381323512025561,
0.07476309226932669,0.010225899405082194,
0.07481296758104738,-0.00558489021923278,
0.07486284289276808,0.018424757410857757,
0.07491271820448878,0.01676198022294473,
0.07496259351620947,-0.009770110339320029,
0.07501246882793017,-0.0019320971589707062,
0.07506234413965088,-0.027056911261187085,
0.07511221945137157,0.01569778523644068,
0.07516209476309227,0.015948112310349025,
0.07521197007481296,0.010647974530250359,
0.07526184538653366,6.316393669413261e-05,
0.07531172069825437,0.02261323271709477,
0.07536159600997507,0.009731746655352008,
0.07541147132169576,0.0013043930494789956,
0.07546134663341646,0.01926551439921077,
0.07551122194513715,-0.006790633763817198,
0.07556109725685786,0.02248400217303445,
0.07561097256857856,-0.018970629216200824,
0.07566084788029925,-0.01105484145819005,
0.07571072319201995,-0.00509159096801943,
0.07576059850374064,0.014253535115583086,
0.07581047381546134,0.012976040583729797,
0.07586034912718205,0.027776620279271646,
0.07591022443890275,0.028109260254253355,
0.07596009975062344,-0.0016635924406726288,
0.07600997506234414,0.014525069685755041,
0.07605985037406483,0.021420688773906377,
0.07610972568578554,0.0027787776219184556,
0.07615960099750624,0.007828994326056287,
0.07620947630922693,0.015227785845224237,
0.07625935162094763,0.012936311465026612,
0.07630922693266833,0.004746744193463307,
0.07635910224438902,-0.00849135017083292,
0.07640897755610973,0.016161990336878616,
0.07645885286783043,0.027487157931659567,
0.07650872817955112,0.03547653833479098,
0.07655860349127182,0.03875156544689574,
0.07660847880299251,0.01872678373628078,
0.07665835411471322,0.012381602396031519,
0.07670822942643392,0.0384584458303641,
0.07675810473815461,0.0014752857206312836,
0.07680798004987531,0.014353901609053251,
0.076857855361596,0.0340710147220874,
0.0769077306733167,0.031077260854974764,
0.07695760598503741,0.005293884834401413,
0.0770074812967581,0.02278486483957535,
0.0770573566084788,-0.006571818329212539,
0.0771072319201995,0.020838628387216153,
0.0771571072319202,0.004360414068565639,
0.0772069825436409,-0.011250040111430201,
0.0772568578553616,0.03394994912704424,
0.0773067331670823,0.012284661064038551,
0.07735660847880299,0.026541206717783233,
0.07740648379052369,0.027720076311884202,
0.0774563591022444,0.03091234258001921,
0.07750623441396509,0.04019539697947563,
0.07755610972568579,0.026055041949950647,
0.07760598503740648,0.0037605456813028185,
0.07765586034912718,-0.001822066603027573,
0.07770573566084787,0.052457930306908304,
0.07775561097256858,0.02755031511487023,
0.07780548628428928,0.0272383848457579,
0.07785536159600998,0.059230210910731086,
0.07790523690773067,0.02692814277465163,
0.07795511221945137,0.02391136678431347,
0.07800498753117208,0.03274041982965197,
0.07805486284289277,0.037173760842571235,
0.07810473815461347,0.01937641316985916,
0.07815461346633416,0.007072692730152567,
0.07820448877805486,0.023967059513254427,
0.07825436408977555,0.018875599055658745,
0.07830423940149626,0.0341891712546719,
0.07835411471321696,-0.01108430346664236,
0.07840399002493766,0.016789981728836913,
0.07845386533665835,0.027966300065546526,
0.07850374064837905,0.022107635344723313,
0.07855361596009976,0.012007665120576147,
0.07860349127182045,0.006266835159723101,
0.07865336658354115,-0.0011636850113269093,
0.07870324189526184,0.0322240213782762,
0.07875311720698254,0.05772285431657537,
0.07880299251870324,0.02758370880718673,
0.07885286783042394,0.020269233726398467,
0.07890274314214464,0.020127560322971104,
0.07895261845386534,0.02030743073212002,
0.07900249376558603,0.008454184462831842,
0.07905236907730673,0.015584057589927041,
0.07910224438902744,0.014369204355885035,
0.07915211970074813,0.027478921201355998,
0.07920199501246883,-0.006518705238143078,
0.07925187032418952,-0.0016621410286162923,
0.07930174563591022,0.01888875313863822,
0.07935162094763092,0.026814785821123864,
0.07940149625935163,0.038913522420003566,
0.07945137157107232,0.015333775471577365,
0.07950124688279302,0.02933023728403382,
0.07955112219451371,0.028007738182683754,
0.07960099750623441,0.016768666626933354,
0.07965087281795512,0.0017275779743415945,
0.07970074812967581,0.017001672983869943,
0.07975062344139651,-0.0030780791637819126,
0.0798004987531172,0.020224747094241345,
0.0798503740648379,0.04004497456296589,
0.07990024937655861,0.047812799790065454,
0.0799501246882793,0.009274751484713115,
0.08,0.026826276688283333,
0.0800498753117207,0.03605225013748828,
0.0800997506234414,0.03667305825931726,
0.08014962593516209,0.05195706506210959,
0.0801995012468828,0.017451128243078665,
0.0802493765586035,0.053560149945662286,
0.08029925187032419,0.04817038438776734,
0.08034912718204489,0.008638160104887122,
0.08039900249376558,0.012115125179929496,
0.08044887780548629,0.01312544349431251,
0.08049875311720699,0.035746859526818955,
0.08054862842892768,0.043236367430189646,
0.08059850374064838,0.026738728394266296,
0.08064837905236907,0.007629541314844234,
0.08069825436408977,0.046116917077586875,
0.08074812967581048,0.028554258163783413,
0.08079800498753117,0.03164765190148946,
0.08084788029925187,0.022478174502905075,
0.08089775561097257,0.025545329310385053,
0.08094763092269326,0.007855981454166761,
0.08099750623441397,0.024557686856063778,
0.08104738154613467,0.004687945420138572,
0.08109725685785536,0.027695401212139096,
0.08114713216957606,0.033802220578960984,
0.08119700748129675,0.018278637790756457,
0.08124688279301745,0.047620052721795585,
0.08129675810473816,0.02596292515897645,
0.08134663341645886,0.03733531016668071,
0.08139650872817955,0.019696830527524318,
0.08144638403990025,0.04438218721616555,
0.08149625935162094,0.03170973080978829,
0.08154613466334165,0.02978533431598285,
0.08159600997506235,0.052821270810946286,
0.08164588528678304,-0.0058987679292287,
0.08169576059850374,0.017863645516483357,
0.08174563591022443,0.010998789751151811,
0.08179551122194513,0.03639151477785313,
0.08184538653366584,0.0305082501861282,
0.08189526184538654,0.030413957061118446,
0.08194513715710723,0.015729178609313197,
0.08199501246882793,0.0067021379249809325,
0.08204488778054862,0.013262038451741542,
0.08209476309226933,0.03451862707154181,
0.08214463840399003,0.026079994026233688,
0.08219451371571072,0.026437783397290648,
0.08224438902743142,0.013601474759092584,
0.08229426433915212,0.006140388468364951,
0.08234413965087282,0.028932649512007757,
0.08239401496259352,0.011492654950005803,
0.08244389027431422,0.02043738061830472,
0.08249376558603491,0.023091185688970717,
0.08254364089775561,0.023291803131393594,
0.0825935162094763,0.04466061778633073,
0.08264339152119701,0.024494041680135054,
0.08269326683291771,0.014433810777836434,
0.0827431421446384,0.01865412237090607,
0.0827930174563591,0.011548529079282497,
0.0828428927680798,0.017897672923290357,
0.0828927680798005,0.040638060030538964,
0.0829426433915212,-0.009049743380557654,
0.0829925187032419,0.026666809189464027,
0.08304239401496259,0.005485442501554543,
0.08309226932668329,0.04022698929198385,
0.08314214463840398,0.031718338080995584,
0.0831920199501247,-0.004888986406065426,
0.08324189526184539,0.017135693684908394,
0.08329177057356608,0.015070247746881699,
0.08334164588528678,0.02825264805790296,
0.08339152119700748,-0.003436510957543909,
0.08344139650872819,0.02676628851607951,
0.08349127182044888,0.008036426146511037,
0.08354114713216958,0.02468565888505451,
0.08359102244389027,0.01866951152480678,
0.08364089775561097,0.019252569110244984,
0.08369077306733166,0.010333669309671596,
0.08374064837905237,0.0019213269033527252,
0.08379052369077307,0.016330445156387777,
0.08384039900249377,-0.00044239508113919773,
0.08389027431421446,0.020456819670585352,
0.08394014962593516,0.0165345645120908,
0.08399002493765587,0.020195238266806376,
0.08403990024937656,0.0011363613831143898,
0.08408977556109726,0.022508365459664236,
0.08413965087281795,0.021751656168222295,
0.08418952618453865,0.007406205351903576,
0.08423940149625936,0.03325640576719729,
0.08428927680798005,0.0385520770063245,
0.08433915211970075,0.000712833260910031,
0.08438902743142145,0.017393130996957405,
0.08443890274314214,0.003976816531635029,
0.08448877805486284,0.016656155172311286,
0.08453865336658355,0.004210231368482075,
0.08458852867830424,0.011640267667248762,
0.08463840399002494,0.03006317725045084,
0.08468827930174563,0.008383096535266208,
0.08473815461346633,0.007320502110630391,
0.08478802992518704,0.01829721944234993,
0.08483790523690773,0.0005733318081962892,
0.08488778054862843,0.006226508327417406,
0.08493765586034913,-0.002272303438677426,
0.08498753117206982,0.00773621561333317,
0.08503740648379052,0.0030549972208552354,
0.08508728179551123,0.028557520452606414,
0.08513715710723192,-0.02512699961920748,
0.08518703241895262,0.012247026681360008,
0.08523690773067331,0.009718267236819355,
0.08528678304239401,0.0033417274943549724,
0.08533665835411472,-0.02340073756583998,
0.08538653366583542,0.026172442248283655,
0.08543640897755611,-0.004401101883728411,
0.0854862842892768,-0.004276521586855224,
0.0855361596009975,-0.010833111833647404,
0.0855860349127182,0.029656629073384302,
0.08563591022443891,0.017941427122246688,
0.0856857855361596,0.03048727837258067,
0.0857356608478803,0.0007530387584520201,
0.085785536159601,0.016230472243541946,
0.08583541147132169,0.007260739437864435,
0.0858852867830424,0.01125747045678007,
0.0859351620947631,-0.02071279417934354,
0.08598503740648379,0.005278703592836063,
0.08603491271820449,0.005949125838590003,
0.08608478802992518,-0.020949793516117622,
0.08613466334164588,-0.007844179989286621,
0.08618453865336659,0.005039021828860322,
0.08623441396508728,-0.028759031477751138,
0.08628428927680798,-0.015059616729979679,
0.08633416458852868,-0.00809718565536184,
0.08638403990024937,-0.0148931722889768,
0.08643391521197008,0.00603165021537364,
0.08648379052369078,0.025220645141637656,
0.08653366583541147,-0.012609374476216137,
0.08658354114713217,-0.004780458625544265,
0.08663341645885286,0.010176780731607653,
0.08668329177057357,-0.004654472185963144,
0.08673316708229427,-0.013379680302001474,
0.08678304239401496,-0.006531901496622688,
0.08683291770573566,-0.012936003993089352,
0.08688279301745636,0.0332149980233287,
0.08693266832917705,0.0013117166232177284,
0.08698254364089776,-0.01399676892517442,
0.08703241895261846,0.009788015387571975,
0.08708229426433915,-0.015997838229126538,
0.08713216957605985,-0.016733719657690948,
0.08718204488778054,0.022906526966362813,
0.08723192019950125,0.010213930568917203,
0.08728179551122195,-0.007894978403203426,
0.08733167082294264,0.007468242628621021,
0.08738154613466334,-0.0006855056696870067,
0.08743142144638404,0.012902511649545938,
0.08748129675810473,-0.01186085962725431,
0.08753117206982544,-0.008875713480891261,
0.08758104738154614,0.006336505563429669,
0.08763092269326683,-0.014229109035807968,
0.08768079800498753,-0.03045783163304251,
0.08773067331670822,-0.037077548149102,
0.08778054862842893,-0.00047856124952600117,
0.08783042394014963,-0.013300567277796578,
0.08788029925187033,-0.012458583576438205,
0.08793017456359102,-0.021429099407783956,
0.08798004987531172,-0.0023788542375887288,
0.08802992518703241,-0.0053582914872151565,
0.08807980049875312,-0.020983248586532055,
0.08812967581047382,-0.006197285092399108,
0.08817955112219451,-0.017228785800129185,
0.08822942643391521,-0.026485526509489675,
0.0882793017456359,0.001602916758681133,
0.08832917705735661,-0.02087296790285278,
0.08837905236907731,-0.02886401207463653,
0.088428927680798,0.03014281182222272,
0.0884788029925187,-0.029325816540881962,
0.0885286783042394,-0.002802538459768666,
0.0885785536159601,0.008685403920318177,
0.0886284289276808,-0.019266975397160727,
0.0886783042394015,0.0190419322338991,
0.0887281795511222,-0.010384747571219176,
0.08877805486284289,-0.028726414070054766,
0.08882793017456359,-0.014356222907165723,
0.0888778054862843,-0.050627642549217436,
0.08892768079800499,-0.0037360432330310177,
0.08897755610972569,-0.00753019540095362,
0.08902743142144638,-0.008597056472514183,
0.08907730673316708,-0.011298120379033062,
0.08912718204488779,0.0028369829813026277,
0.08917705735660848,-0.00048067018269574817,
0.08922693266832918,-0.02709374173599572,
0.08927680798004987,-0.032055852625608096,
0.08932668329177057,-0.0022403980876368537,
0.08937655860349127,-0.03199697880213924,
0.08942643391521198,-0.027484294030477006,
0.08947630922693267,-0.008740291475469541,
0.08952618453865337,-0.02681552708527251,
0.08957605985037406,0.0032334871919099638,
0.08962593516209476,0.0010321532000073137,
0.08967581047381547,-0.026931059306617558,
0.08972568578553616,-0.01725052294958928,
0.08977556109725686,-0.019534310303256634,
0.08982543640897755,-0.019473439158056424,
0.08987531172069825,-4.392319416574898e-05,
0.08992518703241895,-0.006717531127547818,
0.08997506234413966,0.001955100618086106,
0.09002493765586035,-0.006545844771038345,
0.09007481296758105,-0.010714443232269567,
0.09012468827930174,-0.025040993945714376,
0.09017456359102244,-0.027398746540509607,
0.09022443890274315,-0.01566100896074402,
0.09027431421446384,-0.012735315040542617,
0.09032418952618454,-0.02267421884195648,
0.09037406483790524,0.012599239177074964,
0.09042394014962593,-0.009521512616573018,
0.09047381546134663,-0.03872542119862141,
0.09052369077306734,-0.024180295044809168,
0.09057356608478803,-0.012038792433335133,
0.09062344139650873,-0.005074811025984047,
0.09067331670822942,0.010925283270603187,
0.09072319201995012,-0.005577440768387503,
0.09077306733167083,-0.015976663793878278,
0.09082294264339152,9.654265214750768e-06,
0.09087281795511222,-0.04617412411043486,
0.09092269326683292,-0.01069801286903673,
0.09097256857855361,-0.012447405482047135,
0.09102244389027432,-0.0155010537048309,
0.09107231920199502,-0.022903702735475744,
0.09112219451371571,0.0145400659550349,
0.09117206982543641,-0.024296673845786015,
0.0912219451371571,-0.014519340031451895,
0.0912718204488778,-0.00418024409579036,
0.09132169576059851,-0.007057236113128459,
0.0913715710723192,0.005898945463337723,
0.0914214463840399,-0.013288213585438972,
0.0914713216957606,0.008920365244415506,
0.09152119700748129,-0.0030471669033973886,
0.091571072319202,-0.015775881984147255,
0.0916209476309227,-0.0284291544817114,
0.09167082294264339,0.0141859755447289,
0.09172069825436409,-0.019759019975139222,
0.09177057356608478,-0.016389612981508248,
0.09182044887780548,-0.002361747622999894,
0.09187032418952619,-0.007181902576286214,
0.09192019950124689,-0.00773774955477053,
0.09197007481296758,-0.00802747560961438,
0.09201995012468828,-0.004922220753990333,
0.09206982543640897,-0.005770668196005892,
0.09211970074812968,-0.021897357613453412,
0.09216957605985038,0.0021775114566728072,
0.09221945137157107,-0.00758088799601786,
0.09226932668329177,-0.011234366986877159,
0.09231920199501246,0.007055909589830347,
0.09236907730673316,-0.021547359213081346,
0.09241895261845387,0.00986297644357167,
0.09246882793017457,-0.027826702889858643,
0.09251870324189526,-0.0181035233136278,
0.09256857855361596,-0.005235816330145449,
0.09261845386533665,0.005333962675172611,
0.09266832917705736,0.008635477208091394,
0.09271820448877806,0.0033109927669077825,
0.09276807980049875,0.01270398475235398,
0.09281795511221945,-0.002275549366986005,
0.09286783042394015,-0.01766258724397506,
0.09291770573566084,-0.0030080653393745674,
0.09296758104738155,-0.004787348231564854,
0.09301745635910225,6.516839776830093e-05,
0.09306733167082294,-0.021451919653998966,
0.09311720698254364,-0.019084784940183834,
0.09316708229426433,0.0026675782736539123,
0.09321695760598504,0.0021298623886415406,
0.09326683291770574,-0.013092724043819951,
0.09331670822942643,-0.00039178064803075275,
0.09336658354114713,-0.010281356936185936,
0.09341645885286783,-0.0023530133867760714,
0.09346633416458854,0.00727753980386065,
0.09351620947630923,-0.03387723183367806,
0.09356608478802993,-0.036230137040253664,
0.09361596009975062,-0.024288944402727972,
0.09366583541147132,0.004358602314059337,
0.09371571072319201,-0.001308529764859707,
0.09376558603491272,-0.03234594736152346,
0.09381546134663342,-0.0022350677083499966,
0.09386533665835411,0.006196801414585753,
0.09391521197007481,0.0009350611279375447,
0.0939650872817955,0.0030032880416524265,
0.09401496259351622,-0.012933849929495493,
0.09406483790523691,0.02196623914610308,
0.09411471321695761,0.021958990506934832,
0.0941645885286783,0.032601094772855575,
0.094214463840399,0.009367781986616136,
0.0942643391521197,-0.015140884334270034,
0.0943142144638404,-0.011946788147091962,
0.0943640897755611,-0.0028360158555246102,
0.0944139650872818,-0.006951278921420441,
0.09446384039900249,-0.004991280998790103,
0.09451371571072319,0.0028857588140002726,
0.0945635910224439,0.012067221860304376,
0.09461346633416459,0.005110922925406327,
0.09466334164588529,0.008375475273115811,
0.09471321695760598,0.017464865872119158,
0.09476309226932668,0.02647330813768714,
0.09481296758104737,0.007654919194170794,
0.09486284289276808,0.013070049695621118,
0.09491271820448878,0.011563694567794,
0.09496259351620948,0.0009743145012948758,
0.09501246882793017,0.005905574678416306,
0.09506234413965087,0.012790038914903974,
0.09511221945137158,-0.017287065412712393,
0.09516209476309227,0.0063168727419872835,
0.09521197007481297,0.001456107747542605,
0.09526184538653366,0.0036991175314518695,
0.09531172069825436,0.016962823338178848,
0.09536159600997507,-0.01595130723300401,
0.09541147132169576,0.024349274940166636,
0.09546134663341646,-0.004031099799301949,
0.09551122194513716,0.02642024951451258,
0.09556109725685785,0.009070438838150657,
0.09561097256857855,0.006863954356341569,
0.09566084788029926,0.01990336227860212,
0.09571072319201995,0.012828627783765045,
0.09576059850374065,0.0019734524122772337,
0.09581047381546134,0.003616200069442072,
0.09586034912718204,0.02037113380714874,
0.09591022443890275,0.012739771769412395,
0.09596009975062345,0.032448242628627236,
0.09600997506234414,0.019698475396420875,
0.09605985037406484,0.006379883671935561,
0.09610972568578553,0.001592882143970173,
0.09615960099750623,-0.0008905766854508581,
0.09620947630922694,0.019098696168652354,
0.09625935162094763,0.015030504943294925,
0.09630922693266833,0.02303802522433926,
0.09635910224438902,-0.00982808930735868,
0.09640897755610972,0.027115162445960062,
0.09645885286783043,0.014166666738316744,
0.09650872817955113,0.032614082266734026,
0.09655860349127182,0.011542261418919512,
0.09660847880299252,-0.008718747460617154,
0.09665835411471321,0.002748542132204915,
0.09670822942643391,0.012715313651596883,
0.09675810473815462,0.020811347384826245,
0.09680798004987531,0.04049483727281958,
0.09685785536159601,0.018459423597442223,
0.0969077306733167,0.01754143585211203,
0.0969576059850374,0.010849196287748565,
0.09700748129675811,0.017413532420909504,
0.0970573566084788,0.01707077742858826,
0.0971072319201995,0.01721037418969734,
0.0971571072319202,-0.00774948110460778,
0.0972069825436409,0.03759892617601156,
0.09725685785536159,0.055490921838729536,
0.0973067331670823,0.03544974497973834,
0.097356608478803,-0.01336661689661314,
0.09740648379052369,0.015302114332295315,
0.09745635910224439,0.01270346689474371,
0.09750623441396508,0.026763874199780685,
0.09755610972568579,0.042245103946353044,
0.09760598503740649,0.03574954822999369,
0.09765586034912718,0.04230576532781903,
0.09770573566084788,0.044742226914048014,
0.09775561097256857,-0.0015396557902980258,
0.09780548628428928,0.009269780017695031,
0.09785536159600998,0.02603285823120255,
0.09790523690773068,0.020769956585319486,
0.09795511221945137,0.021892481750478737,
0.09800498753117207,0.055087286907281534,
0.09805486284289276,0.045315373453591226,
0.09810473815461347,-0.022823794798095806,
0.09815461346633417,0.01914566787956963,
0.09820448877805486,0.02935805047593934,
0.09825436408977556,0.025861662642725734,
0.09830423940149625,0.00715346158727749,
0.09835411471321696,0.007451136231652038,
0.09840399002493766,0.03182924706941997,
0.09845386533665836,0.029258058115199607,
0.09850374064837905,0.04825129590771702,
0.09855361596009975,0.027854954395774387,
0.09860349127182044,0.022823655691454465,
0.09865336658354115,0.045129327496464824,
0.09870324189526185,0.008791750548956478,
0.09875311720698254,0.041690999574951815,
0.09880299251870324,0.05434266658251784,
0.09885286783042393,0.03606052256344067,
0.09890274314214464,0.03001099467186129,
0.09895261845386534,0.021907716299064676,
0.09900249376558604,0.017583919973746465,
0.09905236907730673,0.0354063688870809,
0.09910224438902743,0.03930972083466468,
0.09915211970074812,0.02477303193966188,
0.09920199501246883,0.016609614527021276,
0.09925187032418953,0.015414335575542882,
0.09930174563591022,0.022270374981510018,
0.09935162094763092,0.02906026103142771,
0.09940149625935162,0.01219908722230131,
0.09945137157107233,0.032556202156828334,
0.09950124688279302,0.0321239598683916,
0.09955112219451372,0.03260235354062138,
0.09960099750623441,0.02390977662268147,
0.09965087281795511,0.013248548393392177,
0.0997007481296758,0.009360549571993382,
0.09975062344139651,0.06343491950801301,
0.09980049875311721,0.031121208754034842,
0.0998503740648379,0.04036321538102457,
0.0999002493765586,0.02911876630291661,
0.0999501246882793,0.00907324900304047,
0.1,0.02509997695972219,
0.1000498753117207,0.033925728563676025,
0.1000997506234414,0.020084675522240344,
0.10014962593516209,0.05075202035082109,
0.10019950124688279,0.03223614089745524,
0.1002493765586035,0.030826764644943584,
0.1002992518703242,0.06526817457492232,
0.10034912718204489,0.029916516120277632,
0.10039900249376559,0.010213517877089646,
0.10044887780548628,0.008699156201157243,
0.10049875311720698,0.028905893209336356,
0.10054862842892769,0.034697476025686874,
0.10059850374064838,0.03742891314509043,
0.10064837905236908,0.03367938834953314,
0.10069825436408977,0.03643094333533939,
0.10074812967581047,0.021247714341234653,
0.10079800498753118,0.002630827057208053,
0.10084788029925187,0.044455452114995686,
0.10089775561097257,0.04231500724063616,
0.10094763092269327,0.0373972057001352,
0.10099750623441396,0.043700914041335345,
0.10104738154613466,0.032070927381753364,
0.10109725685785537,0.0193752702068812,
0.10114713216957606,0.05989323590198474,
0.10119700748129676,0.02303759479039483,
0.10124688279301745,0.03013548620718169,
0.10129675810473815,0.05322812227031434,
0.10134663341645886,0.013674709322058881,
0.10139650872817955,0.024284353862534223,
0.10144638403990025,0.013040186221095505,
0.10149625935162095,0.035536345438217404,
0.10154613466334164,0.031056859692605247,
0.10159600997506234,0.023581277443670584,
0.10164588528678305,0.04987435399535975,
0.10169576059850374,0.0021763830299156156,
0.10174563591022444,0.028300288108027014,
0.10179551122194513,0.025238920436680256,
0.10184538653366583,0.015093406581256418,
0.10189526184538654,0.0021555783744001515,
0.10194513715710724,0.026388542183725782,
0.10199501246882793,0.006707975745821718,
0.10204488778054863,0.03435999986491135,
0.10209476309226932,0.024564848142125898,
0.10214463840399003,0.020949612951311664,
0.10219451371571073,0.04743236953517779,
0.10224438902743142,0.028193781018025506,
0.10229426433915212,0.008552638105517877,
0.10234413965087281,-9.978542353446598e-05,
0.10239401496259351,0.038015914197856944,
0.10244389027431422,0.028776970166723863,
0.10249376558603492,0.03196484102863355,
0.10254364089775561,0.021303641314336062,
0.10259351620947631,0.020571199066812148,
0.102643391521197,0.026451509893171656,
0.10269326683291771,0.022352639417564376,
0.10274314214463841,0.01852928067014505,
0.1027930174563591,0.0028369259254581135,
0.1028428927680798,0.015126632369058115,
0.1028927680798005,0.03325157701686496,
0.10294264339152119,0.025906439778499383,
0.1029925187032419,0.009206671275996694,
0.1030423940149626,0.015603437641344628,
0.10309226932668329,0.013213317868686795,
0.10314214463840399,0.025046157757407178,
0.10319201995012468,0.0562533003851759,
0.10324189526184539,0.03722289110520523,
0.10329177057356609,0.012472670852540918,
0.10334164588528678,0.05189951914781318,
0.10339152119700748,0.01875952675393054,
0.10344139650872818,0.010834264449867691,
0.10349127182044887,0.009577016556384479,
0.10354114713216958,0.010441529415500004,
0.10359102244389028,0.010441126863784119,
0.10364089775561097,0.04167462712633406,
0.10369077306733167,0.029516152982535765,
0.10374064837905236,-0.00992590392300691,
0.10379052369077307,0.03034738832651343,
0.10384039900249377,0.021293167341933948,
0.10389027431421446,0.04427117621446267,
0.10394014962593516,0.020654323955537558,
0.10399002493765586,0.03372018858373997,
0.10403990024937655,0.0009886448094012755,
0.10408977556109726,0.03762535099096645,
0.10413965087281796,0.019864397201013375,
0.10418952618453865,0.04257969557435533,
0.10423940149625935,0.02141468839540283,
0.10428927680798004,0.012146484744860226,
0.10433915211970075,0.017873620190393773,
0.10438902743142145,0.02226071071165297,
0.10443890274314215,0.009153820945702048,
0.10448877805486284,0.02960863219817932,
0.10453865336658354,0.03581880088201143,
0.10458852867830425,2.781512491903393e-05,
0.10463840399002494,0.009536290049503217,
0.10468827930174564,0.025209657170145106,
0.10473815461346633,0.017042816508398433,
0.10478802992518703,-0.006754456355395058,
0.10483790523690772,0.01318157127110419,
0.10488778054862843,0.027669256331884415,
0.10493765586034913,0.013347770948320388,
0.10498753117206983,0.004248891098482012,
0.10503740648379052,0.019640126194449666,
0.10508728179551122,-0.002838534447340847,
0.10513715710723193,0.002191306345907581,
0.10518703241895262,-0.0019447120474176804,
0.10523690773067332,-0.01292309334250445,
0.10528678304239401,-0.0062667171817493705,
0.10533665835411471,0.01526867940184276,
0.1053865336658354,-0.0006443134582420846,
0.10543640897755611,-0.013638492032212566,
0.10548628428927681,0.016918199346013303,
0.1055361596009975,0.019874524919687716,
0.1055860349127182,0.023820794264774462,
0.1056359102244389,0.0062054754740237805,
0.10568578553615961,0.0031910865093742477,
0.1057356608478803,0.010949609692948212,
0.105785536159601,0.002533741439163724,
0.1058354114713217,0.005429058471900879,
0.10588528678304239,-0.007215849877937163,
0.10593516209476309,0.008319519751202101,
0.1059850374064838,0.031013809765560875,
0.10603491271820449,0.01178160776262727,
0.10608478802992519,0.008055488130882716,
0.10613466334164588,0.015157344676480583,
0.10618453865336658,0.01970604606046381,
0.10623441396508729,-0.004819600201349164,
0.10628428927680798,0.010936579655509917,
0.10633416458852868,-0.026664048881762707,
0.10638403990024937,-0.019391232967156433,
0.10643391521197007,0.025605558609293318,
0.10648379052369077,0.021932205843332848,
0.10653366583541148,-0.0018806908056084543,
0.10658354114713217,-0.00583391414664666,
0.10663341645885287,-0.004118202211059584,
0.10668329177057356,0.01390254757583831,
0.10673316708229426,-0.016586902377997585,
0.10678304239401497,0.007873082724916382,
0.10683291770573566,0.007192706476790562,
0.10688279301745636,0.00299399505432879,
0.10693266832917706,-0.012230278634966226,
0.10698254364089775,-0.014905440668206402,
0.10703241895261846,0.0019724912723332244,
0.10708229426433916,0.004918782045770448,
0.10713216957605985,-0.003915124750724257,
0.10718204488778055,-0.013980743882303833,
0.10723192019950124,-0.0011438599599171233,
0.10728179551122194,-0.00037719886606434657,
0.10733167082294265,0.005140997923908808,
0.10738154613466334,0.00036018278544030623,
0.10743142144638404,-0.019751469938808393,
0.10748129675810474,0.0011896366576543823,
0.10753117206982543,-0.021492510786589456,
0.10758104738154614,-0.016086231724664217,
0.10763092269326684,-0.007009448084504677,
0.10768079800498753,0.01056515100108034,
0.10773067331670823,-0.018523058692772577,
0.10778054862842892,-0.012067005729136132,
0.10783042394014962,-0.023463250704673942,
0.10788029925187033,0.015886923631834783,
0.10793017456359102,0.0025269407221533997,
0.10798004987531172,-0.029554826622979286,
0.10802992518703242,-0.03509107034706502,
0.10807980049875311,0.013907788702194668,
0.10812967581047382,0.007614935683492684,
0.10817955112219452,0.017767358043175585,
0.10822942643391521,-0.008933162737871226,
0.10827930174563591,0.016690424946196544,
0.1083291770573566,-0.013336137036560143,
0.1083790523690773,-0.005225666115605727,
0.10842892768079801,-0.01640672205729741,
0.1084788029925187,0.025248657344040932,
0.1085286783042394,0.015233430299372455,
0.1085785536159601,-0.011758611330976625,
0.10862842892768079,-0.002253352161745526,
0.1086783042394015,-0.0121691200617239,
0.1087281795511222,0.006938768342713996,
0.1087780548628429,0.011655870263509482,
0.10882793017456359,-0.018154514634110552,
0.10887780548628428,0.006655258945551728,
0.108927680798005,-0.04274277100943637,
0.10897755610972569,-0.023223691279705323,
0.10902743142144639,-0.0011510055112221463,
0.10907730673316708,-0.026407098922556944,
0.10912718204488778,-0.017261206133380017,
0.10917705735660847,-0.003890594143991643,
0.10922693266832918,0.014630721794936925,
0.10927680798004988,0.006715472870599022,
0.10932668329177057,0.006823522083712752,
0.10937655860349127,-0.010738449292633139,
0.10942643391521197,0.001508260676776287,
0.10947630922693267,-0.020884800953786226,
0.10952618453865337,-0.011356752823645492,
0.10957605985037407,-0.009525147467300373,
0.10962593516209476,-0.003027586719490421,
0.10967581047381546,-0.003844241583221774,
0.10972568578553615,0.006323429727153768,
0.10977556109725686,0.005873359381274076,
0.10982543640897756,0.014394067807221553,
0.10987531172069825,-0.032280336906800766,
0.10992518703241895,0.008283461475339428,
0.10997506234413965,-0.0015164025047302802,
0.11002493765586036,0.013900225953800019,
0.11007481296758105,-0.02051895343107894,
0.11012468827930175,0.0050886852383494295,
0.11017456359102244,-0.003188585142840969,
0.11022443890274314,-0.009098495827858861,
0.11027431421446383,-0.01699016844810797,
0.11032418952618454,0.005079839220726351,
0.11037406483790524,-0.016659519387060395,
0.11042394014962593,-0.020775954748346787,
0.11047381546134663,-0.018381402376969377,
0.11052369077306733,-0.0259778226901599,
0.11057356608478804,-0.01174725007084638,
0.11062344139650873,-0.035334340917753525,
0.11067331670822943,0.002836499552464969,
0.11072319201995012,-0.002434654142931831,
0.11077306733167082,-0.01434124548027476,
0.11082294264339151,-0.024155362640725757,
0.11087281795511222,0.0012264493035545887,
0.11092269326683292,-0.03265316019217587,
0.11097256857855362,-0.005810227045124806,
0.11102244389027431,-0.005574336140040752,
0.111072319201995,0.01237840150735273,
0.11112219451371572,4.3468305985921996e-05,
0.11117206982543641,-0.011882817114614431,
0.11122194513715711,-0.002049652809477191,
0.1112718204488778,-0.03305953730673316,
0.1113216957605985,-0.050060723606371677,
0.11137157107231921,0.0019755337927381857,
0.1114214463840399,0.0004428419454109364,
0.1114713216957606,-0.015415006696531217,
0.1115211970074813,-0.04975122210521618,
0.11157107231920199,0.006592934364192707,
0.11162094763092269,0.004292900504847827,
0.1116708229426434,-0.03591997699586722,
0.11172069825436409,-0.010313566434159491,
0.11177057356608479,-0.003323624923359557,
0.11182044887780548,-0.01235601627499584,
0.11187032418952618,-0.022035652104062324,
0.11192019950124689,-0.015203651003098687,
0.11197007481296758,-0.014930918357157402,
0.11201995012468828,-0.009449694814882701,
0.11206982543640898,-0.01828359134622949,
0.11211970074812967,-0.006179570285628067,
0.11216957605985037,0.00029385850667152866,
0.11221945137157108,0.00395271510049959,
0.11226932668329177,0.00013795457782797126,
0.11231920199501247,-0.026567021935438147,
0.11236907730673316,-0.01853633862401532,
0.11241895261845386,-0.020069483111733386,
0.11246882793017457,-0.01621756217464613,
0.11251870324189527,-0.018909945824685474,
0.11256857855361596,-0.012999354129826187,
0.11261845386533666,-0.012787560763464389,
0.11266832917705735,-0.007095313701714371,
0.11271820448877805,-0.005472639913712801,
0.11276807980049876,-0.026504439539434634,
0.11281795511221945,0.022450988724748988,
0.11286783042394015,-0.00557098662920903,
0.11291770573566084,0.005183930653661713,
0.11296758104738154,-0.007131024580944522,
0.11301745635910225,0.014862648798775253,
0.11306733167082295,-0.004913038565264838,
0.11311720698254364,-0.0069717315535995136,
0.11316708229426434,-0.009147418735816575,
0.11321695760598503,0.010667210253128296,
0.11326683291770574,-0.006961275170802653,
0.11331670822942644,0.013867236474469207,
0.11336658354114713,0.020480586845502836,
0.11341645885286783,0.01002834002256027,
0.11346633416458853,-0.010789530531626745,
0.11351620947630922,-0.01978289787194032,
0.11356608478802993,0.014505180852787883,
0.11361596009975063,-0.0012575822219460064,
0.11366583541147132,-0.03969857449706721,
0.11371571072319202,0.01916709886361319,
0.11376558603491271,0.026840682231112585,
0.11381546134663342,0.004254846783919098,
0.11386533665835412,-0.003299666905083314,
0.11391521197007481,0.005288213779722728,
0.11396508728179551,0.025616170525037375,
0.1140149625935162,-0.01740531100946576,
0.1140648379052369,0.004794986722041416,
0.11411471321695761,0.019448969167643108,
0.1141645885286783,-0.012170142265446979,
0.114214463840399,0.004447259785830324,
0.1142643391521197,-0.0033800947551783566,
0.1143142144638404,0.018625415916428998,
0.1143640897755611,0.0060651368469841534,
0.1144139650872818,0.008171558912003368,
0.1144638403990025,0.0012802825712323706,
0.11451371571072319,0.012096151712273087,
0.11456359102244389,-0.013332521823961009,
0.11461346633416458,0.004497932581267033,
0.11466334164588529,0.021873988336240973,
0.11471321695760599,0.003808872938133169,
0.11476309226932668,-0.0018031511086055163,
0.11481296758104738,-0.0032880531149288702,
0.11486284289276807,0.02790619809156609,
0.11491271820448878,0.011608405145432942,
0.11496259351620948,0.013294323927109941,
0.11501246882793018,0.023403037612974,
0.11506234413965087,0.012624207502204195,
0.11511221945137157,0.0024305355793920198,
0.11516209476309226,0.0016493400718997804,
0.11521197007481297,-0.017510463896201936,
0.11526184538653367,-0.003286979860068767,
0.11531172069825436,-0.011007811674308036,
0.11536159600997506,-0.005523390737679148,
0.11541147132169575,-0.011350726171552113,
0.11546134663341646,-0.010492611523128902,
0.11551122194513716,0.02257932916186088,
0.11556109725685786,0.010572675920275783,
0.11561097256857855,0.026597931245172825,
0.11566084788029925,0.007139585992349162,
0.11571072319201996,0.00322268246324435,
0.11576059850374065,0.016945917599948047,
0.11581047381546135,0.012029248871109764,
0.11586034912718204,0.004682711750093977,
0.11591022443890274,0.01663847782275272,
0.11596009975062344,0.022072992495132126,
0.11600997506234415,-0.01920969477901298,
0.11605985037406484,0.027874347301473937,
0.11610972568578554,0.003613110935064997,
0.11615960099750623,0.027255169513622647,
0.11620947630922693,0.023190215021987544,
0.11625935162094764,0.009486361739440334,
0.11630922693266833,-0.021660877514947614,
0.11635910224438903,-0.0012294195086278263,
0.11640897755610972,0.027024827047840726,
0.11645885286783042,-0.004469087040465305,
0.11650872817955112,-0.017944824696706222,
0.11655860349127183,-0.006471143272986424,
0.11660847880299252,0.02827376965650282,
0.11665835411471322,0.02477033277963698,
0.11670822942643391,0.024160268418835576,
0.11675810473815461,0.027205540616711023,
0.11680798004987532,0.016730345190137826,
0.11685785536159601,0.01639075904646402,
0.11690773067331671,0.012059967343193215,
0.1169576059850374,0.01428551342041438,
0.1170074812967581,0.007833512325732624,
0.1170573566084788,0.03264317725284527,
0.1171072319201995,0.018644907000904303,
0.1171571072319202,0.051126896671992016,
0.1172069825436409,0.015739191864878058,
0.1172568578553616,0.0010275921343844314,
0.11730673316708229,0.03336561299427286,
0.117356608478803,0.018902948250036626,
0.1174064837905237,0.004345664186235491,
0.11745635910224439,0.02598271183150208,
0.11750623441396509,0.015670456278260497,
0.11755610972568578,0.0197187429419071,
0.11760598503740648,0.02329082820206578,
0.11765586034912719,0.008034787582040006,
0.11770573566084788,0.0073202556715210865,
0.11775561097256858,0.03430212765363472,
0.11780548628428927,0.01931805492272131,
0.11785536159600997,0.04902021877997857,
0.11790523690773068,0.001807576597020348,
0.11795511221945137,0.01954194638262702,
0.11800498753117207,0.01031202091898405,
0.11805486284289277,0.04499667239477266,
0.11810473815461346,-0.006595869276955671,
0.11815461346633417,0.040268718431225,
0.11820448877805487,0.018684895320745402,
0.11825436408977556,0.036325743871192,
0.11830423940149626,0.03794998206840309,
0.11835411471321695,0.0468786125052574,
0.11840399002493765,0.027436310617953975,
0.11845386533665836,0.026119842463431034,
0.11850374064837906,0.022980141649226158,
0.11855361596009975,0.014769280040472418,
0.11860349127182045,0.03250234798189783,
0.11865336658354114,0.0371504956520663,
0.11870324189526185,0.019511033561411664,
0.11875311720698255,0.0296318357879094,
0.11880299251870324,0.028357852192249507,
0.11885286783042394,0.02721411243400143,
0.11890274314214463,0.024537192871015943,
0.11895261845386533,0.030188307059264917,
0.11900249376558604,0.01327280806886791,
0.11905236907730674,0.03983014942903861,
0.11910224438902743,0.05059614512512377,
0.11915211970074813,0.06514308248692556,
0.11920199501246882,0.0460306159347537,
0.11925187032418953,0.0023555200087620465,
0.11930174563591023,0.043303603784457065,
0.11935162094763092,0.04303294106585553,
0.11940149625935162,-0.0004454558864005892,
0.11945137157107232,0.027953667035071062,
0.11950124688279301,0.02642602577747831,
0.11955112219451372,0.05029042132992797,
0.11960099750623442,0.04984175587597858,
0.11965087281795511,0.030793300885171664,
0.11970074812967581,-0.007050385408376526,
0.1197506234413965,0.050550361711094505,
0.11980049875311721,0.028086439186143973,
0.11985037406483791,-0.002796254639144208,
0.1199002493765586,0.030330857499292253,
0.1199501246882793,0.029839678090717737,
0.12,0.025630998179101295,
0.1200498753117207,0.05333941036676465,
0.1200997506234414,0.026832872979584713,
0.1201496259351621,0.04837547842601167,
0.12019950124688279,0.00899844680354131,
0.12024937655860349,0.018733790773668102,
0.12029925187032418,0.04917557268906465,
0.1203491271820449,0.01843520539706199,
0.12039900249376559,-0.003077769965366059,
0.12044887780548628,0.015577220123951995,
0.12049875311720698,0.03168900696970225,
0.12054862842892768,0.015128222066191934,
0.12059850374064839,0.04318056731932471,
0.12064837905236908,0.022004380279684654,
0.12069825436408978,0.03804726642141153,
0.12074812967581047,0.054265019440294784,
0.12079800498753117,0.02371657988329494,
0.12084788029925186,0.0349383069239248,
0.12089775561097257,0.02770776633029687,
0.12094763092269327,0.02084534723526104,
0.12099750623441397,0.02638768385275695,
0.12104738154613466,0.01699538693210663,
0.12109725685785536,0.06684638646797786,
0.12114713216957607,0.03184090962544661,
0.12119700748129676,0.042665584869255674,
0.12124688279301746,0.04140896143764386,
0.12129675810473815,0.05098882596490546,
0.12134663341645885,0.0398190269735995,
0.12139650872817954,0.02316065506204002,
0.12144638403990025,0.04075479734359561,
0.12149625935162095,0.04974412798959261,
0.12154613466334165,0.041969815690770795,
0.12159600997506234,0.01998994929270824,
0.12164588528678304,0.022622677242233605,
0.12169576059850375,0.027076042036754372,
0.12174563591022444,0.0067324694114679895,
0.12179551122194514,0.009243741996309254,
0.12184538653366583,0.02153027196454004,
0.12189526184538653,0.0155222625562475,
0.12194513715710723,0.04771323288642835,
0.12199501246882793,0.051305584437409416,
0.12204488778054863,0.03246167313252889,
0.12209476309226933,0.019975029650695527,
0.12214463840399002,0.01893178364580345,
0.12219451371571072,0.026993644377463405,
0.12224438902743143,0.043386374206012907,
0.12229426433915212,0.03457964646608051,
0.12234413965087282,0.03446625312961277,
0.12239401496259351,0.023815330879541248,
0.12244389027431421,0.0006022183032247837,
0.12249376558603492,0.03809746164135482,
0.12254364089775562,0.02584574684586352,
0.12259351620947631,-0.004569610462477284,
0.122643391521197,0.05721463639186833,
0.1226932668329177,0.023299564264334004,
0.1227431421446384,0.01402391723819569,
0.12279301745635911,0.010994747666761976,
0.1228428927680798,0.006382167792957635,
0.1228927680798005,0.015310738198516707,
0.1229426433915212,0.04035196824724703,
0.12299251870324189,0.022429311825294,
0.1230423940149626,0.014848226142546477,
0.1230922693266833,0.016617018984781906,
0.12314214463840399,0.02276378736377657,
0.12319201995012469,0.0008349613325187855,
0.12324189526184538,0.01687204839077299,
0.12329177057356608,0.02900775523810605,
0.12334164588528679,0.03587051972815926,
0.12339152119700748,0.024519670446074643,
0.12344139650872818,0.029626605940383625,
0.12349127182044888,0.017479902878403966,
0.12354114713216957,0.032698360960909265,
0.12359102244389028,0.019521128164793827,
0.12364089775561098,0.011580288182406497,
0.12369077306733167,0.022094846380430758,
0.12374064837905237,0.028162519834442797,
0.12379052369077306,0.03180688057393469,
0.12384039900249376,0.004925817709623406,
0.12389027431421447,0.007996729243209095,
0.12394014962593516,0.01964357206973041,
0.12399002493765586,0.008065873879837529,
0.12403990024937656,-0.005337493751296482,
0.12408977556109725,0.01060328571029179,
0.12413965087281796,0.027606727911046305,
0.12418952618453866,-0.0020206866146411824,
0.12423940149625935,0.03759964408826766,
0.12428927680798005,-0.0029389564013604964,
0.12433915211970074,-0.015697462957802152,
0.12438902743142144,0.03436271933069064,
0.12443890274314215,0.006550346235933707,
0.12448877805486284,0.0230397616163526,
0.12453865336658354,0.012387021090345373,
0.12458852867830424,0.017704658212255923,
0.12463840399002493,0.020996044385589465,
0.12468827930174564,0.009351081989490218,
0.12473815461346634,0.012140449933986065,
0.12478802992518703,0.013959679248373576,
0.12483790523690773,-0.01979363032958944,
0.12488778054862842,0.01513195725514465,
0.12493765586034913,0.006137120789367336,
0.12498753117206983,0.031593377173899276,
0.12503740648379053,0.03044085208128526,
0.12508728179551123,0.007098435705480259,
0.12513715710723192,0.014321657813829054,
0.12518703241895263,-0.021643241776061254,
0.1252369077306733,0.016212224024645817,
0.12528678304239402,0.016397015571183025,
0.1253366583541147,0.012736749198156223,
0.1253865336658354,0.0063309400518617494,
0.12543640897755612,0.010891769932076405,
0.1254862842892768,0.014337091657018556,
0.1255361596009975,0.01355538082524439,
0.1255860349127182,0.012983225878420844,
0.1256359102244389,-0.0014408238734406331,
0.1256857855361596,0.019268046197365607,
0.1257356608478803,0.012039401257324278,
0.125785536159601,0.005203395414038284,
0.12583541147132168,-0.002597215496704469,
0.1258852867830424,0.03146736791368221,
0.1259351620947631,0.0427809992190041,
0.12598503740648379,0.01998997535126916,
0.1260349127182045,0.0021415152539870077,
0.12608478802992518,-0.0006671535032612566,
0.1261346633416459,-0.02277176240400456,
0.1261845386533666,0.021223423345587918,
0.12623441396508728,-0.035132024809686926,
0.126284289276808,0.021150408729369012,
0.12633416458852867,0.005820502664349563,
0.12638403990024938,-0.012386944652255507,
0.1264339152119701,0.003123199389261204,
0.12648379052369077,0.026491689450482244,
0.12653366583541148,-0.0003979677353590928,
0.12658354114713216,-0.01571754967223607,
0.12663341645885287,0.00023953332560033922,
0.12668329177057355,0.022863856048345857,
0.12673316708229426,-0.005305470812527425,
0.12678304239401497,0.00394372093727414,
0.12683291770573565,0.0008219150593086798,
0.12688279301745636,0.0017931701639739067,
0.12693266832917705,0.01804341398834404,
0.12698254364089775,0.005197589498521331,
0.12703241895261846,0.01903163879521822,
0.12708229426433915,0.007489546833093084,
0.12713216957605986,0.01613193458405776,
0.12718204488778054,0.020828673182835634,
0.12723192019950125,-0.01435851082465139,
0.12728179551122196,0.020251664889357403,
0.12733167082294264,-0.040579236068251784,
0.12738154613466335,-0.0052702509888227726,
0.12743142144638403,-0.006732705259666789,
0.12748129675810474,0.0030959401621604337,
0.12753117206982545,-0.006995814226754403,
0.12758104738154613,-0.001996912640160822,
0.12763092269326684,0.005494956961795439,
0.12768079800498752,0.009496999184277405,
0.12773067331670823,-0.027963127513987985,
0.1277805486284289,-0.02639075404247474,
0.12783042394014962,-0.021739161276031396,
0.12788029925187033,-0.028086078900711853,
0.12793017456359101,0.03388957199930047,
0.12798004987531172,0.001915726508475669,
0.1280299251870324,-0.0028738737954780644,
0.12807980049875312,0.0024375567436214565,
0.12812967581047383,0.02254188043698052,
0.1281795511221945,0.019001393161671466,
0.12822942643391522,-0.005290783822185668,
0.1282793017456359,-0.0014776745701481561,
0.1283291770573566,0.006915012330805057,
0.12837905236907732,-0.03534376254716484,
0.128428927680798,0.005862350165422284,
0.1284788029925187,0.011204356644261136,
0.1285286783042394,-0.03366253295713208,
0.1285785536159601,-0.006925106156696906,
0.1286284289276808,0.015448194542816521,
0.1286783042394015,0.0057286183828570685,
0.1287281795511222,-0.012753043920118357,
0.12877805486284288,-0.001964437650571525,
0.1288279301745636,0.003567642718530096,
0.1288778054862843,-0.01640036528452244,
0.12892768079800498,-0.0046416279525436505,
0.1289775561097257,-0.002875922251377068,
0.12902743142144638,0.013422766857322898,
0.12907730673316709,0.008243981829848184,
0.12912718204488777,0.001463726973918611,
0.12917705735660848,-0.02314964389969681,
0.1292269326683292,-0.004252009084369772,
0.12927680798004987,-0.028831348667324674,
0.12932668329177058,0.001100862429220157,
0.12937655860349126,-0.00969773397453894,
0.12942643391521197,-0.015194231396628302,
0.12947630922693268,0.004939687421602626,
0.12952618453865336,-0.008131397578187989,
0.12957605985037407,-0.022498281010397837,
0.12962593516209475,-0.01061856871256333,
0.12967581047381546,-0.0013155598919622584,
0.12972568578553617,-0.0043526913133948774,
0.12977556109725685,-0.003068254860963247,
0.12982543640897756,-0.025446371396140643,
0.12987531172069824,-0.015554120870263654,
0.12992518703241895,0.0055667651653104906,
0.12997506234413966,0.001265881348273554,
0.13002493765586035,0.00219022937248382,
0.13007481296758105,-0.005408346868278454,
0.13012468827930174,-0.021160951078257342,
0.13017456359102245,-0.025693920614810815,
0.13022443890274316,-0.012709781596786781,
0.13027431421446384,0.009672455719174392,
0.13032418952618455,-0.014599544038892513,
0.13037406483790523,0.013213527050006382,
0.13042394014962594,-0.011379816592513978,
0.13047381546134662,-0.011699232545296877,
0.13052369077306733,0.014682944011875242,
0.13057356608478804,0.01049125474560462,
0.13062344139650872,-0.004431750617403737,
0.13067331670822943,-0.004227596391282584,
0.1307231920199501,-0.03012193609241514,
0.13077306733167082,-0.0005060515418399848,
0.13082294264339153,-0.016310946109048347,
0.13087281795511221,-0.025695798134864042,
0.13092269326683292,-0.011228157634931525,
0.1309725685785536,0.005479541807361578,
0.13102244389027431,0.0035578491546028393,
0.13107231920199502,-0.020354920971935673,
0.1311221945137157,-0.01384991451693552,
0.13117206982543642,-0.00913646481226144,
0.1312219451371571,0.02863472048183161,
0.1312718204488778,-0.017602246016900726,
0.13132169576059852,0.0046501755520178215,
0.1313715710723192,-0.03138179048888166,
0.1314214463840399,-0.007173985693723494,
0.1314713216957606,-0.008027822536086165,
0.1315211970074813,-0.030761352820171325,
0.13157107231920198,-0.0028496797575533767,
0.1316209476309227,0.004764583886401528,
0.1316708229426434,-0.003039024707916293,
0.13172069825436408,-0.008245315826551922,
0.1317705735660848,-0.016810412512686213,
0.13182044887780547,-0.014918381412990789,
0.13187032418952618,0.03086577605473869,
0.1319201995012469,-1.5574298311467512e-05,
0.13197007481296757,-0.02787655296891016,
0.13201995012468828,-0.009891712490832084,
0.13206982543640897,-0.00804018343450019,
0.13211970074812968,0.0008247140254040893,
0.13216957605985039,-0.028189921403752045,
0.13221945137157107,-0.006059713009884316,
0.13226932668329178,-0.0015732337981353775,
0.13231920199501246,-0.012702616630821912,
0.13236907730673317,-0.008334417930076946,
0.13241895261845388,-0.00567259662589117,
0.13246882793017456,-0.012586520080203546,
0.13251870324189527,-0.0011178773592818688,
0.13256857855361595,-0.006881008158278886,
0.13261845386533666,-0.0019018249703396423,
0.13266832917705737,-0.01320117406005915,
0.13271820448877805,0.022377775708922,
0.13276807980049876,-0.007134741220785685,
0.13281795511221944,-0.009199810790365592,
0.13286783042394015,-0.007738779297602223,
0.13291770573566083,0.004892678634846194,
0.13296758104738154,0.006834403045519303,
0.13301745635910225,-0.015793513041196392,
0.13306733167082294,-0.013606300127382696,
0.13311720698254365,-0.020261245348233474,
0.13316708229426433,0.014706540073379232,
0.13321695760598504,-0.006567780176456183,
0.13326683291770575,0.010783471550351325,
0.13331670822942643,0.026718316279525478,
0.13336658354114714,-0.009626160118457268,
0.13341645885286782,-0.019672942218188258,
0.13346633416458853,-0.013058166675817906,
0.13351620947630924,-0.021110676114929283,
0.13356608478802992,0.010118919882696368,
0.13361596009975063,-0.009248186079152293,
0.1336658354114713,-0.004240166558613685,
0.13371571072319202,-0.017841679282995182,
0.13376558603491273,-0.014561172326619482,
0.1338154613466334,-0.018465733553318917,
0.13386533665835412,-0.00036694034715655964,
0.1339152119700748,0.026257569030798393,
0.13396508728179551,0.004876113388228794,
0.1340149625935162,0.002487324947440938,
0.1340648379052369,-0.010761518145473938,
0.13411471321695762,0.025908112365185424,
0.1341645885286783,-0.012407926292526943,
0.134214463840399,-0.002576751034561311,
0.1342643391521197,0.005933539005482674,
0.1343142144638404,0.014417789475091525,
0.1343640897755611,0.003826723232972704,
0.1344139650872818,0.015823869383179125,
0.1344638403990025,-0.009313922149996393,
0.13451371571072318,0.011530137436688905,
0.1345635910224439,0.02493058761044883,
0.1346134663341646,0.011891317334067661,
0.13466334164588528,-0.014069040454708248,
0.134713216957606,0.015390897158924508,
0.13476309226932667,0.009956636023037547,
0.13481296758104738,0.005824576494847664,
0.1348628428927681,0.029825407962673627,
0.13491271820448877,0.008657800390714175,
0.13496259351620948,0.025126883361218152,
0.13501246882793017,0.024155691045180245,
0.13506234413965088,0.002958531517099827,
0.13511221945137158,0.003599012737733732,
0.13516209476309227,0.005488607257744394,
0.13521197007481298,-0.005881498169437335,
0.13526184538653366,0.012372657224739625,
0.13531172069825437,0.03285810429470328,
0.13536159600997505,-0.023410837429321114,
0.13541147132169576,-0.002604318304785193,
0.13546134663341647,0.009778051720494422,
0.13551122194513715,0.008356228309059658,
0.13556109725685786,-0.012863032126704345,
0.13561097256857854,0.0275454808014671,
0.13566084788029925,0.017771737229346392,
0.13571072319201996,0.023492112410313345,
0.13576059850374064,0.03926740039225895,
0.13581047381546135,-0.013838527741122248,
0.13586034912718203,0.023710675896585542,
0.13591022443890274,0.03159335088954035,
0.13596009975062345,0.00800529729091706,
0.13600997506234414,0.018828840449496367,
0.13605985037406484,0.015207424205566434,
0.13610972568578553,0.012684174682906063,
0.13615960099750624,0.02826779179117489,
0.13620947630922695,0.018386228005628075,
0.13625935162094763,0.00041694736952027286,
0.13630922693266834,0.023767500757431642,
0.13635910224438902,0.01820351790062698,
0.13640897755610973,0.03460401309136846,
0.1364588528678304,0.0006574535207090823,
0.13650872817955112,0.013492137531909086,
0.13655860349127183,0.012361868775977218,
0.1366084788029925,0.017066848941853698,
0.13665835411471322,0.038654316564832626,
0.1367082294264339,0.0046654397682186835,
0.1367581047381546,0.015680807740914196,
0.13680798004987532,0.028394689872539833,
0.136857855361596,-0.009978802055672583,
0.1369077306733167,0.03728553607913818,
0.1369576059850374,0.050451791336497125,
0.1370074812967581,-0.0013064720315401485,
0.13705735660847881,0.006183018655279282,
0.1371072319201995,-0.013653430945386284,
0.1371571072319202,0.0022764916681857206,
0.1372069825436409,0.011283092520577426,
0.1372568578553616,0.027224654305849798,
0.1373067331670823,0.025817852104153702,
0.137356608478803,0.006586973733347309,
0.1374064837905237,0.018397138079590758,
0.13745635910224438,0.039476922450153766,
0.1375062344139651,0.010732913899235027,
0.1375561097256858,0.032173380906768204,
0.13760598503740648,0.026924895569245138,
0.1376558603491272,0.007446361678784829,
0.13770573566084787,0.028110646041917143,
0.13775561097256858,0.018610801749603802,
0.13780548628428926,0.026154845982681137,
0.13785536159600997,0.03370805504035407,
0.13790523690773068,0.03604607789531818,
0.13795511221945136,0.024152559906364755,
0.13800498753117207,0.013024613702991189,
0.13805486284289276,0.049274019182709294,
0.13810473815461347,0.03284755197752502,
0.13815461346633418,0.027958363237382794,
0.13820448877805486,0.023262394093850423,
0.13825436408977557,0.016767606541421603,
0.13830423940149625,0.04696947428717502,
0.13835411471321696,0.012652139400942774,
0.13840399002493767,0.023628421258109374,
0.13845386533665835,0.05347531775843417,
0.13850374064837906,0.04904804963478695,
0.13855361596009974,0.0664694304203001,
0.13860349127182045,0.014105292450056685,
0.13865336658354116,0.026897996325311056,
0.13870324189526184,0.03245302010837184,
0.13875311720698255,0.028633384482109024,
0.13880299251870323,0.041173550302607394,
0.13885286783042394,0.03461411138859078,
0.13890274314214462,0.04286099615456225,
0.13895261845386533,0.011067347938949326,
0.13900249376558604,0.03446223548593856,
0.13905236907730673,0.05572935554537619,
0.13910224438902744,0.04714434074178595,
0.13915211970074812,0.06708108698865697,
0.13920199501246883,0.05593238924884231,
0.13925187032418954,0.005490179548082244,
0.13930174563591022,0.03628875372343981,
0.13935162094763093,0.031096550009901885,
0.1394014962593516,0.031472393228189066,
0.13945137157107232,0.02774583078690655,
0.13950124688279303,0.02568945585158746,
0.1395511221945137,0.031081480515393473,
0.13960099750623442,0.032823936806392784,
0.1396508728179551,0.052303951633679305,
0.1397007481296758,0.02600788606050506,
0.13975062344139652,0.052243182583638914,
0.1398004987531172,0.03857326700579494,
0.1398503740648379,0.05357042943186413,
0.1399002493765586,0.017140790372242455,
0.1399501246882793,0.05230575845838821,
0.14,0.015430720621463327,
0.1400498753117207,0.016236871078348234,
0.1400997506234414,0.03327384231669861,
0.1401496259351621,0.029635201696761194,
0.1401995012468828,0.06841159927852074,
0.14024937655860348,0.038419592542748106,
0.1402992518703242,0.042127448584077375,
0.1403491271820449,0.035265972990924765,
0.14039900249376558,0.037487482592577274,
0.1404488778054863,0.04463878873590676,
0.14049875311720697,0.03773470431638323,
0.14054862842892768,0.020297516335521074,
0.1405985037406484,0.01987285882389949,
0.14064837905236907,0.04039259464298853,
0.14069825436408978,0.0464739231100248,
0.14074812967581046,0.04378766136426179,
0.14079800498753117,0.04646022832691493,
0.14084788029925188,0.007456461541644085,
0.14089775561097256,0.04081142871198048,
0.14094763092269327,0.03025595756864656,
0.14099750623441396,0.042163771765811174,
0.14104738154613466,0.020652522906919043,
0.14109725685785537,0.04921694471126706,
0.14114713216957606,0.05779046471343789,
0.14119700748129677,0.04188135142080942,
0.14124688279301745,0.02752442145821673,
0.14129675810473816,0.028478430302290227,
0.14134663341645887,0.021910314309152735,
