time,amplitude,label
0.0,0.05770591754317477,
4.987531172069826e-05,0.049414495018748505,
9.975062344139652e-05,0.03507584131646612,
0.00014962593516209475,0.031122009319362286,
0.00019950124688279303,0.033182068710606694,
0.00024937655860349125,0.019194976646931743,
0.0002992518703241895,0.033433231478459724,
0.00034912718204488776,0.021397046333007125,
0.00039900249376558606,0.027899597421902723,
0.0004488778054862843,0.024508815494977895,
0.0004987531172069825,0.015076840311612593,
0.0005486284289276808,0.011141200275279513,
0.000598503740648379,0.04942222278721077,
0.0006483790523690773,0.042873738878919,
0.0006982543640897755,0.04578702616118392,
0.0007481296758104738,0.014877068836572242,
0.0007980049875311721,0.023382170200851718,
0.0008478802992518703,0.021995596477998276,
0.0008977556109725686,0.026574665193888326,
0.0009476309226932668,0.0055338343075454054,
0.000997506234413965,0.030202831659111293,
0.0010473815461346633,0.024602839474038452,
0.0010972568578553616,0.007297001207562848,
0.00114713216957606,0.046958025773998574,
0.001197007481296758,0.017339133013098845,
0.0012468827930174563,0.009480812014255793,
0.0012967581047381546,0.011641243755143428,
0.001346633416458853,0.004595442053941469,
0.001396508728179551,0.011019195493671299,
0.0014463840399002493,0.02520917539216884,
0.0014962593516209476,0.02585427757322594,
0.001546134663341646,0.0554499207532118,
0.0015960099750623442,0.01692577935074732,
0.0016458852867830423,-0.0012119278885481602,
0.0016957605985037406,0.017369284189537613,
0.001745635910224439,0.05667276168324523,
0.0017955112219451373,0.02592697249198437,
0.0018453865336658353,0.010447368480910754,
0.0018952618453865336,0.015455561618512565,
0.001945137157107232,0.018745155335229628,
0.00199501246882793,0.03301885833858756,
0.0020448877805486283,0.021664726517133283,
0.0020947630922693266,0.018485045775115998,
0.002144638403990025,0.042953216482326376,
0.0021945137157107233,0.03536533835299378,
0.0022443890274314216,-0.0074741722719346496,
0.00229426433915212,0.020798318569006206,
0.0023441396508728177,0.014664474985660106,
0.002394014962593516,0.01582098816197643,
0.0024438902743142144,-0.002040387718050384,
0.0024937655860349127,0.009676519709836299,
0.002543640897755611,0.016149808339009614,
0.0025935162094763093,0.0037168961401500694,
0.0026433915211970076,0.04311008387530461,
0.002693266832917706,0.008465826984325523,
0.002743142144638404,0.03206920731627417,
0.002793017456359102,0.0285308204214045,
0.0028428927680798004,0.015461713502158622,
0.0028927680798004987,0.020918088517337022,
0.002942643391521197,9.442574534427803e-05,
0.0029925187032418953,0.02677187933026121,
0.0030423940149625936,0.013985978593820812,
0.003092269326683292,0.003739026266174188,
0.00314214463840399,0.014251355026818216,
0.0031920199501246885,0.01622678211243568,
0.0032418952618453864,0.02000372825314526,
0.0032917705735660847,-0.014707988610446478,
0.003341645885286783,0.04665255952222433,
0.0033915211970074813,0.027240035557057847,
0.0034413965087281796,0.008846570603308977,
0.003491271820448878,0.023717843618307338,
0.003541147132169576,0.010150612981108798,
0.0035910224438902745,0.005235917170154953,
0.0036408977556109724,0.011685761418288866,
0.0036907730673316707,0.0288608566170296,
0.003740648379052369,0.010282161965409778,
0.0037905236907730673,-0.014171993320475362,
0.0038403990024937656,0.008902059975518012,
0.003890274314214464,-0.00840711013727513,
0.003940149625935162,0.040681872677269366,
0.00399002493765586,0.021217366429166433,
0.004039900249376558,0.018077176162615255,
0.004089775561097257,0.023431947405042237,
0.004139650872817955,0.019716019706833003,
0.004189526184538653,0.0032831257474673177,
0.004239401496259352,0.002485721690124114,
0.00428927680798005,-0.002128977731124519,
0.004339152119700748,0.015186800688614067,
0.0043890274314214465,0.017852207935819066,
0.004438902743142145,0.012461758165483464,
0.004488778054862843,0.012854332354247584,
0.004538653366583541,-0.011789123288493877,
0.00458852867830424,0.015088529585121888,
0.004638403990024938,-0.011145181087993238,
0.0046882793017456355,0.0072099631492025884,
0.004738154613466334,-0.0096532443710232,
0.004788029925187032,0.021803806975316732,
0.00483790523690773,0.01574406200517995,
0.004887780548628429,-0.008452993276155306,
0.004937655860349127,-0.022656188322389144,
0.004987531172069825,0.01470359927795236,
0.005037406483790524,-0.0014042086291463976,
0.005087281795511222,0.0022375672497415584,
0.00513715710723192,-0.002825197155256671,
0.0051870324189526185,0.005102937153708858,
0.005236907730673317,-0.013743237294612435,
0.005286783042394015,-0.0055417888005771165,
0.0053366583541147134,0.008467928929214552,
0.005386533665835412,0.003515350474154621,
0.00543640897755611,-0.008194368722192558,
0.005486284289276808,0.0006588940977815124,
0.005536159600997507,0.016189946921494527,
0.005586034912718204,-0.0194922309758535,
0.005635910224438902,0.015125965367395999,
0.005685785536159601,0.002449348536219294,
0.005735660847880299,-0.036730202072114124,
0.005785536159600997,-0.003833522288743592,
0.005835411471321696,0.008328433584665942,
0.005885286783042394,-0.00835966655726176,
0.005935162094763092,-0.01294586850990059,
0.0059850374064837905,-0.009234350726036662,
0.006034912718204489,-0.030091066464418975,
0.006084788029925187,-0.02555882426871728,
0.0061346633416458855,-0.013626916126511783,
0.006184538653366584,-0.0038745676238019088,
0.006234413965087282,-0.013434665937020486,
0.00628428927680798,0.011753654886281661,
0.006334164588528679,-0.011240991666197818,
0.006384039900249377,-0.011665313632363991,
0.006433915211970074,0.012589250496864459,
0.006483790523690773,-0.0007794084893978561,
0.006533665835411471,-0.006259988993453405,
0.006583541147132169,-0.004256006346066876,
0.006633416458852868,-0.009038563707438947,
0.006683291770573566,-0.024607707807644985,
0.006733167082294264,-0.03257542306680532,
0.0067830423940149626,-0.005621488190057651,
0.006832917705735661,-0.004887185176276338,
0.006882793017456359,-0.01104449683651981,
0.0069326683291770575,-0.02682671076249909,
0.006982543640897756,-0.04247715151122256,
0.007032418952618454,-0.013017861207747922,
0.007082294264339152,0.021930352652971996,
0.007132169576059851,-0.01061889692684692,
0.007182044887780549,-0.02574881348289796,
0.007231920199501247,0.019452926958577713,
0.007281795511221945,-0.016596184246381533,
0.007331670822942643,-0.022801585532298625,
0.007381546134663341,-0.0025655972661064227,
0.00743142144638404,-0.01639174352490351,
0.007481296758104738,-0.015358600213722672,
0.007531172069825436,-0.03356894574730407,
0.007581047381546135,-0.02908260488875429,
0.007630922693266833,-0.043370205765677024,
0.007680798004987531,-0.030199199344535445,
0.0077306733167082295,-0.030072623752519678,
0.007780548628428928,-0.007747137212236187,
0.007830423940149626,-0.03921343404694778,
0.007880299251870324,-0.013360776100237675,
0.007930174563591023,0.019298730796617147,
0.00798004987531172,-0.009448854566429007,
0.00802992518703242,-0.02012779445436031,
0.008079800498753117,-0.02661868816670286,
0.008129675810473816,0.004817318339082631,
0.008179551122194513,-0.016697650852083603,
0.008229426433915213,-0.0415057317118989,
0.00827930174563591,0.005018348001365689,
0.00832917705735661,-0.022005108961935655,
0.008379052369077307,-0.02669787813753291,
0.008428927680798006,-0.017498611482233733,
0.008478802992518703,-0.010055690266006797,
0.0085286783042394,-0.04657193806653503,
0.0085785536159601,-0.015272526877839665,
0.008628428927680797,-0.015761975682173912,
0.008678304239401496,-0.028720710358617087,
0.008728179551122194,-0.029054570894819436,
0.008778054862842893,-0.006593751182822811,
0.00882793017456359,-0.020959730179830098,
0.00887780548628429,-0.014741639260580676,
0.008927680798004987,-0.039674835190899344,
0.008977556109725686,-0.040798052197645866,
0.009027431421446384,-0.012166263996514892,
0.009077306733167083,0.010000256727292819,
0.00912718204488778,-0.012473213947811285,
0.00917705735660848,-0.01053017502016031,
0.009226932668329177,-0.01564094656885383,
0.009276807980049876,-0.025737618232205946,
0.009326683291770574,-0.04186389417877723,
0.009376558603491271,-0.028205916491806496,
0.00942643391521197,-0.02920267783903223,
0.009476309226932668,-0.0016664888424720824,
0.009526184538653367,-0.008023532129692899,
0.009576059850374064,-0.03152567805014386,
0.009625935162094763,-0.008307998512072114,
0.00967581047381546,-0.009984281428428369,
0.00972568578553616,-0.013293142832321084,
0.009775561097256857,-0.014030283666958153,
0.009825436408977557,-0.02047836914764718,
0.009875311720698254,-0.011338541282546775,
0.009925187032418953,0.0045172377515987905,
0.00997506234413965,-0.012376912709553012,
0.01002493765586035,-0.006211676847509777,
0.010074812967581047,-0.017037726924217296,
0.010124688279301746,-0.022686281327479282,
0.010174563591022444,-0.010089913955606876,
0.010224438902743141,-0.03432957435570563,
0.01027431421446384,-0.03941857994356032,
0.010324189526184538,-0.07129834756743213,
0.010374064837905237,-0.01753921796836711,
0.010423940149625935,-0.0336214028885697,
0.010473815461346634,-0.01683207899478451,
0.010523690773067331,-0.018698025503148096,
0.01057356608478803,-0.033254186432364774,
0.010623441396508728,-0.03744579440537002,
0.010673316708229427,-0.013772777042895,
0.010723192019950124,-0.04399238640300497,
0.010773067331670824,0.005823460333979659,
0.010822942643391521,-0.012434944361520855,
0.01087281795511222,-0.042067919776698465,
0.010922693266832918,-0.005464977388436442,
0.010972568578553617,-0.012948552018806554,
0.011022443890274314,-0.007774899416300364,
0.011072319201995013,-0.018836234711400723,
0.01112219451371571,-0.03594062549384104,
0.011172069825436408,-0.028577041367054357,
0.011221945137157107,-0.026428350942704286,
0.011271820448877805,-0.021275371644555837,
0.011321695760598504,-0.002290107961855036,
0.011371571072319201,-0.01337346740280276,
0.0114214463840399,-0.012267464744502427,
0.011471321695760598,-0.025904040713374096,
0.011521197007481297,-0.0314497954088084,
0.011571072319201995,-0.011126506905299394,
0.011620947630922694,-0.046551523693455714,
0.011670822942643391,-0.01649338808391683,
0.01172069825436409,-0.009591035328101453,
0.011770573566084788,-0.0055172981832829655,
0.011820448877805487,-0.024624005388468748,
0.011870324189526184,-0.01454753003969306,
0.011920199501246884,-0.03660156915166203,
0.011970074812967581,-0.014445262813025859,
0.012019950124688279,-0.01804394818679415,
0.012069825436408978,-0.018690976614109248,
0.012119700748129675,-0.002809625060313169,
0.012169576059850374,-0.02067999991093223,
0.012219451371571072,-0.010543206819915552,
0.012269326683291771,-0.02157405798829654,
0.012319201995012468,-0.009423000296281694,
0.012369077306733168,-0.021697743844932386,
0.012418952618453865,0.0035513251689296855,
0.012468827930174564,-0.018926099908607566,
0.012518703241895262,-0.02450788311557793,
0.01256857855361596,-0.023375228912306294,
0.012618453865336658,-0.01705006389137483,
0.012668329177057357,-0.018558964541649896,
0.012718204488778055,-0.004235310921696378,
0.012768079800498754,0.009828764473304281,
0.012817955112219451,-0.031045943500954163,
0.012867830423940149,-0.013303087765840658,
0.012917705735660848,-0.008782305187257972,
0.012967581047381545,-0.0026834126094479934,
0.013017456359102245,-0.0018185468369383527,
0.013067331670822942,-0.004674683301657982,
0.013117206982543641,-0.021057131848231405,
0.013167082294264339,0.0015857941023173488,
0.013216957605985038,-0.03525851356681292,
0.013266832917705735,-0.015123789473612497,
0.013316708229426434,-0.01712538973233867,
0.013366583541147132,-0.017274362309404972,
0.013416458852867831,-0.003192939875552415,
0.013466334164588529,-0.016828144024919847,
0.013516209476309228,0.010620075616809969,
0.013566084788029925,-0.008644885519751976,
0.013615960099750624,-0.004473645825521194,
0.013665835411471322,0.00012170776034273363,
0.01371571072319202,-0.033281154812967374,
0.013765586034912718,-0.026785161730430412,
0.013815461346633416,0.01724557331649804,
0.013865336658354115,-0.004239032025744825,
0.013915211970074812,-0.008769558623620066,
0.013965087281795512,0.010850687133054406,
0.014014962593516209,0.010284776396155227,
0.014064837905236908,-0.01343227946603698,
0.014114713216957606,0.0016711105655927046,
0.014164588528678305,-0.01098379708360718,
0.014214463840399002,-0.014607280477435439,
0.014264339152119701,-0.010049716104187142,
0.014314214463840399,-0.03157183737995004,
0.014364089775561098,-0.022388449562939595,
0.014413965087281795,-0.010492346248301547,
0.014463840399002495,-0.004214030360506758,
0.014513715710723192,0.013554635391621125,
0.01456359102244389,-0.024483322056988912,
0.014613466334164589,0.013174161960874621,
0.014663341645885286,-0.0018367404669038068,
0.014713216957605985,0.004371052753220158,
0.014763092269326683,-0.03637574532542035,
0.014812967581047382,-0.0011061583201718381,
0.01486284289276808,0.019068222621225976,
0.014912718204488778,-0.004113019087914933,
0.014962593516209476,-0.005153905464565444,
0.015012468827930175,0.011205215154541039,
0.015062344139650873,-0.016850039421414727,
0.015112219451371572,-0.00832634187626165,
0.01516209476309227,-0.003426035954657879,
0.015211970074812968,-0.006386972329583449,
0.015261845386533666,-0.011355579053994556,
0.015311720698254365,-0.024372713188959085,
0.015361596009975062,0.022015636881891835,
0.01541147132169576,-0.009827415250320869,
0.015461346633416459,-0.0027022324410909517,
0.015511221945137156,0.014188424410646876,
0.015561097256857856,-0.019779060420400348,
0.015610972568578553,0.0032234161336619238,
0.015660847880299252,0.010649321484924312,
0.01571072319201995,0.011853823989736145,
0.015760598503740647,0.03938130048526858,
0.015810473815461346,0.015128939286811869,
0.015860349127182045,0.0045688284163354674,
0.015910224438902745,-0.0007619325284840914,
0.01596009975062344,-0.0038948180010356624,
0.01600997506234414,0.01260404384159308,
0.01605985037406484,-0.004606058405875588,
0.016109725685785538,0.01801693326626984,
0.016159600997506234,0.019263455519944492,
0.016209476309226933,0.00536029465072955,
0.016259351620947632,0.02360018722640391,
0.016309226932668328,0.022097062683664303,
0.016359102244389027,0.0006885843726227841,
0.016408977556109726,0.006157570596729238,
0.016458852867830425,0.030129831651113756,
0.01650872817955112,-0.008250153575484507,
0.01655860349127182,0.004627164197908263,
0.01660847880299252,0.009615531017479749,
0.01665835411471322,0.013575273433533158,
0.016708229426433914,-0.012812470992449853,
0.016758104738154613,-0.0040435148896499525,
0.016807980049875312,0.005119222401046689,
0.01685785536159601,0.027106964831279848,
0.016907730673316707,0.013948823857399716,
0.016957605985037406,0.008891821372624047,
0.017007481296758106,0.023544920022337122,
0.0170573566084788,0.010317415462677114,
0.0171072319201995,-0.0019007718983722697,
0.0171571072319202,0.02611651851041885,
0.0172069825436409,-0.008645512731670895,
0.017256857855361595,-0.015369826257384825,
0.017306733167082294,0.00016565850572322627,
0.017356608478802993,-0.013198157298055018,
0.017406483790523692,0.016283532339788638,
0.017456359102244388,0.015556133441143323,
0.017506234413965087,0.0179361946534858,
0.017556109725685786,-0.008791364803130104,
0.017605985037406485,0.01028576738100654,
0.01765586034912718,0.004061452337582143,
0.01770573566084788,0.023497792520463565,
0.01775561097256858,0.028885387401049935,
0.01780548628428928,-0.0011810154415142632,
0.017855361596009974,0.014881536353870678,
0.017905236907730673,0.030098430482156227,
0.017955112219451373,0.025247434628741728,
0.018004987531172068,0.007698202511521479,
0.018054862842892767,0.04484282599394035,
0.018104738154613467,0.017145411576059897,
0.018154613466334166,0.018905246174226807,
0.01820448877805486,0.034401538152488684,
0.01825436408977556,0.044890993937806926,
0.01830423940149626,-0.024185642110460537,
0.01835411471321696,0.018940421661742316,
0.018403990024937655,0.029737759829973308,
0.018453865336658354,0.02198995613710377,
0.018503740648379053,0.02100899815658739,
0.018553615960099752,0.02376957561971372,
0.018603491271820448,0.020615517095476456,
0.018653366583541147,0.01011392286872967,
0.018703241895261846,0.04137434625384813,
0.018753117206982542,0.017236131381643316,
0.01880299251870324,0.026914646285218093,
0.01885286783042394,0.04850570551605005,
0.01890274314214464,0.022863616035224747,
0.018952618453865335,0.012489726235569784,
0.019002493765586034,0.03125570469712716,
0.019052369077306733,0.003996879873500173,
0.019102244389027433,0.04846237295752874,
0.01915211970074813,0.010233546907241337,
0.019201995012468828,0.03015349117799946,
0.019251870324189527,0.034365688432065125,
0.019301745635910226,0.029005675193630575,
0.01935162094763092,0.020341614728483226,
0.01940149625935162,0.03180457415177172,
0.01945137157107232,0.007084087524644192,
0.01950124688279302,0.04525401486584979,
0.019551122194513715,-0.010953512638001914,
0.019600997506234414,0.038918863063347145,
0.019650872817955113,0.02993968008629641,
0.01970074812967581,-0.004372267340302813,
0.019750623441396508,0.019453435939039816,
0.019800498753117207,0.02570254207771789,
0.019850374064837906,0.019334993565117867,
0.019900249376558602,0.02085000252896429,
0.0199501246882793,0.004112931202837542,
0.02,0.011312561576756043,
0.0200498753117207,0.031725961088789785,
0.020099750623441395,0.0007967199434525535,
0.020149625935162094,0.01199901916130543,
0.020199501246882794,0.03306466215428553,
0.020249376558603493,0.022490977872298836,
0.02029925187032419,0.00782374095176631,
0.020349127182044888,0.03220884893431761,
0.020399002493765587,0.04557843385610159,
0.020448877805486283,0.039452254910834636,
0.02049875311720698,0.008998216058719505,
0.02054862842892768,0.047000289231832595,
0.02059850374064838,0.039362370869157906,
0.020648379052369076,0.043741731745017186,
0.020698254364089775,0.014295732997297955,
0.020748129675810474,0.02156479657889313,
0.020798004987531173,0.027857395990263368,
0.02084788029925187,0.007128139743111588,
0.020897755610972568,0.005650134325035057,
0.020947630922693267,0.013300016593643738,
0.020997506234413967,0.04420092231183982,
0.021047381546134662,0.023427248070629066,
0.02109725685785536,0.013803902226666907,
0.02114713216957606,0.020658346103619923,
0.02119700748129676,0.007165546982588273,
0.021246882793017455,-0.017641545952922565,
0.021296758104738155,0.04855093844876436,
0.021346633416458854,0.02227278789733904,
0.02139650872817955,-0.0024620372452574257,
0.02144638403990025,0.006344108473173673,
0.021496259351620948,0.03392628867750102,
0.021546134663341647,0.017628431775971714,
0.021596009975062343,0.008390325424216362,
0.021645885286783042,0.030258512905644054,
0.02169576059850374,0.030911938258692796,
0.02174563591022444,0.03810128892035759,
0.021795511221945136,0.02475927543145913,
0.021845386533665835,0.018371457403323094,
0.021895261845386534,0.012539172098120655,
0.021945137157107233,0.029492783920001278,
0.02199501246882793,0.03425504142206878,
0.02204488778054863,0.007277356834520918,
0.022094763092269327,0.01582740540641747,
0.022144638403990027,0.04457183889606177,
0.022194513715710722,0.005521299197652506,
0.02224438902743142,0.017049861253934286,
0.02229426433915212,0.017233930911607322,
0.022344139650872816,0.03533380900505555,
0.022394014962593516,0.018811925882782264,
0.022443890274314215,0.0008804493328131088,
0.022493765586034914,0.0011186081404334428,
0.02254364089775561,-0.006489344079568662,
0.02259351620947631,0.047019039165249764,
0.022643391521197008,0.008967520730821698,
0.022693266832917707,0.005884321142348903,
0.022743142144638403,0.03250937619007218,
0.022793017456359102,0.0072530092061876515,
0.0228428927680798,0.024478883459156126,
0.0228927680798005,0.0115873813735816,
0.022942643391521196,0.009121981850256481,
0.022992518703241895,0.009714580037750022,
0.023042394014962594,-0.01768703141957539,
0.02309226932668329,0.00028062086304518966,
0.02314214463840399,0.02971405037105232,
0.02319201995012469,0.039345004140019194,
0.023241895261845388,0.013340295721588688,
0.023291770573566083,0.020869343575228426,
0.023341645885286783,0.051899647068036556,
0.02339152119700748,0.03024464369369958,
0.02344139650872818,0.031416270708072694,
0.023491271820448877,0.010364557615226887,
0.023541147132169576,0.028805046551542354,
0.023591022443890275,0.01071776528370496,
0.023640897755610974,0.03071903843825006,
0.02369077306733167,0.014033738817955756,
0.02374064837905237,0.013767631987001367,
0.023790523690773068,0.017271992421231303,
0.023840399002493767,-0.016527156417931926,
0.023890274314214463,0.01514463007736344,
0.023940149625935162,0.02730340300760159,
0.02399002493765586,0.019140890957984873,
0.024039900249376557,-0.009208289772394632,
0.024089775561097256,0.008538525232580052,
0.024139650872817955,0.03725125389276725,
0.024189526184538655,0.0204113177303166,
0.02423940149625935,0.008232233592750897,
0.02428927680798005,-0.0041347553071379335,
0.02433915211970075,-0.014532776497992676,
0.024389027431421448,0.016177425676590536,
0.024438902743142144,0.0032917145890949432,
0.024488778054862843,0.034180444155241144,
0.024538653366583542,0.0025561946390343735,
0.02458852867830424,-0.021278137800425166,
0.024638403990024937,0.0022176715875620073,
0.024688279301745636,-0.013679479823226186,
0.024738154613466335,-0.0020974437488569383,
0.02478802992518703,0.014783006963925153,
0.02483790523690773,0.0035462275240774714,
0.02488778054862843,0.0022823772906870403,
0.02493765586034913,0.007962288221287772,
0.024987531172069824,0.030250095420946588,
0.025037406483790523,-0.0004942661004428972,
0.025087281795511222,0.01262952313658287,
0.02513715710723192,-0.012773261395699332,
0.025187032418952617,-0.0011187019158292802,
0.025236907730673316,-0.01876446016134147,
0.025286783042394016,-0.0018667306858977362,
0.025336658354114715,-0.003197517382757163,
0.02538653366583541,-0.0046546154396933425,
0.02543640897755611,-0.014319671093267247,
0.02548628428927681,-0.0004876613498559451,
0.025536159600997508,-0.02100085153150642,
0.025586034912718204,-0.010382478982201217,
0.025635910224438903,-0.01863560348564097,
0.025685785536159602,-0.012124960449241532,
0.025735660847880298,0.0055740905103882745,
0.025785536159600997,-0.027926615715847217,
0.025835411471321696,0.0013833690055849218,
0.025885286783042395,0.03628321062576308,
0.02593516209476309,0.0025162608335149513,
0.02598503740648379,-0.004752730841531411,
0.02603491271820449,0.02751237859785392,
0.02608478802992519,-0.006774197998228775,
0.026134663341645884,0.018043678930585918,
0.026184538653366583,-0.004041159049794792,
0.026234413965087282,-0.012004461720412068,
0.02628428927680798,-0.021145374975223404,
0.026334164588528677,0.0067036305782748,
0.026384039900249377,-0.000692919778572886,
0.026433915211970076,0.009693577089755141,
0.02648379052369077,-0.0028416462688511204,
0.02653366583541147,-0.007853413966533091,
0.02658354114713217,-0.002651295745803817,
0.02663341645885287,-0.010521810908564532,
0.026683291770573565,-0.02277310820171984,
0.026733167082294264,-0.020717674878793155,
0.026783042394014963,-0.02278620550233964,
0.026832917705735662,0.007098644021070229,
0.026882793017456358,-0.026432197678665767,
0.026932668329177057,0.010937344912216792,
0.026982543640897756,0.0017554494042914294,
0.027032418952618455,0.015376476309532136,
0.02708229426433915,-0.013647362246109159,
0.02713216957605985,-0.009944819584013774,
0.02718204488778055,-0.014620585883789164,
0.02723192019950125,0.009566130814715464,
0.027281795511221944,-0.014523085608044783,
0.027331670822942643,-0.015038444498123554,
0.027381546134663343,-0.027867058191173945,
0.02743142144638404,-0.006000189538994887,
0.027481296758104738,0.02443329106694596,
0.027531172069825437,0.0031124237242542794,
0.027581047381546136,-0.02326915305737421,
0.02763092269326683,0.009555805358132045,
0.02768079800498753,-0.023136860131286976,
0.02773067331670823,0.011236018844057302,
0.02778054862842893,-0.003075975352847182,
0.027830423940149625,-0.020741817699288373,
0.027880299251870324,-0.008627491047870785,
0.027930174563591023,-0.021100401607577552,
0.027980049875311722,-0.015828241896797098,
0.028029925187032418,0.008725314523722268,
0.028079800498753117,-0.045277503939843165,
0.028129675810473816,-0.011458057984905706,
0.028179551122194512,0.002789774987543306,
0.02822942643391521,-0.02560322389789111,
0.02827930174563591,-0.03474162813248314,
0.02832917705735661,0.00037545831552932354,
0.028379052369077305,-0.022557653216960315,
0.028428927680798004,0.005828267208187623,
0.028478802992518704,-0.014771710297669757,
0.028528678304239403,-0.030704884477029543,
0.0285785536159601,-0.000964520555089176,
0.028628428927680798,-0.0032230113247681703,
0.028678304239401497,-0.0011635585251225915,
0.028728179551122196,-0.03378046827969011,
0.02877805486284289,-0.023655273936532606,
0.02882793017456359,-0.019406469851172965,
0.02887780548628429,-0.029208141887768747,
0.02892768079800499,-0.008383706390246498,
0.028977556109725685,0.006108872272825958,
0.029027431421446384,-0.010720139381095449,
0.029077306733167083,-0.007750181106098023,
0.02912718204488778,-0.012822283624285937,
0.029177057356608478,-0.0358121236762475,
0.029226932668329177,0.0003429647526364127,
0.029276807980049877,0.0022309281092425214,
0.029326683291770572,-0.034855896769576705,
0.02937655860349127,-0.018336982120478903,
0.02942643391521197,-0.0010275032111855854,
0.02947630922693267,0.0017859425217248356,
0.029526184538653365,-0.030412413751997613,
0.029576059850374065,-0.009777514166014252,
0.029625935162094764,-0.003462485476534943,
0.029675810473815463,-0.019072952712058503,
0.02972568578553616,-0.007869151135759108,
0.029775561097256858,-0.013719327605054423,
0.029825436408977557,-0.024936972574926157,
0.029875311720698253,-0.021407892263505285,
0.029925187032418952,-0.0069755008194157305,
0.02997506234413965,-0.020371961055047197,
0.03002493765586035,-0.039376707040428116,
0.030074812967581046,-0.003319929172622065,
0.030124688279301745,-0.00589038512340298,
0.030174563591022444,-0.02031717379938681,
0.030224438902743143,-0.024240903351924588,
0.03027431421446384,-0.031762772234003644,
0.03032418952618454,-0.023171053368241087,
0.030374064837905237,-0.051561286365868556,
0.030423940149625937,-0.03427628236512034,
0.030473815461346632,-0.045549610371114865,
0.03052369077306733,0.01086687021730982,
0.03057356608478803,-0.023465629382888945,
0.03062344139650873,-0.060821913401508054,
0.030673316708229426,0.0019333896973035836,
0.030723192019950125,-0.023807176897478133,
0.030773067331670824,0.0008742997955557864,
0.03082294264339152,-0.025268647058625658,
0.03087281795511222,-0.03177289259216784,
0.030922693266832918,-0.009668261174572621,
0.030972568578553617,-0.009791955414218059,
0.031022443890274313,-0.027182006799513103,
0.031072319201995012,-0.014058003313391309,
0.03112219451371571,-0.02321657936773127,
0.03117206982543641,-0.015772623487888812,
0.031221945137157106,-0.0037654353749455027,
0.03127182044887781,-0.03440717426199076,
0.031321695760598504,-0.019826925944881856,
0.0313715710723192,-0.011621759313208161,
0.0314214463840399,-0.02016766464366996,
0.0314713216957606,-0.02100734517254527,
0.031521197007481294,-0.015882901110941282,
0.031571072319202,-0.047200141376483894,
0.03162094763092269,-0.01723146205502127,
0.03167082294264339,-0.03038984545411271,
0.03172069825436409,-0.03241342568388364,
0.03177057356608479,-0.03039468079964553,
0.03182044887780549,-0.0323376088317381,
0.031870324189526185,-0.010317065378923313,
0.03192019950124688,-0.02190686381546062,
0.03197007481296758,-0.02436822653481193,
0.03201995012468828,-0.03823879115440308,
0.032069825436408975,0.006698699015581355,
0.03211970074812968,-0.02358964937558475,
0.03216957605985037,-0.045518315739279655,
0.032219451371571076,-0.0221048955505345,
0.03226932668329177,0.021995892906369247,
0.03231920199501247,-0.007958265821592501,
0.03236907730673317,-0.006597803027469488,
0.032418952618453865,-0.0196318014320774,
0.03246882793017456,0.020712721343069312,
0.032518703241895264,-0.030104832493708305,
0.03256857855361596,0.003774691267170123,
0.032618453865336655,-0.000800463460123366,
0.03266832917705736,0.004115621610975909,
0.032718204488778053,-0.012930105868187351,
0.032768079800498756,-0.0044942859025439924,
0.03281795511221945,-0.04679758023773744,
0.03286783042394015,0.01573916589913681,
0.03291770573566085,-0.0006262541471396439,
0.032967581047381546,0.012171885878078057,
0.03301745635910224,-0.02581995766597,
0.033067331670822944,0.03130365574276893,
0.03311720698254364,-0.027177515301756387,
0.03316708229426434,0.012232996958947757,
0.03321695760598504,-0.008777521142027815,
0.033266832917705734,-0.004430180917851322,
0.03331670822942644,-0.003171117142686814,
0.03336658354114713,-0.0005361557686128348,
0.03341645885286783,-0.009236950672344446,
0.03346633416458853,-3.798614197271337e-05,
0.033516209476309226,-0.04043010673074511,
0.03356608478802992,-0.033910540533185936,
0.033615960099750625,0.003678993760797781,
0.03366583541147132,-0.02390539421212506,
0.03371571072319202,-0.020799474593707328,
0.03376558603491272,0.01229521241626901,
0.033815461346633414,0.006717439526584236,
0.03386533665835412,0.003112009253636132,
0.03391521197007481,-0.013098400650206208,
0.03396508728179551,-0.00285421774797941,
0.03401496259351621,-0.0018942704436753373,
0.03406483790523691,-0.021036858396083047,
0.0341147132169576,0.013246708190509038,
0.034164588528678305,0.022677894894581663,
0.034214463840399,-0.029310111133982075,
0.034264339152119704,-0.002086143032043738,
0.0343142144638404,-0.012005292990334362,
0.034364089775561095,0.005554828695375701,
0.0344139650872818,-0.008513118306544967,
0.03446384039900249,0.020567544729199316,
0.03451371571072319,0.010134253984890035,
0.03456359102244389,0.029057933659895296,
0.03461346633416459,-0.016130934784257818,
0.03466334164588529,-0.027776773695737573,
0.034713216957605986,0.007860006261388861,
0.03476309226932668,0.020483987918078702,
0.034812967581047384,-0.006310271058378697,
0.03486284289276808,-0.009507248025174568,
0.034912718204488775,-0.006707023663956438,
0.03496259351620948,0.027295320289562067,
0.035012468827930174,-0.02687203025211,
0.03506234413965087,0.001973135585059298,
0.03511221945137157,0.010555363269628859,
0.03516209476309227,-0.002231255996090027,
0.03521197007481297,-0.008501205841892883,
0.035261845386533666,-0.03015227209717495,
0.03531172069825436,0.005381220773187609,
0.035361596009975065,0.0064491865913051585,
0.03541147132169576,0.008679853506767182,
0.035461346633416456,-0.013627037731570464,
0.03551122194513716,0.003144364482749972,
0.035561097256857854,0.006866837012176032,
0.03561097256857856,0.0006395851472872638,
0.03566084788029925,-0.01892812543136925,
0.03571072319201995,0.016140517657140772,
0.03576059850374065,0.010790979051899047,
0.03581047381546135,0.016787546367169046,
0.03586034912718204,0.034300124091391326,
0.035910224438902745,-0.008060756476296818,
0.03596009975062344,-0.0026086404283862706,
0.036009975062344136,-0.02479035778052901,
0.03605985037406484,0.0024489113146256404,
0.036109725685785535,0.0038912822622783035,
0.03615960099750624,0.020211455774397074,
0.03620947630922693,-0.0023817132357189415,
0.03625935162094763,0.0368499022382808,
0.03630922693266833,0.042607541143229524,
0.03635910224438903,-0.004066676756568421,
0.03640897755610972,0.012947688420433139,
0.036458852867830426,-0.004929974074348798,
0.03650872817955112,-0.01210271557731457,
0.036558603491271824,0.011489407219443946,
0.03660847880299252,0.011055352687490744,
0.036658354114713215,0.02856981911415704,
0.03670822942643392,0.006834273178779006,
0.036758104738154614,0.005184213372864101,
0.03680798004987531,0.014063143764277277,
0.03685785536159601,0.01884103669660269,
0.03690773067331671,0.03196167322093252,
0.0369576059850374,0.02725111994588651,
0.037007481296758106,0.02413322189640718,
0.0370573566084788,0.028755496962572652,
0.037107231920199504,0.011221899856016418,
0.0371571072319202,0.020446497847399766,
0.037206982543640896,0.00031709658714494833,
0.0372568578553616,0.013677340282392444,
0.037306733167082294,0.0018332610712404416,
0.03735660847880299,0.00536754506830023,
0.03740648379052369,0.011667807071628952,
0.03745635910224439,0.00539266437534474,
0.037506234413965084,0.0021301094851192068,
0.037556109725685786,0.01873476353155664,
0.03760598503740648,0.03463953977024463,
0.037655860349127185,0.02113118558635845,
0.03770573566084788,0.013107461193373755,
0.037755610972568576,0.01095137760209566,
0.03780548628428928,0.018847376732955615,
0.037855361596009975,0.03319761773856418,
0.03790523690773067,0.034038610345626316,
0.03795511221945137,0.017563458002593235,
0.03800498753117207,-0.023111748887157536,
0.03805486284289277,0.017580564887257875,
0.03810473815461347,0.0491431436717574,
0.03815461346633416,0.005862129437158293,
0.038204488778054865,0.02658068544348919,
0.03825436408977556,0.008593097542299572,
0.03830423940149626,0.022889297453954738,
0.03835411471321696,0.02447787657072826,
0.038403990024937655,-0.003637088616872699,
0.03845386533665835,0.022575472208565664,
0.03850374064837905,0.04820760977267379,
0.03855361596009975,0.02349856296601863,
0.03860349127182045,0.02183737442576028,
0.03865336658354115,0.0048793747518444085,
0.03870324189526184,0.018357698737021783,
0.038753117206982546,0.02006708163239633,
0.03880299251870324,0.007776680325791076,
0.03885286783042394,0.03145338104665337,
0.03890274314214464,0.01388800955241215,
0.038952618453865336,0.023197468900106922,
0.03900249376558604,0.030053370422138605,
0.039052369077306734,0.03798350606330497,
0.03910224438902743,0.03034817048736777,
0.03915211970074813,0.038474081252737755,
0.03920199501246883,0.007882986367566642,
0.039251870324189524,0.012075729630338858,
0.039301745635910226,0.026845823441329214,
0.03935162094763092,0.02050387158916615,
0.03940149625935162,0.028607299531628466,
0.03945137157107232,0.015238806610837555,
0.039501246882793016,0.030175554436367484,
0.03955112219451372,0.03452426504077914,
0.039600997506234414,0.011779898244897693,
0.03965087281795511,0.021548477769761876,
0.03970074812967581,0.04051752401236474,
0.03975062344139651,0.021162850935142846,
0.039800498753117204,0.00881582570144493,
0.03985037406483791,0.02280245684499714,
0.0399002493765586,-0.01775815279376188,
0.039950124688279305,0.024617481939812284,
0.04,0.05265918987751301,
0.0400498753117207,0.03883031798618715,
0.0400997506234414,0.033225005938606764,
0.040149625935162095,0.04047554288134979,
0.04019950124688279,0.02287244713964414,
0.04024937655860349,0.026832706394629906,
0.04029925187032419,0.025425218515471554,
0.040349127182044885,0.04975288673111669,
0.04039900249376559,0.055253609707896806,
0.04044887780548628,0.04757588024382839,
0.040498753117206986,-0.0034085325214341135,
0.04054862842892768,0.01082312746376072,
0.04059850374064838,0.02543847033552495,
0.04064837905236908,0.020482205323514587,
0.040698254364089775,0.029669565852814515,
0.04074812967581047,0.018566778057207706,
0.040798004987531174,0.0513240176602022,
0.04084788029925187,-0.005349026978913568,
0.040897755610972565,0.011743699070013084,
0.04094763092269327,0.012374298355217757,
0.04099750623441396,0.036109811112800906,
0.041047381546134666,0.015355003684870881,
0.04109725685785536,0.0383210751989604,
0.04114713216957606,0.017487624086478228,
0.04119700748129676,0.01601352516857737,
0.041246882793017456,0.0030031423615019086,
0.04129675810473815,0.0015158309675992743,
0.041346633416458854,0.01572175300524936,
0.04139650872817955,0.022829189079079486,
0.04144638403990025,0.0035585430631286316,
0.04149625935162095,0.04181837554419442,
0.041546134663341644,0.025215372626968418,
0.04159600997506235,0.01991848279183662,
0.04164588528678304,0.048455725485754025,
0.04169576059850374,0.03688765307497384,
0.04174563591022444,-0.0032609297370053136,
0.041795511221945136,0.016981751133286847,
0.04184538653366583,0.014014782396775147,
0.041895261845386535,0.00886110470622601,
0.04194513715710723,0.03721553611417967,
0.04199501246882793,0.046839220451253154,
0.04204488778054863,0.027458944203012876,
0.042094763092269324,0.03153170986048402,
0.04214463840399003,0.06532874674822386,
0.04219451371571072,0.00952068085500495,
0.04224438902743142,0.019556871654512444,
0.04229426433915212,0.003485425013009868,
0.04234413965087282,0.04389121722355055,
0.04239401496259352,0.021803543744160072,
0.042443890274314215,0.026119508472491337,
0.04249376558603491,0.02407152010035286,
0.042543640897755614,0.0029545854459011294,
0.04259351620947631,0.018949942959070848,
0.042643391521197005,0.02164972952210573,
0.04269326683291771,0.02081640543241493,
0.0427431421446384,0.007731951379462797,
0.0427930174563591,-0.01419255159754234,
0.0428428927680798,0.005389076815115254,
0.0428927680798005,0.03828181467565263,
0.0429426433915212,0.008754085226653567,
0.042992518703241896,0.02144686226427317,
0.04304239401496259,0.008516984428095405,
0.043092269326683294,0.02499755394135703,
0.04314214463840399,0.013154059845685242,
0.043192019950124685,0.004483687873163215,
0.04324189526184539,0.01931234234782636,
0.043291770573566084,0.007861980656878325,
0.043341645885286786,0.018975027529470397,
0.04339152119700748,0.025336384577601203,
0.04344139650872818,0.039348433342821586,
0.04349127182044888,0.006764230549908389,
0.043541147132169576,0.01172276463101231,
0.04359102244389027,0.013266964576389423,
0.043640897755610975,0.00425769007781703,
0.04369077306733167,0.020508360392029898,
0.043740648379052366,-0.02049363775732935,
0.04379052369077307,0.0244600842576075,
0.043840399002493764,0.026156565896983487,
0.04389027431421447,0.004195468063168404,
0.04394014962593516,0.004065582831114182,
0.04399002493765586,0.0066954775961179875,
0.04403990024937656,0.027297296634309288,
0.04408977556109726,-0.011433286147287875,
0.04413965087281795,0.004687928111007069,
0.044189526184538655,-0.018600708924557893,
0.04423940149625935,0.002307976100463908,
0.04428927680798005,-0.006930620860785431,
0.04433915211970075,0.001135012829449427,
0.044389027431421445,0.01807800861280868,
0.04443890274314215,0.007879489707765312,
0.04448877805486284,0.010738515031675583,
0.04453865336658354,0.007186307181607961,
0.04458852867830424,0.02316025052317806,
0.04463840399002494,0.00908274265525067,
0.04468827930174563,0.020793096168719577,
0.044738154613466335,-0.016530390028011176,
0.04478802992518703,0.001215647674474251,
0.044837905236907734,0.009054696838951668,
0.04488778054862843,0.0071419905732210374,
0.044937655860349125,0.0010352556852586342,
0.04498753117206983,-0.012303193144885153,
0.045037406483790524,-0.005146186821896376,
0.04508728179551122,-0.03252633904329068,
0.04513715710723192,-0.007275820348396606,
0.04518703241895262,0.01906941014215854,
0.04523690773067331,0.02057168351578737,
0.045286783042394016,0.015079572179684959,
0.04533665835411471,0.04207664284932097,
0.045386533665835414,0.023876812452397693,
0.04543640897755611,-0.0028108212129550523,
0.045486284289276806,-0.017182304612137995,
0.04553615960099751,0.020274808846659144,
0.045586034912718204,0.002335874855871935,
0.0456359102244389,0.009973430742831012,
0.0456857855361596,0.006970600271354821,
0.0457356608478803,-0.007876777817625476,
0.045785536159601,0.010343699310570251,
0.045835411471321696,0.004094407793640225,
0.04588528678304239,-0.03476552627167931,
0.045935162094763095,-0.022960491170977714,
0.04598503740648379,0.022365895649939196,
0.046034912718204486,0.008533159565454227,
0.04608478802992519,-0.001205492571807394,
0.046134663341645885,0.001378438713365421,
0.04618453865336658,0.0059145610385852865,
0.04623441396508728,-0.009963466223831388,
0.04628428927680798,-0.016835166745390366,
0.04633416458852868,-0.010816951438421173,
0.04638403990024938,-0.004015221495465497,
0.04643391521197007,0.0234124241943284,
0.046483790523690775,0.012729658294945413,
0.04653366583541147,-0.007567212085921674,
0.04658354114713217,-0.043960379816595514,
0.04663341645885287,-0.0018654663060940096,
0.046683291770573565,0.00853858709263956,
0.04673316708229427,-0.011248954270376907,
0.04678304239401496,-0.009012600550594581,
0.04683291770573566,0.012298638471805876,
0.04688279301745636,-0.01572835043550471,
0.04693266832917706,0.004129175349846352,
0.04698254364089775,-0.01723350114218395,
0.047032418952618456,-0.03511433422453256,
0.04708229426433915,-0.01156591684182175,
0.04713216957605985,0.00388675801120119,
0.04718204488778055,-0.01689327722491784,
0.047231920199501246,-0.01676629621212238,
0.04728179551122195,-0.019674361228404387,
0.047331670822942644,-0.02515996794312585,
0.04738154613466334,-0.03328717734170433,
0.04743142144638404,-0.004086799485056048,
0.04748129675810474,-0.023650928067660698,
0.047531172069825434,-0.010364591163465147,
0.047581047381546136,-0.01892376796518061,
0.04763092269326683,-0.025769791426355406,
0.047680798004987535,-0.016809724329092543,
0.04773067331670823,-0.015701039909477573,
0.047780548628428926,-0.008104442410091851,
0.04783042394014963,-0.027193757354682352,
0.047880299251870324,0.009054688575702626,
0.04793017456359102,-0.018876865870610902,
0.04798004987531172,-0.00044824577585312296,
0.04802992518703242,-0.02076784207158279,
0.048079800498753114,0.0017888846916186973,
0.04812967581047382,-0.0037532254173155526,
0.04817955112219451,-0.027419549155549935,
0.048229426433915215,-0.00593735981953749,
0.04827930174563591,-0.02489291173635963,
0.048329177057356607,-0.001615911732060384,
0.04837905236907731,-0.017246372159380817,
0.048428927680798005,-0.044228994279499806,
0.0484788029925187,0.004570962591939832,
0.0485286783042394,-0.0237383891378281,
0.0485785536159601,-0.03800731983856305,
0.048628428927680795,-0.02273629117190731,
0.0486783042394015,-0.0035349113168601076,
0.04872817955112219,-0.022180180569963855,
0.048778054862842896,-0.010376446437628776,
0.04882793017456359,-0.01910321635627954,
0.04887780548628429,-0.013911355733477473,
0.04892768079800499,-0.0050243772702949965,
0.048977556109725685,-0.03539437952180946,
0.04902743142144638,-0.03612979702446224,
0.049077306733167084,-0.02462984836052303,
0.04912718204488778,0.00802816122874786,
0.04917705735660848,0.012376326160321392,
0.04922693266832918,-0.024792833865497358,
0.04927680798004987,-0.019263293805959494,
0.049326683291770576,-0.024431741910962333,
0.04937655860349127,-0.04399919615029543,
0.04942643391521197,-0.01945988830206126,
0.04947630922693267,-0.0257558956923047,
0.049526184538653366,-0.016063753062351818,
0.04957605985037406,-0.01879648213136193,
0.049625935162094764,0.003077310681029479,
0.04967581047381546,-0.016014829859711,
0.04972568578553616,-0.03395291405578291,
0.04977556109725686,-0.025176583494014748,
0.049825436408977554,-0.004068140515960113,
0.04987531172069826,-0.009844554075450325,
0.04992518703241895,-0.01998606312601309,
0.04997506234413965,-0.0118221252365821,
0.05002493765586035,-0.009958541145198209,
0.050074812967581046,-0.01965098602311277,
0.05012468827930175,-0.024091675103595285,
0.050174563591022445,-0.022175242061390106,
0.05022443890274314,-0.016021513294430932,
0.05027431421446384,-0.01820532408745149,
0.05032418952618454,-0.02528145543905582,
0.050374064837905234,0.0011357694268748879,
0.05042394014962594,-0.032528885060029974,
0.05047381546134663,-0.015381313245105272,
0.05052369077306733,-0.03519569698645279,
0.05057356608478803,-0.010007631037974623,
0.05062344139650873,-0.03781655593263637,
0.05067331670822943,-0.016313229344468286,
0.050723192019950125,-0.030142148964141413,
0.05077306733167082,-0.03535712676030389,
0.050822942643391524,0.005640706027218157,
0.05087281795511222,-0.007154556204870738,
0.050922693266832915,-0.0030860289256031664,
0.05097256857855362,-0.0026851298010629795,
0.05102244389027431,-0.014299745535502098,
0.051072319201995016,-0.01401695542533485,
0.05112219451371571,-0.01842038460620355,
0.05117206982543641,-0.008344452268125257,
0.05122194513715711,-0.027338648881423976,
0.051271820448877806,-0.02122158812998342,
0.0513216957605985,0.005802202924979653,
0.051371571072319204,-0.01605952060807421,
0.0514214463840399,-0.02092811938246906,
0.051471321695760595,-0.005086247758390353,
0.0515211970074813,-0.01675359548124268,
0.051571072319201994,-0.028851092588327916,
0.051620947630922696,-0.0007687570203892789,
0.05167082294264339,-0.027490374145982502,
0.05172069825436409,-0.020686848955876972,
0.05177057356608479,-0.003312891406084484,
0.051820448877805486,-0.02390026930691495,
0.05187032418952618,0.008688308251862228,
0.051920199501246884,0.020468914737550973,
0.05197007481296758,-0.0039692709351224435,
0.052019950124688276,-0.01843724888337473,
0.05206982543640898,-0.003694420256359021,
0.052119700748129674,-0.01192741161644048,
0.05216957605985038,-0.010320123475530124,
0.05221945137157107,-0.0037402952943120533,
0.05226932668329177,-0.026811930851213944,
0.05231920199501247,-0.03377570768203332,
0.05236907730673317,-0.015935008383343222,
0.05241895261845386,-0.01611904314223348,
0.052468827930174565,-0.015126723426699693,
0.05251870324189526,0.008018912485274914,
0.05256857855361596,-0.02370085824457918,
0.05261845386533666,-0.004825035767939077,
0.052668329177057355,-0.004844957877371475,
0.05271820448877806,-0.007746313639078224,
0.05276807980049875,-0.02287389057969916,
0.05281795511221945,0.010744011415667115,
0.05286783042394015,-0.009142841832066007,
0.05291770573566085,-0.007766614633177203,
0.05296758104738154,-0.05164631423382409,
0.053017456359102245,-0.03169819393564438,
0.05306733167082294,-0.021462107535291215,
0.053117206982543644,-0.007984463204564174,
0.05316708229426434,0.006509780528003186,
0.053216957605985035,0.01042806434213642,
0.05326683291770574,-0.006066213890822869,
0.053316708229426434,-0.003496009553677972,
0.05336658354114713,-0.005211595419168623,
0.05341645885286783,-0.0039438973279792115,
0.05346633416458853,0.028055761475269593,
0.05351620947630923,-0.002147466348065399,
0.053566084788029926,-0.011774458918538473,
0.05361596009975062,-0.001933255072286419,
0.053665835411471324,0.010273528794094721,
0.05371571072319202,-0.011895513721033295,
0.053765586034912716,0.009219273386238201,
0.05381546134663342,-0.026574483217483,
0.053865336658354114,-0.02896958436443883,
0.05391521197007481,-0.009540348188394356,
0.05396508728179551,0.0002563696241094744,
0.05401496259351621,-0.01844728741283217,
0.05406483790523691,-0.014466868166632282,
0.054114713216957606,-0.006605331549603443,
0.0541645885286783,0.014216281386288642,
0.054214463840399005,0.001082603184277648,
0.0542643391521197,0.011375680048579702,
0.054314214463840396,0.0034331055327867805,
0.0543640897755611,0.007375515949113038,
0.054413965087281795,-0.009936970768513631,
0.0544638403990025,0.012165949095638916,
0.05451371571072319,-0.007143621560681463,
0.05456359102244389,0.014908868159265192,
0.05461346633416459,0.010616786781234344,
0.05466334164588529,-0.007380168033478701,
0.05471321695760598,0.01849298415586837,
0.054763092269326685,0.023292666008263626,
0.05481296758104738,-0.0009357381246771963,
0.05486284289276808,0.017424507019852414,
0.05491271820448878,-0.002275920093536389,
0.054962593516209475,-0.01138224385715447,
0.05501246882793018,0.01774787757564447,
0.05506234413965087,-0.009916493049171147,
0.05511221945137157,-0.008238262233434004,
0.05516209476309227,0.024801317657297664,
0.05521197007481297,-0.010185427418364059,
0.05526184538653366,0.008475572695507114,
0.055311720698254366,0.007960404169045705,
0.05536159600997506,0.007106142362617976,
0.05541147132169576,0.012481537460446383,
0.05546134663341646,0.032705767898144854,
0.055511221945137156,-0.00204233628367261,
0.05556109725685786,0.026742181243837367,
0.055610972568578554,-0.005534771713168842,
0.05566084788029925,-0.014105149588272272,
0.05571072319201995,0.005718193018997963,
0.05576059850374065,0.011287411763876744,
0.055810473815461344,-0.020286103795328195,
0.055860349127182046,0.0023291497768136073,
0.05591022443890274,0.026874797291613867,
0.055960099750623445,-0.011716817534500521,
0.05600997506234414,0.008574393107486875,
0.056059850374064836,-0.00787328330139006,
0.05610972568578554,-0.0020113346551302105,
0.056159600997506234,-0.0029165292050681597,
0.05620947630922693,0.02085040421152136,
0.05625935162094763,0.007792740875603037,
0.05630922693266833,0.010882646001654762,
0.056359102244389024,0.022069427772534372,
0.05640897755610973,0.008952186434584352,
0.05645885286783042,0.03271433232186253,
0.056508728179551125,0.02323553909419214,
0.05655860349127182,0.005835874271721939,
0.056608478802992516,0.020067602941178913,
0.05665835411471322,0.02925419730617937,
0.056708229426433915,0.03848339586197916,
0.05675810473815461,-0.007456010340745223,
0.05680798004987531,0.002226473290920567,
0.05685785536159601,0.030424314313323788,
0.05690773067331671,0.025289836835813442,
0.05695760598503741,0.0013877447622119097,
0.0570074812967581,0.013473029157809653,
0.057057356608478806,0.01978686584538742,
0.0571072319201995,0.02500006757702004,
0.0571571072319202,0.038639905621776244,
0.0572069825436409,0.01579031929414614,
0.057256857855361595,0.018796072748321003,
0.05730673316708229,0.010061220957273756,
0.057356608478802994,0.03184545141458209,
0.05740648379052369,0.04399103960712007,
0.05745635910224439,0.043067309723044206,
0.05750623441396509,0.019249090473478177,
0.05755610972568578,0.004037849125827811,
0.057605985037406486,0.03191864396969228,
0.05765586034912718,0.04951356495732935,
0.05770573566084788,0.012183273384138072,
0.05775561097256858,0.011827366428672624,
0.057805486284289276,0.03839501101273504,
0.05785536159600998,0.02546794924462368,
0.057905236907730674,0.03570531002475551,
0.05795511221945137,0.003669932963589733,
0.05800498753117207,-0.00047317977917148146,
0.05805486284289277,0.028035225802321692,
0.058104738154613464,0.005527920731950834,
0.05815461346633417,0.021327743238787906,
0.05820448877805486,0.04384286645755192,
0.05825436408977556,-0.0020139224028284074,
0.05830423940149626,0.014459148000911488,
0.058354114713216956,0.034254970571499066,
0.05840399002493766,0.026097454448491604,
0.058453865336658355,0.040294726609537576,
0.05850374064837905,0.00496765294325071,
0.05855361596009975,-0.0017344642327666616,
0.05860349127182045,-0.005038696545333645,
0.058653366583541144,0.02990734458599606,
0.05870324189526185,0.021771953337945828,
0.05875311720698254,0.016718067202922196,
0.05880299251870324,0.027153901833369593,
0.05885286783042394,0.016919067271666567,
0.05890274314214464,0.03373952770393899,
0.05895261845386534,0.012041866014302955,
0.059002493765586035,0.045423914449685666,
0.05905236907730673,0.025110069072266192,
0.059102244389027433,0.04747823571429237,
0.05915211970074813,0.0326365500399479,
0.059201995012468825,0.011536174538647562,
0.05925187032418953,0.014065618238675803,
0.05930174563591022,0.03742459823317173,
0.059351620947630926,0.006193559659958145,
0.05940149625935162,0.020647291997999192,
0.05945137157107232,0.011707526829842661,
0.05950124688279302,0.015914987747317116,
0.059551122194513716,0.025588227393244747,
0.05960099750623441,0.02108680362207875,
0.059650872817955114,0.03272865369485752,
0.05970074812967581,-0.010155669296841613,
0.059750623441396505,0.01459790523725319,
0.05980049875311721,0.050727124095016715,
0.059850374064837904,0.02331344219656804,
0.059900249376558606,0.031163428626079372,
0.0599501246882793,0.041644096103918955,
0.06,0.03401831879873722,
0.0600498753117207,0.04525704772019135,
0.060099750623441396,0.03280824147070979,
0.06014962593516209,0.017649528208715872,
0.060199501246882794,0.02473098131199179,
0.06024937655860349,0.029695900773487997,
0.06029925187032419,-0.0016516061504066558,
0.06034912718204489,0.024821220751357603,
0.060399002493765584,0.02305004326398079,
0.06044887780548629,-0.0005502248221600572,
0.06049875311720698,0.046813115259288086,
0.06054862842892768,0.037555330166308874,
0.06059850374064838,0.044258399728237474,
0.06064837905236908,0.024381653393130004,
0.06069825436408977,-0.0050799650221226705,
0.060748129675810475,0.02529322300674217,
0.06079800498753117,0.02889505566590399,
0.06084788029925187,0.026144423405073277,
0.06089775561097257,0.03429808667435018,
0.060947630922693265,-0.008133127495453644,
0.06099750623441397,0.034630577347537696,
0.06104738154613466,0.01280413149456061,
0.06109725685785536,0.025008422974007113,
0.06114713216957606,0.053081497676666256,
0.06119700748129676,-0.002069398705700519,
0.06124688279301746,0.0019358799881391449,
0.061296758104738155,0.05020623550469306,
0.06134663341645885,0.028485706034908326,
0.061396508728179554,0.012052558085188644,
0.06144638403990025,0.010012398530046082,
0.061496259351620945,0.020619783843453764,
0.06154613466334165,0.02944823113900824,
0.061596009975062344,0.03323659943986472,
0.06164588528678304,0.03323403899015975,
0.06169576059850374,0.004800433738715117,
0.06174563591022444,0.01110811615463872,
0.06179551122194514,0.023204535633085575,
0.061845386533665836,0.019820331174920623,
0.06189526184538653,0.03735480856398856,
0.061945137157107234,0.009793570399707529,
0.06199501246882793,0.021122053014748978,
0.062044887780548626,0.012972487689077888,
0.06209476309226933,0.02978289974457926,
0.062144638403990024,0.021152023031643354,
0.06219451371571072,0.03487115749583517,
0.06224438902743142,-0.01578329528322802,
0.06229426433915212,0.03842731707468035,
0.06234413965087282,0.015930519599272712,
0.062394014962593516,0.004789685391367454,
0.06244389027431421,0.011868575618424334,
0.062493765586034915,0.026077185271201037,
0.06254364089775562,0.03143759952921661,
0.06259351620947631,0.014955295243819089,
0.06264339152119701,0.014817997200035377,
0.0626932668329177,0.018879824740224576,
0.0627431421446384,0.028819817850611815,
0.0627930174563591,0.03384891130095218,
0.0628428927680798,0.007447987050207919,
0.0628927680798005,-0.0033926778271574642,
0.0629426433915212,0.011548597782200128,
0.06299251870324189,0.01747202157555046,
0.06304239401496259,0.02226817117279247,
0.0630922693266833,0.026073364296802622,
0.063142144638404,0.01909027800884018,
0.06319201995012469,0.03297415586215551,
0.06324189526184539,0.03355080086649353,
0.06329177057356608,0.02216668188926571,
0.06334164588528678,0.025645215412088133,
0.06339152119700749,0.025773724974932848,
0.06344139650872818,0.02896350110178606,
0.06349127182044888,0.015967328174553444,
0.06354114713216957,-0.007088001422506398,
0.06359102244389027,0.014648605042093001,
0.06364089775561098,0.012260020067836842,
0.06369077306733167,0.0034955496019819197,
0.06374064837905237,0.02071989678335106,
0.06379052369077307,0.008293020969600542,
0.06384039900249376,-0.022264218874821023,
0.06389027431421446,0.013192635650533498,
0.06394014962593517,0.02480555598583193,
0.06399002493765586,0.01672026249371905,
0.06403990024937656,0.03084107385374546,
0.06408977556109725,0.01753405557341742,
0.06413965087281795,0.016444043937633837,
0.06418952618453866,0.03231133573382878,
0.06423940149625935,0.04302361058629964,
0.06428927680798005,-0.0033419937972411426,
0.06433915211970075,-0.0018914621908077776,
0.06438902743142144,0.013657231152230706,
0.06443890274314215,-0.00040422107254649113,
0.06448877805486285,0.029020466299029136,
0.06453865336658354,0.01896461766302826,
0.06458852867830424,0.001263578207248062,
0.06463840399002493,0.013968930626517145,
0.06468827930174563,0.014970620238973869,
0.06473815461346634,0.013232577437730896,
0.06478802992518704,-0.02842268924757495,
0.06483790523690773,0.02923407515957331,
0.06488778054862843,0.022924555913334303,
0.06493765586034912,0.0295457748178668,
0.06498753117206983,-0.010356742622729958,
0.06503740648379053,-0.017562649265290088,
0.06508728179551122,0.021417804750667884,
0.06513715710723192,0.01586432377656173,
0.06518703241895261,0.008961583981249079,
0.06523690773067331,-0.009702425019943886,
0.06528678304239402,0.004996166943024517,
0.06533665835411472,0.013269013763116937,
0.06538653366583541,0.0034903201868806025,
0.06543640897755611,-0.026619552685906607,
0.0654862842892768,-0.02097159436884031,
0.06553615960099751,-0.013536034077108475,
0.06558603491271821,0.02670900573002505,
0.0656359102244389,7.237038818770896e-06,
0.0656857855361596,0.0167080133761664,
0.0657356608478803,-0.018070971524317154,
0.06578553615960099,0.030509724891563783,
0.0658354114713217,-0.005515881190290417,
0.0658852867830424,0.021368866476621073,
0.06593516209476309,0.015837057853221318,
0.06598503740648379,-0.006667863521003779,
0.06603491271820448,-0.013515035742637318,
0.06608478802992519,-0.002587318774496103,
0.06613466334164589,-0.009834601705333288,
0.06618453865336658,0.029075282462787393,
0.06623441396508728,-0.01312266352347136,
0.06628428927680798,-0.01498509643420997,
0.06633416458852869,-0.01271730571081281,
0.06638403990024938,-0.023898014730561672,
0.06643391521197008,0.005025536885082661,
0.06648379052369077,-0.0036740138191594363,
0.06653366583541147,0.007791059050277359,
0.06658354114713216,-0.022010492223400797,
0.06663341645885287,-0.00794922366498891,
0.06668329177057357,0.02144438605396545,
0.06673316708229426,-0.023155882450346776,
0.06678304239401496,-0.0016428492083252304,
0.06683291770573566,0.004805326935774847,
0.06688279301745637,0.001548835358631118,
0.06693266832917706,-0.01597189201713544,
0.06698254364089776,-0.031064811948300446,
0.06703241895261845,0.01905056536484,
0.06708229426433915,0.028947493261239417,
0.06713216957605984,-0.030083081172796795,
0.06718204488778055,-0.02252697345981099,
0.06723192019950125,0.01738806917099803,
0.06728179551122195,-0.01058503092812664,
0.06733167082294264,-0.017720130929028716,
0.06738154613466334,-0.014414459022009676,
0.06743142144638405,0.008529525519614231,
0.06748129675810474,-0.024771756574170058,
0.06753117206982544,-0.01239581832738781,
0.06758104738154613,-0.025235096595086822,
0.06763092269326683,-0.014785732414468011,
0.06768079800498752,-0.019027085213959603,
0.06773067331670823,0.0014406021631894368,
0.06778054862842893,-0.014889418330860577,
0.06783042394014963,-0.006505706956033988,
0.06788029925187032,-0.020045999307501543,
0.06793017456359102,-0.02455674573767054,
0.06798004987531173,-0.00871672617607173,
0.06802992518703242,-0.012063235169790722,
0.06807980049875312,-0.001825613373320753,
0.06812967581047381,-0.008131347962015676,
0.06817955112219451,0.02156383370468496,
0.0682294264339152,-0.005151021662928147,
0.06827930174563591,0.011054420523539193,
0.06832917705735661,-0.022771855835480047,
0.0683790523690773,-0.008536478675781268,
0.068428927680798,-0.032171725839325815,
0.0684788029925187,-0.026534673855656794,
0.06852867830423941,-0.034554921631035414,
0.0685785536159601,-0.02980245288713224,
0.0686284289276808,-0.028875348727266416,
0.0686783042394015,-0.040210112759139036,
0.06872817955112219,-0.008967070117814314,
0.0687780548628429,-0.03918805662847337,
0.0688279301745636,-0.038667499123523554,
0.06887780548628429,0.00792514080769561,
0.06892768079800499,-0.010353872325830907,
0.06897755610972568,-0.03335750989319371,
0.06902743142144638,-0.010386761971344166,
0.06907730673316709,-0.013364437804886414,
0.06912718204488778,-0.026790029148668834,
0.06917705735660848,-0.0041805461130272285,
0.06922693266832917,-0.02611825050312982,
0.06927680798004987,0.00970333451843849,
0.06932668329177058,-0.0014746092163139077,
0.06937655860349128,-0.026304031026443922,
0.06942643391521197,-0.0034634452687160814,
0.06947630922693267,-0.025052910187647846,
0.06952618453865336,-0.017825730633849193,
0.06957605985037406,-0.026641502856985615,
0.06962593516209477,-0.018604141390903068,
0.06967581047381546,-0.017714504945123194,
0.06972568578553616,-0.024495945072813545,
0.06977556109725686,-0.012555140865203896,
0.06982543640897755,-0.016347772328367226,
0.06987531172069826,0.003796118871892684,
0.06992518703241896,-0.05154573528024428,
0.06997506234413965,-0.028653792887630564,
0.07002493765586035,-0.007892992221986583,
0.07007481296758104,-0.01888652802225945,
0.07012468827930174,-0.015057083158809693,
0.07017456359102245,-0.023000913000511575,
0.07022443890274314,0.011663304234450392,
0.07027431421446384,-0.007249060395487566,
0.07032418952618454,0.017603890231890712,
0.07037406483790523,-0.018977311746992607,
0.07042394014962594,-0.012777227479478551,
0.07047381546134664,-0.032599154559375225,
0.07052369077306733,-0.016536988147666274,
0.07057356608478803,-0.017659059211583866,
0.07062344139650872,-0.005552033772663143,
0.07067331670822943,-0.02405960137569131,
0.07072319201995013,-0.026492653071360533,
0.07077306733167082,-0.02443301351497504,
0.07082294264339152,-0.022557494916134527,
0.07087281795511222,-0.0014804796954313321,
0.07092269326683291,-0.03248537795772699,
0.07097256857855362,-0.00040395827455168114,
0.07102244389027432,-0.027561845277990826,
0.07107231920199501,0.0026197815410551085,
0.07112219451371571,0.010604943635840263,
0.0711720698254364,-0.039884073429298374,
0.07122194513715711,-0.00781969768441001,
0.07127182044887781,-0.015999333580261933,
0.0713216957605985,-0.012017754749623738,
0.0713715710723192,-0.03746825998756244,
0.0714214463840399,-0.029272372875266153,
0.07147132169576059,0.008333740280531202,
0.0715211970074813,-0.010879231760203306,
0.071571072319202,-0.014988319565091189,
0.0716209476309227,0.011895595371727805,
0.07167082294264339,0.00632700495122087,
0.07172069825436408,-0.01954703092208118,
0.0717705735660848,0.019627067791498632,
0.07182044887780549,0.005148521980747627,
0.07187032418952619,-0.0040750856416627325,
0.07192019950124688,-0.022154397442326307,
0.07197007481296758,0.00039838150034957574,
0.07201995012468827,-0.013630397739628543,
0.07206982543640898,-0.008850955964132119,
0.07211970074812968,0.0015497944721615097,
0.07216957605985037,0.0008799351219747047,
0.07221945137157107,0.0009592494773377237,
0.07226932668329177,-0.01896312253479749,
0.07231920199501247,0.011112814760430814,
0.07236907730673317,-0.029467793840008284,
0.07241895261845387,-0.04775351509259354,
0.07246882793017456,-0.040813030286508366,
0.07251870324189526,-0.019549772776133144,
0.07256857855361595,0.02290791203037234,
0.07261845386533666,-0.007521068246536861,
0.07266832917705736,-0.0032048620374158206,
0.07271820448877805,0.00038855314009722183,
0.07276807980049875,-0.03432309837633053,
0.07281795511221945,-0.0009139217077378725,
0.07286783042394016,-0.005370034508751815,
0.07291770573566085,-0.010262959890837933,
0.07296758104738155,-0.00438477450955772,
0.07301745635910224,-0.006269066671671814,
0.07306733167082294,-0.003272921237063839,
0.07311720698254365,-0.026429166646067745,
0.07316708229426434,-0.004315892571703084,
0.07321695760598504,0.008834115779325837,
0.07326683291770573,-0.012487973077596432,
0.07331670822942643,0.0061320385139812025,
0.07336658354114713,0.009407538081485006,
0.07341645885286784,-0.004817181298696124,
0.07346633416458853,0.00024116020480970633,
0.07351620947630923,-0.007353512908066559,
0.07356608478802992,0.003084372107089297,
0.07361596009975062,-0.0016153303419416676,
0.07366583541147133,-0.023471341360270598,
0.07371571072319202,-0.01804672937788882,
0.07376558603491272,0.014425913525117672,
0.07381546134663342,-0.02253542526476469,
0.07386533665835411,-0.009943939811779871,
0.0739152119700748,-0.022238631313893635,
0.07396508728179552,0.026354053912319545,
0.07401496259351621,0.018570083277828903,
0.07406483790523691,0.007784918204723743,
0.0741147132169576,-0.009909159904217285,
0.0741645885286783,0.006464259031262736,
0.07421446384039901,0.0034867369665043044,
0.0742643391521197,-0.007155731994117785,
0.0743142144638404,0.009551032058854651,
0.0743640897755611,-0.0027492571803190576,
0.07441396508728179,0.01367276637366139,
0.07446384039900249,0.017186021092376526,
0.0745137157107232,-0.0027589748663318803,
0.07456359102244389,-0.006933900076935947,
0.07461346633416459,-0.015607979257256892,
0.07466334164588528,0.006903041499117932,
0.07471321695760598,0.010831104314250764,
0.07476309226932669,0.013934964038552985,
0.07481296758104738,-0.002452458944384662,
0.07486284289276808,-0.005129521890633539,
0.07491271820448878,-0.013641940860411761,
0.07496259351620947,0.005978228473556821,
0.07501246882793017,0.016125607483998296,
0.07506234413965088,-0.027601588778513955,
0.07511221945137157,-0.009923557329105943,
0.07516209476309227,0.011953436639043087,
0.07521197007481296,0.015659881909986628,
0.07526184538653366,-0.009512723256638513,
0.07531172069825437,0.015666986507638654,
0.07536159600997507,0.024041996028488197,
0.07541147132169576,0.017114986960351325,
0.07546134663341646,0.006642134543261777,
0.07551122194513715,-0.0007356583708070137,
0.07556109725685786,-0.013812707384991785,
0.07561097256857856,-0.00564546929056036,
0.07566084788029925,0.002418490973398405,
0.07571072319201995,0.02317688528177085,
0.07576059850374064,-0.009151390724870374,
0.07581047381546134,0.02934880479234983,
0.07586034912718205,0.010317831109423746,
0.07591022443890275,0.02929753894569423,
0.07596009975062344,0.014092737958184299,
0.07600997506234414,0.016858423899788158,
0.07605985037406483,0.00966542256940771,
0.07610972568578554,0.008228317304893585,
0.07615960099750624,0.02647610217433017,
0.07620947630922693,0.006250397964622589,
0.07625935162094763,-0.016034378280573573,
0.07630922693266833,0.003939966358305702,
0.07635910224438902,0.028211030133123722,
0.07640897755610973,0.021027542722943715,
0.07645885286783043,0.01525586977079162,
0.07650872817955112,0.024393992072085934,
0.07655860349127182,0.00021070676484966078,
0.07660847880299251,0.0069675711511538565,
0.07665835411471322,-0.016041977245439425,
0.07670822942643392,0.0026570017425696334,
0.07675810473815461,-0.017793494153921677,
0.07680798004987531,0.0405177766134954,
0.076857855361596,0.036186863234773714,
0.0769077306733167,0.0113798212756871,
0.07695760598503741,0.018489180664748726,
0.0770074812967581,0.02551060812147652,
0.0770573566084788,0.0045170285891281605,
0.0771072319201995,0.012867170343847451,
0.0771571072319202,0.031702468861110264,
0.0772069825436409,0.014227584004735127,
0.0772568578553616,0.003091386706434336,
0.0773067331670823,0.03500854315938062,
0.07735660847880299,0.008969781191728634,
0.07740648379052369,0.025286207481214063,
0.0774563591022444,0.01967643180472928,
0.07750623441396509,0.027647814843875504,
0.07755610972568579,0.008105989329455159,
0.07760598503740648,0.004059932158756817,
0.07765586034912718,0.04257744542353516,
0.07770573566084787,0.01957224493496969,
0.07775561097256858,0.043235941918165086,
0.07780548628428928,0.02960417267503588,
0.07785536159600998,0.01890491229685018,
0.07790523690773067,0.030281434544110204,
0.07795511221945137,0.017505693745439414,
0.07800498753117208,0.046146968541321706,
0.07805486284289277,0.0052587660960797394,
0.07810473815461347,0.03697524072698523,
0.07815461346633416,0.012347880170985199,
0.07820448877805486,0.03913116931214236,
0.07825436408977555,0.016998833207964692,
0.07830423940149626,0.015345486463953525,
0.07835411471321696,0.030734251022289417,
0.07840399002493766,0.023685767102414133,
0.07845386533665835,0.0037883113983307494,
0.07850374064837905,0.03489370008532581,
0.07855361596009976,0.03801325964989518,
0.07860349127182045,0.023737585680278703,
0.07865336658354115,0.025560817604993166,
0.07870324189526184,0.020997609730398346,
0.07875311720698254,0.026665456652538857,
0.07880299251870324,0.03095889088626212,
0.07885286783042394,0.011815969909760861,
0.07890274314214464,0.03526623807833634,
0.07895261845386534,0.04119346876874143,
0.07900249376558603,0.03932054155706784,
0.07905236907730673,0.04559281755064795,
0.07910224438902744,0.018468030864239322,
0.07915211970074813,0.0042825967123602884,
0.07920199501246883,0.0020962571262510554,
0.07925187032418952,-0.0018897448236296806,
0.07930174563591022,-0.01172308078577234,
0.07935162094763092,0.02288380876628117,
0.07940149625935163,0.04680240055353441,
0.07945137157107232,0.021943108228216816,
0.07950124688279302,0.0021651144852983632,
0.07955112219451371,0.03535565883871135,
0.07960099750623441,0.03525224688235019,
0.07965087281795512,0.01853652254986007,
0.07970074812967581,0.035897556564877864,
0.07975062344139651,0.03535095220914348,
0.0798004987531172,0.03781627826173011,
0.0798503740648379,0.026689209230181657,
0.07990024937655861,0.01175799907169701,
0.0799501246882793,-0.0033841337883692077,
0.08,0.0031325468786997344,
0.0800498753117207,0.035280101873863816,
0.0800997506234414,0.031675523292250936,
0.08014962593516209,0.028245474691449758,
0.0801995012468828,0.041852508728313705,
0.0802493765586035,0.0466338341035511,
0.08029925187032419,0.02205973559553645,
0.08034912718204489,0.03959209015822924,
0.08039900249376558,0.018129923336739403,
0.08044887780548629,0.008230884585796298,
0.08049875311720699,0.01886026918252289,
0.08054862842892768,0.0477241571175496,
0.08059850374064838,0.0460380135113546,
0.08064837905236907,0.03870951547738012,
0.08069825436408977,0.012193546617608084,
0.08074812967581048,0.03541531705591666,
0.08079800498753117,0.04385236876160779,
0.08084788029925187,0.02912913296048085,
0.08089775561097257,0.04647535810414416,
0.08094763092269326,0.031158445836465546,
0.08099750623441397,0.042040704639185036,
0.08104738154613467,0.03578335486690282,
0.08109725685785536,0.028341101377821337,
0.08114713216957606,0.043071417422491126,
0.08119700748129675,0.034880197108015806,
0.08124688279301745,0.026658888242560304,
0.08129675810473816,0.048759743852143995,
0.08134663341645886,0.031889041104138025,
0.08139650872817955,0.036658140077873394,
0.08144638403990025,0.012530292091423431,
0.08149625935162094,0.033865496135389556,
0.08154613466334165,0.018187234839345888,
0.08159600997506235,0.01481017471162984,
0.08164588528678304,0.02974671765610844,
0.08169576059850374,0.038177102359696236,
0.08174563591022443,0.02473318358717265,
0.08179551122194513,0.06068675048384911,
0.08184538653366584,0.001562775983097276,
0.08189526184538654,-0.006117784702031066,
0.08194513715710723,0.014083011880140208,
0.08199501246882793,0.014562662849742346,
0.08204488778054862,0.0536885494863507,
0.08209476309226933,0.03508587357576312,
0.08214463840399003,0.011305939335151265,
0.08219451371571072,0.021717127967181442,
0.08224438902743142,0.009742877539020155,
0.08229426433915212,0.02552955407236285,
0.08234413965087282,0.05303302870729888,
0.08239401496259352,0.017817209266519987,
0.08244389027431422,0.04944013807632758,
0.08249376558603491,0.024149034031593724,
0.08254364089775561,0.03752354774637092,
0.0825935162094763,0.014362024419557449,
0.08264339152119701,0.023204185542406167,
0.08269326683291771,0.01745566933930589,
0.0827431421446384,0.026341371248191095,
0.0827930174563591,0.019477647620257346,
0.0828428927680798,0.02331314030580249,
0.0828927680798005,0.0675413948300623,
0.0829426433915212,0.039830638051953964,
0.0829925187032419,0.007050075009519393,
0.08304239401496259,0.008499008233979491,
0.08309226932668329,0.028035413573047983,
0.08314214463840398,0.017224517135858926,
0.0831920199501247,0.026044066696324735,
0.08324189526184539,0.012303008400420836,
0.08329177057356608,0.014749754423002144,
0.08334164588528678,-0.00021125618865498394,
0.08339152119700748,-0.004791781484941495,
0.08344139650872819,-0.01547623986029623,
0.08349127182044888,0.04474251539537351,
0.08354114713216958,0.009172184011315612,
0.08359102244389027,0.017761819680286114,
0.08364089775561097,0.025486832346897935,
0.08369077306733166,0.0036716667440535224,
0.08374064837905237,0.01045279076691383,
0.08379052369077307,0.01333177773464286,
0.08384039900249377,0.011162092115840381,
0.08389027431421446,0.017315267983600943,
0.08394014962593516,0.004124298744289687,
0.08399002493765587,0.02667255858030798,
0.08403990024937656,0.009378013384586681,
0.08408977556109726,-0.004727583970932061,
0.08413965087281795,0.022760129275364503,
0.08418952618453865,0.011549571824011732,
0.08423940149625936,0.00889492281060693,
0.08428927680798005,-0.0045841686861512465,
0.08433915211970075,0.01938274155764347,
0.08438902743142145,0.03122759595108234,
0.08443890274314214,0.02461976614324564,
0.08448877805486284,-0.00864911505285536,
0.08453865336658355,0.021589736598565796,
0.08458852867830424,0.004442481862765619,
0.08463840399002494,0.017183925896784056,
0.08468827930174563,0.026138303452842526,
0.08473815461346633,0.015305688581912995,
0.08478802992518704,0.0026119036433410545,
0.08483790523690773,0.0023237251118464457,
0.08488778054862843,-0.008480013929608902,
0.08493765586034913,0.009387076023344005,
0.08498753117206982,0.02446914193014188,
0.08503740648379052,-0.002799995801202902,
0.08508728179551123,-0.009328313411536145,
0.08513715710723192,-0.012535332789026164,
0.08518703241895262,0.03143095882599,
0.08523690773067331,0.017085739189499086,
0.08528678304239401,-0.007327572419686157,
0.08533665835411472,-0.013871880728637901,
0.08538653366583542,0.005299417137046417,
0.08543640897755611,0.029351640938517005,
0.0854862842892768,0.01581395304000257,
0.0855361596009975,0.0299850418235669,
0.0855860349127182,0.011867645380562033,
0.08563591022443891,0.00025896783589459803,
0.0856857855361596,-0.007309981127026754,
0.0857356608478803,0.029823372459295054,
0.085785536159601,0.004861384475051509,
0.08583541147132169,-0.017424992760659973,
0.0858852867830424,0.0028978873589826344,
0.0859351620947631,0.0047342200382159486,
0.08598503740648379,0.02026979678137858,
0.08603491271820449,-0.002724358598421144,
0.08608478802992518,-0.011208662694801617,
0.08613466334164588,0.005252296305660564,
0.08618453865336659,0.006259336342150342,
0.08623441396508728,-0.02347675828910046,
0.08628428927680798,-0.0029422239819612717,
0.08633416458852868,-0.03538048784010332,
0.08638403990024937,0.02761339382009808,
0.08643391521197008,0.01243146318522208,
0.08648379052369078,0.03236566181323466,
0.08653366583541147,0.006242306209305208,
0.08658354114713217,-0.002163945167673211,
0.08663341645885286,0.003104555273749662,
0.08668329177057357,-0.00670626194845594,
0.08673316708229427,0.017991116835868053,
0.08678304239401496,0.01825834342951058,
0.08683291770573566,-0.016028760614204447,
0.08688279301745636,-0.00522105487242563,
0.08693266832917705,-0.04754148481892853,
0.08698254364089776,-0.003372096397209993,
0.08703241895261846,0.01605906228440833,
0.08708229426433915,-0.006697471899005972,
0.08713216957605985,0.005315852099176483,
0.08718204488778054,-0.010034541121160423,
0.08723192019950125,-0.01488596088886709,
0.08728179551122195,-0.004009728331120944,
0.08733167082294264,-0.025365282435625774,
0.08738154613466334,0.01927308322908513,
0.08743142144638404,-0.008804072253440548,
0.08748129675810473,-0.01136873870774932,
0.08753117206982544,0.013226417477572111,
0.08758104738154614,-0.02319840889623002,
0.08763092269326683,-0.018060287517816433,
0.08768079800498753,-2.2256214725716386e-05,
0.08773067331670822,-0.022609981374674945,
0.08778054862842893,-0.028674525636306302,
0.08783042394014963,0.0018203550037208544,
0.08788029925187033,0.013203181528695778,
0.08793017456359102,-0.0006899399921159602,
0.08798004987531172,-0.009115679794639085,
0.08802992518703241,-0.0034357065156909537,
0.08807980049875312,0.010811922124215886,
0.08812967581047382,-0.036993091778296544,
0.08817955112219451,0.011102934987865586,
0.08822942643391521,-0.028655529987054347,
0.0882793017456359,-0.028568341161920627,
0.08832917705735661,-0.009213797847765028,
0.08837905236907731,-0.00651411134911729,
0.088428927680798,-0.016544495115691976,
0.0884788029925187,-0.0015815046010172647,
0.0885286783042394,-0.010322656552929632,
0.0885785536159601,-0.0071358710249443385,
0.0886284289276808,0.013021535288644847,
0.0886783042394015,-0.010332145503456687,
0.0887281795511222,-0.0011590471743008566,
0.08877805486284289,0.009031271419010532,
0.08882793017456359,-0.009108975643576048,
0.0888778054862843,0.0034490034880340324,
0.08892768079800499,-0.03886179977348798,
0.08897755610972569,-0.001571524004213511,
0.08902743142144638,-0.01116687079809594,
0.08907730673316708,0.015325321478013756,
0.08912718204488779,-0.02178367326831985,
0.08917705735660848,-0.005743217778649094,
0.08922693266832918,-0.02894712939827627,
0.08927680798004987,-0.0010379313597068084,
0.08932668329177057,-0.026442796503549547,
0.08937655860349127,-0.02820061676359008,
0.08942643391521198,-0.0015396500405315504,
0.08947630922693267,0.01468391247518508,
0.08952618453865337,-0.007221709336955389,
0.08957605985037406,-0.008370904394336678,
0.08962593516209476,-0.008818918515064555,
0.08967581047381547,-0.0005761348985159204,
0.08972568578553616,-0.02079568057712259,
0.08977556109725686,-0.00426155992031773,
0.08982543640897755,-0.030223475528251675,
0.08987531172069825,-0.02441946590872334,
0.08992518703241895,-0.013163316045941736,
0.08997506234413966,-0.02785535439331336,
0.09002493765586035,-0.026883179282800332,
0.09007481296758105,-0.014700157019170362,
0.09012468827930174,-0.00960306632224931,
0.09017456359102244,-0.004564227094685208,
0.09022443890274315,-0.0016822986965078762,
0.09027431421446384,-0.03573828612978806,
0.09032418952618454,-0.007001871770944682,
0.09037406483790524,-0.02101319993128139,
0.09042394014962593,-0.026066035534926348,
0.09047381546134663,-0.03336208957291825,
0.09052369077306734,-0.027198150920447264,
0.09057356608478803,-0.028982312989331405,
0.09062344139650873,-0.0036771147815725692,
0.09067331670822942,-0.0025871231784918187,
0.09072319201995012,0.02671514098061848,
0.09077306733167083,-0.022880620457613028,
0.09082294264339152,0.006142426689871475,
0.09087281795511222,-0.023840170181784182,
0.09092269326683292,0.00016774724735270884,
0.09097256857855361,-0.04011528624951585,
0.09102244389027432,-0.02997581865856878,
0.09107231920199502,-0.03346311032549725,
0.09112219451371571,-0.02764806027770372,
0.09117206982543641,-0.012989542502713565,
0.0912219451371571,-0.026715136268821806,
0.0912718204488778,-0.006880750467951868,
0.09132169576059851,-0.01333497585911912,
0.0913715710723192,-0.01841354347392907,
0.0914214463840399,-0.013177192389993103,
0.0914713216957606,-0.022782841266353677,
0.09152119700748129,-0.005985610011158374,
0.091571072319202,-0.010690176375542076,
0.0916209476309227,-0.014277311705626353,
0.09167082294264339,-0.027749485503551895,
0.09172069825436409,-0.031098186436751954,
0.09177057356608478,-0.0375019997479449,
0.09182044887780548,-0.023647141814735234,
0.09187032418952619,-0.013170728744113758,
0.09192019950124689,0.007151811527938642,
0.09197007481296758,-0.025996550479216327,
0.09201995012468828,-0.01702051981858254,
0.09206982543640897,-0.007942854235686494,
0.09211970074812968,0.017455578341340504,
0.09216957605985038,0.0011575927364830645,
0.09221945137157107,-0.021075439869234762,
0.09226932668329177,-0.004254544041380234,
0.09231920199501246,-0.012256255161276418,
0.09236907730673316,-0.03727951379603123,
0.09241895261845387,-0.020372451053222097,
0.09246882793017457,0.00013610860444061498,
0.09251870324189526,-0.01581295441104745,
0.09256857855361596,-0.008516074345654434,
0.09261845386533665,-0.029813023278022988,
0.09266832917705736,-0.016831428510478825,
0.09271820448877806,0.004006470741451466,
0.09276807980049875,-0.007067758166096113,
0.09281795511221945,-0.00040869178714023156,
0.09286783042394015,-0.006907937159470901,
0.09291770573566084,-0.014965704454141257,
0.09296758104738155,-0.032108408408598,
0.09301745635910225,-0.026628863089403827,
0.09306733167082294,-0.024333722578999517,
0.09311720698254364,-0.024867614845730163,
0.09316708229426433,-0.0038828095378899133,
0.09321695760598504,-0.012003202517729135,
0.09326683291770574,-0.0030815508882241337,
0.09331670822942643,0.0064244558289803825,
0.09336658354114713,-0.001603784922545995,
0.09341645885286783,0.02733646508452366,
0.09346633416458854,-0.009603768196320209,
0.09351620947630923,0.016436175566773747,
0.09356608478802993,0.009268770427531207,
0.09361596009975062,-0.034392437452772054,
0.09366583541147132,-0.011672420182338895,
0.09371571072319201,-0.005193628838926426,
0.09376558603491272,-0.016980524916343418,
0.09381546134663342,0.014576261066247796,
0.09386533665835411,-0.018523618724815658,
0.09391521197007481,-0.010807577787532517,
0.0939650872817955,-0.01114357224257319,
0.09401496259351622,-0.003515023207500031,
0.09406483790523691,-0.013359644760992818,
0.09411471321695761,0.02111375906271783,
0.0941645885286783,-0.0041445545451385445,
0.094214463840399,-0.01771926307670249,
0.0942643391521197,0.011867757562332156,
0.0943142144638404,-0.012665271819804962,
0.0943640897755611,0.0031502974623217467,
0.0944139650872818,0.010383961076949694,
0.09446384039900249,0.03326736594209771,
0.09451371571072319,-0.025726705248242835,
0.0945635910224439,-0.0028595135675722402,
0.09461346633416459,-0.009082479646856746,
0.09466334164588529,0.008591898864669012,
0.09471321695760598,0.012502083293821551,
0.09476309226932668,0.0073932245341763545,
0.09481296758104737,-0.01398026512071232,
0.09486284289276808,0.012001051635677527,
0.09491271820448878,0.002091682096643392,
0.09496259351620948,-0.015221302602371223,
0.09501246882793017,-0.02333428283669122,
0.09506234413965087,0.007432352546372612,
0.09511221945137158,0.02550152586702098,
0.09516209476309227,-0.012292475284751731,
0.09521197007481297,0.012230088766349317,
0.09526184538653366,0.008485373830535345,
0.09531172069825436,-0.00691155707285723,
0.09536159600997507,-0.0188429526196495,
0.09541147132169576,0.036682310879978204,
0.09546134663341646,0.015095725063746776,
0.09551122194513716,0.01656798485040578,
0.09556109725685785,0.027129861215888097,
0.09561097256857855,0.017989034750202505,
0.09566084788029926,0.026673170786515522,
0.09571072319201995,0.002670849248102996,
0.09576059850374065,-0.003428320929385973,
0.09581047381546134,-0.006986354302166693,
0.09586034912718204,-0.0013171807564961897,
0.09591022443890275,-0.011105816251802497,
0.09596009975062345,0.001765916231905017,
0.09600997506234414,0.002792698940561028,
0.09605985037406484,0.013138855345788365,
0.09610972568578553,0.02383387499022193,
0.09615960099750623,0.0027799803527109763,
0.09620947630922694,0.02453149537263488,
0.09625935162094763,0.022385136754182015,
0.09630922693266833,0.0066481847121038174,
0.09635910224438902,-0.007348286378408968,
0.09640897755610972,0.02706741015574248,
0.09645885286783043,0.03040658539151877,
0.09650872817955113,-0.002406440754246659,
0.09655860349127182,0.022304417718700884,
0.09660847880299252,-0.019680494523441158,
0.09665835411471321,-0.016056711195306633,
0.09670822942643391,0.009375993509628894,
0.09675810473815462,0.011683912288160549,
0.09680798004987531,0.007148880054772166,
0.09685785536159601,0.024476440962438624,
0.0969077306733167,0.009663331842371939,
0.0969576059850374,0.0029554051215789877,
0.09700748129675811,0.012273273309091157,
0.0970573566084788,0.009829618883766857,
0.0971072319201995,0.05920046742598992,
0.0971571072319202,0.01967011928354588,
0.0972069825436409,0.010382909554311596,
0.09725685785536159,0.021510528844044828,
0.0973067331670823,0.03305198109559269,
0.097356608478803,-0.016951605096294335,
0.09740648379052369,0.03723374429666316,
0.09745635910224439,0.004306052082033664,
0.09750623441396508,0.018825564505173357,
0.09755610972568579,0.03395837773825924,
0.09760598503740649,0.022517386119332353,
0.09765586034912718,0.02529361739827563,
0.09770573566084788,0.028850081707596214,
0.09775561097256857,0.040206732178324794,
0.09780548628428928,0.03738812679903289,
0.09785536159600998,0.010501880442548324,
0.09790523690773068,0.03805659963766023,
0.09795511221945137,0.050261565561022396,
0.09800498753117207,0.016812770018172482,
0.09805486284289276,0.03264458700327352,
0.09810473815461347,0.020159441869891742,
0.09815461346633417,0.035685078321559344,
0.09820448877805486,0.039165228520320866,
0.09825436408977556,0.021575666018689914,
0.09830423940149625,0.019879137746473277,
0.09835411471321696,0.01758535952279538,
0.09840399002493766,0.03443583616281544,
0.09845386533665836,0.021838546583371712,
0.09850374064837905,0.05819238123259277,
0.09855361596009975,0.015416231800044387,
0.09860349127182044,0.022000243341653323,
0.09865336658354115,0.040910282978991214,
0.09870324189526185,0.017437139982663434,
0.09875311720698254,0.030461883694937287,
0.09880299251870324,0.03474218370113392,
0.09885286783042393,0.013703945714711795,
0.09890274314214464,0.019784677584146683,
0.09895261845386534,0.014969878032075673,
0.09900249376558604,0.02992590258599035,
0.09905236907730673,0.012000746471844499,
0.09910224438902743,0.02022921358956747,
0.09915211970074812,0.017659862444179122,
0.09920199501246883,0.04533435773274715,
0.09925187032418953,0.04210804044195427,
0.09930174563591022,0.015594078197998917,
0.09935162094763092,0.011270090133463542,
0.09940149625935162,0.04534307525552469,
0.09945137157107233,0.015566068940488328,
0.09950124688279302,0.04429391743040173,
0.09955112219451372,0.028810781009609963,
0.09960099750623441,0.0277560234823407,
0.09965087281795511,-0.0010861523012807087,
0.0997007481296758,0.029713514733936335,
0.09975062344139651,0.03378965606899845,
0.09980049875311721,0.01730051866633031,
0.0998503740648379,0.010843173196073044,
0.0999002493765586,0.022915143567602873,
0.0999501246882793,0.016395200592869037,
0.1,0.039596615441699776,
0.1000498753117207,0.01650188204860529,
0.1000997506234414,0.034567249197806474,
0.10014962593516209,0.0401808912789039,
0.10019950124688279,0.02603411928054942,
0.1002493765586035,0.03667535449407739,
0.1002992518703242,0.014320499118219832,
0.10034912718204489,0.008615944762833071,
0.10039900249376559,0.039303345540009686,
0.10044887780548628,0.025366911390984317,
0.10049875311720698,0.0027450265121591426,
0.10054862842892769,0.028475640946387666,
0.10059850374064838,0.03411769006992548,
0.10064837905236908,0.034456682886208706,
0.10069825436408977,0.02590945749990827,
0.10074812967581047,0.018003121445187568,
0.10079800498753118,0.011922005810141372,
0.10084788029925187,0.03226325044816764,
0.10089775561097257,0.04960754292094319,
0.10094763092269327,0.034582200335317094,
0.10099750623441396,0.024479923270007815,
0.10104738154613466,0.044359456125361185,
0.10109725685785537,0.04607371845945904,
0.10114713216957606,0.030138461393834342,
0.10119700748129676,0.03788890803410582,
0.10124688279301745,0.00631090826127324,
0.10129675810473815,0.014389327191260994,
0.10134663341645886,0.02924107429759735,
0.10139650872817955,0.031702524648338205,
0.10144638403990025,0.027875943392983882,
0.10149625935162095,0.03842401361303173,
0.10154613466334164,0.011123283094752714,
0.10159600997506234,0.003928299325611451,
0.10164588528678305,0.033677894624072904,
0.10169576059850374,0.03407070076135896,
0.10174563591022444,0.019501225604336758,
0.10179551122194513,-0.004696501527148331,
0.10184538653366583,0.004971731560559144,
0.10189526184538654,0.02312814599988895,
0.10194513715710724,0.023610572223713003,
0.10199501246882793,0.02132407050352405,
0.10204488778054863,0.04757644249765904,
0.10209476309226932,0.035865549975346266,
0.10214463840399003,0.05321315315350808,
0.10219451371571073,0.026091974238750912,
0.10224438902743142,0.03390113264714585,
0.10229426433915212,0.04082605239395269,
0.10234413965087281,0.0021910151636113477,
0.10239401496259351,0.046663590508608355,
0.10244389027431422,0.0425155950597669,
0.10249376558603492,0.01598331058428657,
0.10254364089775561,0.007515753153372211,
0.10259351620947631,0.047111956109178885,
0.102643391521197,0.03769235523668754,
0.10269326683291771,0.04544354996532679,
0.10274314214463841,0.025198776373137798,
0.1027930174563591,0.01191306053054176,
0.1028428927680798,-0.005288060279451737,
0.1028927680798005,0.02877485290781742,
0.10294264339152119,0.031941620019573486,
0.1029925187032419,0.024440425564197586,
0.1030423940149626,9.728821769297222e-05,
0.10309226932668329,0.0208984257409349,
0.10314214463840399,0.014440576925581946,
0.10319201995012468,0.02423690033618467,
0.10324189526184539,0.024584050232450073,
0.10329177057356609,-0.0034524745239447804,
0.10334164588528678,0.003833721418590036,
0.10339152119700748,0.01247966497113136,
0.10344139650872818,0.014015597759616971,
0.10349127182044887,0.03660329137266519,
0.10354114713216958,-0.001784015809757053,
0.10359102244389028,0.01365826608125734,
0.10364089775561097,0.0190569534896624,
0.10369077306733167,0.0016516956199453987,
0.10374064837905236,-0.011204130029364118,
0.10379052369077307,0.0024017294232315817,
0.10384039900249377,0.009638638981688069,
0.10389027431421446,0.05133385288783025,
0.10394014962593516,-0.011320167105037058,
0.10399002493765586,0.023447012854974334,
0.10403990024937655,0.020329025538452113,
0.10408977556109726,2.308687187772135e-05,
0.10413965087281796,0.02240888160705371,
0.10418952618453865,0.006837681246209138,
0.10423940149625935,-0.007790162869933909,
0.10428927680798004,0.02287557452880521,
0.10433915211970075,-0.0012562962401545651,
0.10438902743142145,0.007052753576374699,
0.10443890274314215,0.012500693397370323,
0.10448877805486284,-0.015548233634123483,
0.10453865336658354,0.012168367938956152,
0.10458852867830425,0.022384398283614913,
0.10463840399002494,0.005721414972268856,
0.10468827930174564,0.0026822724067164187,
0.10473815461346633,0.007312256005162002,
0.10478802992518703,0.04253036142354677,
0.10483790523690772,0.027274149666410834,
0.10488778054862843,0.000944304889865381,
0.10493765586034913,-0.02084485382773982,
0.10498753117206983,0.021059965149033355,
0.10503740648379052,0.006852764957146462,
0.10508728179551122,0.001818434835244913,
0.10513715710723193,-0.002633649546545165,
0.10518703241895262,0.036108192263817424,
0.10523690773067332,0.02618857163443835,
0.10528678304239401,-0.02795710976646475,
0.10533665835411471,-0.018270786528229187,
0.1053865336658354,-0.007091178450891373,
0.10543640897755611,0.00629811542230057,
0.10548628428927681,0.013547729261119006,
0.1055361596009975,0.010272096223123129,
0.1055860349127182,0.029944477948915412,
0.1056359102244389,-0.013516342996456763,
0.10568578553615961,0.024427487845383202,
0.1057356608478803,-0.020991878650161645,
0.105785536159601,0.03220023438524816,
0.1058354114713217,0.022539552511967466,
0.10588528678304239,-0.002921224303789185,
0.10593516209476309,0.012505064571261553,
0.1059850374064838,-0.011317622021143201,
0.10603491271820449,0.006517495563888727,
0.10608478802992519,-0.012165001358670538,
0.10613466334164588,0.005088807715913633,
0.10618453865336658,0.03330553206870279,
0.10623441396508729,-0.010543282417455453,
0.10628428927680798,0.010257658406747833,
0.10633416458852868,-0.03552212178272766,
0.10638403990024937,0.025897706089953752,
0.10643391521197007,0.014311699993616537,
0.10648379052369077,-0.008224095410504846,
0.10653366583541148,0.0033622762659260693,
0.10658354114713217,-0.004590158774632107,
0.10663341645885287,-0.007204054856220577,
0.10668329177057356,0.005830750947089561,
0.10673316708229426,-0.018613239026828203,
0.10678304239401497,0.0033687063513771947,
0.10683291770573566,-0.005767898610503732,
0.10688279301745636,-0.019450444580480584,
0.10693266832917706,0.006513566635990148,
0.10698254364089775,-0.00801785392366202,
0.10703241895261846,0.017395093532524983,
0.10708229426433916,0.004582302387410708,
0.10713216957605985,-0.00985636877674246,
0.10718204488778055,0.015000467843043245,
0.10723192019950124,-0.030341911616263113,
0.10728179551122194,0.01999021752350304,
0.10733167082294265,0.013101170527697575,
0.10738154613466334,-0.006215363597891292,
0.10743142144638404,-0.0076518033808563105,
0.10748129675810474,-0.030430430319441194,
0.10753117206982543,-4.755529220095648e-05,
0.10758104738154614,-0.019569695228860352,
0.10763092269326684,0.0026579317614433724,
0.10768079800498753,-0.03669880131381343,
0.10773067331670823,-0.003998397063649989,
0.10778054862842892,0.0065050812232672825,
0.10783042394014962,0.0011023702810949113,
0.10788029925187033,0.00875892998006319,
0.10793017456359102,-0.02294744671050217,
0.10798004987531172,0.011734278705110601,
0.10802992518703242,-0.031350209413140095,
0.10807980049875311,-0.009926457799182078,
0.10812967581047382,-0.007036164180120303,
0.10817955112219452,-0.034259499988962494,
0.10822942643391521,-0.006230998154626485,
0.10827930174563591,9.447880549963948e-05,
0.1083291770573566,-0.009729400573125485,
0.1083790523690773,0.006969802759856047,
0.10842892768079801,-0.015638693675969883,
0.1084788029925187,-0.02662176520990596,
0.1085286783042394,-0.029459599772747327,
0.1085785536159601,-0.015311871059619177,
0.10862842892768079,-0.0009201563740028201,
0.1086783042394015,-0.02562262251753337,
0.1087281795511222,-0.04007916935979435,
0.1087780548628429,-0.011256998285153624,
0.10882793017456359,-0.03186649517986216,
0.10887780548628428,-0.006487987239791179,
0.108927680798005,-0.03937348266061564,
0.10897755610972569,0.01268537031056756,
0.10902743142144639,-0.03662063809849554,
0.10907730673316708,-0.00030233060081252816,
0.10912718204488778,-0.023030905319967116,
0.10917705735660847,-0.03053179622032904,
0.10922693266832918,0.0022884754363859915,
0.10927680798004988,0.00720556997970284,
0.10932668329177057,-0.011742574134331675,
0.10937655860349127,-0.002204337818535667,
0.10942643391521197,-0.025112093640371806,
0.10947630922693267,-0.034830835547251436,
0.10952618453865337,-0.016733257343610614,
0.10957605985037407,-0.018207271823480524,
0.10962593516209476,0.006960555424950833,
0.10967581047381546,-0.011561852508293561,
0.10972568578553615,-0.018022762601585057,
0.10977556109725686,-0.018474916418143028,
0.10982543640897756,0.00872973291079561,
0.10987531172069825,0.007001010863208125,
0.10992518703241895,-0.023568717042599024,
0.10997506234413965,-0.0018807681897264113,
0.11002493765586036,-0.015428500038228814,
0.11007481296758105,-0.011280454611994043,
0.11012468827930175,-0.010693454840782619,
0.11017456359102244,-0.01449130917462536,
0.11022443890274314,0.00266763981327167,
0.11027431421446383,-0.039661901648575144,
0.11032418952618454,-0.003292363492096672,
0.11037406483790524,0.00016649754255292082,
0.11042394014962593,-0.012111851105457348,
0.11047381546134663,-0.004602058895488391,
0.11052369077306733,-0.01570542711291534,
0.11057356608478804,-0.00688666436911055,
0.11062344139650873,-0.011563387252161696,
0.11067331670822943,-0.015461532108473387,
0.11072319201995012,-0.009756082195039375,
0.11077306733167082,0.0059551416399849216,
0.11082294264339151,0.009244880095743748,
0.11087281795511222,-0.008238447016112411,
0.11092269326683292,-0.016781273833297715,
0.11097256857855362,-0.009662991410459799,
0.11102244389027431,-0.01544283137338209,
0.111072319201995,-0.01287284532731229,
0.11112219451371572,-0.01172440329630923,
0.11117206982543641,-0.0117124881291348,
0.11122194513715711,0.004455138703092913,
0.1112718204488778,-0.006731258537642621,
0.1113216957605985,-0.010914819387153829,
0.11137157107231921,-0.03306370416258692,
0.1114214463840399,-0.015485396448209893,
0.1114713216957606,-0.014581276270032098,
0.1115211970074813,-0.018454836932568483,
0.11157107231920199,-0.019602000429791717,
0.11162094763092269,-0.0005144767725126006,
0.1116708229426434,-0.03517595681686274,
0.11172069825436409,-0.030119212015429192,
0.11177057356608479,-0.014192616860400515,
0.11182044887780548,-0.03950846570770909,
0.11187032418952618,-0.02923158422287675,
0.11192019950124689,-0.006861708812214379,
0.11197007481296758,0.00311069721850807,
0.11201995012468828,0.004846065403480267,
0.11206982543640898,-0.017845710799725918,
0.11211970074812967,-0.012686461779814633,
0.11216957605985037,-0.023620176929173377,
0.11221945137157108,-0.002289882215070806,
0.11226932668329177,0.020967247648730265,
0.11231920199501247,0.015729420129080365,
0.11236907730673316,-0.023729100869215494,
0.11241895261845386,-0.011818944844437924,
0.11246882793017457,0.0009116804489905667,
0.11251870324189527,-0.03766731290880035,
0.11256857855361596,-0.018533588054940965,
0.11261845386533666,-0.01694514452977737,
0.11266832917705735,-0.027391532727674778,
0.11271820448877805,-0.03353859589381031,
0.11276807980049876,-0.0017385098668814625,
0.11281795511221945,-0.00472275795773433,
0.11286783042394015,0.012232011830024769,
0.11291770573566084,-0.0007482756824583022,
0.11296758104738154,0.02839420183272494,
0.11301745635910225,-0.000427912197762512,
0.11306733167082295,-0.004100828271582164,
0.11311720698254364,-0.011771307545426296,
0.11316708229426434,-0.030426087440572368,
0.11321695760598503,0.007086954536949682,
0.11326683291770574,-0.016323168848742995,
0.11331670822942644,-0.01830413140482047,
0.11336658354114713,-0.02729862214652513,
0.11341645885286783,-0.0039899762716598345,
0.11346633416458853,-0.008075997475136584,
0.11351620947630922,0.023814081365259213,
0.11356608478802993,-0.002472710196347491,
0.11361596009975063,-0.018520806871147835,
0.11366583541147132,-0.0041567355387070355,
0.11371571072319202,-0.002779297730058111,
0.11376558603491271,0.004358484834221165,
0.11381546134663342,0.004134479001756317,
0.11386533665835412,-0.0022473976246315864,
0.11391521197007481,-0.024752263361491934,
0.11396508728179551,-0.02345838645404021,
0.1140149625935162,0.007713496166322513,
0.1140648379052369,-0.015607335155664334,
0.11411471321695761,-0.0016847871126413052,
0.1141645885286783,0.009195300214663213,
0.114214463840399,-0.012547470471575495,
0.1142643391521197,0.022038458488918278,
0.1143142144638404,-0.0048998008347146595,
0.1143640897755611,-0.00921003410895268,
0.1144139650872818,0.010186493031582793,
0.1144638403990025,-0.015992904993975626,
0.11451371571072319,0.007715385035364804,
0.11456359102244389,0.006026084139479082,
0.11461346633416458,-0.004187156568121279,
0.11466334164588529,0.010502083274234937,
0.11471321695760599,0.0012760858158399357,
0.11476309226932668,-0.019171285501830004,
0.11481296758104738,0.011396581888056328,
0.11486284289276807,0.021774825015960404,
0.11491271820448878,0.009167272575699836,
0.11496259351620948,0.0027885523741036826,
0.11501246882793018,0.04429428136160938,
0.11506234413965087,0.003991523421668518,
0.11511221945137157,-0.0033739782848281157,
0.11516209476309226,0.018715547681429183,
0.11521197007481297,0.033195132706976334,
0.11526184538653367,-0.012286467452897312,
0.11531172069825436,0.007225923736235105,
0.11536159600997506,-0.001348559809964128,
0.11541147132169575,0.04390497590907364,
0.11546134663341646,0.017929556395789525,
0.11551122194513716,0.006842530677023518,
0.11556109725685786,0.014543770422862276,
0.11561097256857855,0.00027606309863577143,
0.11566084788029925,0.0069003746836690414,
0.11571072319201996,0.030463421527293,
0.11576059850374065,0.03502527704194633,
0.11581047381546135,0.02439888802609568,
0.11586034912718204,-0.0030705581665513917,
0.11591022443890274,0.011712323607750744,
0.11596009975062344,0.01587504964328724,
0.11600997506234415,0.019688492229355443,
0.11605985037406484,0.025880317314782637,
0.11610972568578554,0.003511050678259752,
0.11615960099750623,0.013741794441464035,
0.11620947630922693,0.03551311393193825,
0.11625935162094764,0.019209992249560874,
0.11630922693266833,0.005159557162706727,
0.11635910224438903,0.021753148722503092,
0.11640897755610972,0.00011502042287558044,
0.11645885286783042,0.02479103205224731,
0.11650872817955112,0.03885857396510951,
0.11655860349127183,0.01268953278235729,
0.11660847880299252,0.027932180439391503,
0.11665835411471322,0.016051456360409833,
0.11670822942643391,-0.024960737134974736,
0.11675810473815461,0.015257569469542862,
0.11680798004987532,0.03285290895756518,
0.11685785536159601,0.02348950708725183,
0.11690773067331671,0.02412045352959046,
0.1169576059850374,0.029926046448150504,
0.1170074812967581,0.015400180323355188,
0.1170573566084788,0.018131043334679138,
0.1171072319201995,0.0037991945656357905,
0.1171571072319202,0.03404112109955285,
0.1172069825436409,0.004281724777370526,
0.1172568578553616,0.03858896418610193,
0.11730673316708229,0.0056078793024579195,
0.117356608478803,0.01357489911315094,
0.1174064837905237,0.02320290663034189,
0.11745635910224439,0.02993613680338102,
0.11750623441396509,0.041812716216732215,
0.11755610972568578,0.030905868744469447,
0.11760598503740648,0.010987207784410145,
0.11765586034912719,0.03154932989365795,
0.11770573566084788,0.042685570216488875,
0.11775561097256858,0.02088562299153757,
0.11780548628428927,0.02837840798910184,
0.11785536159600997,0.03752508785092124,
0.11790523690773068,0.035217278615042945,
0.11795511221945137,0.011015018699989066,
0.11800498753117207,0.018858946881029376,
0.11805486284289277,0.010943141454530575,
0.11810473815461346,-0.0036020613911437807,
0.11815461346633417,0.021957865089388694,
0.11820448877805487,0.011450057969783342,
0.11825436408977556,0.025354350052390454,
0.11830423940149626,0.007091986542041004,
0.11835411471321695,0.030220938013873135,
0.11840399002493765,0.03673502695694523,
0.11845386533665836,0.03626625572290636,
0.11850374064837906,0.025450898971510882,
0.11855361596009975,0.029123179011415996,
0.11860349127182045,0.023642219438851725,
0.11865336658354114,0.04144458223005654,
0.11870324189526185,0.018049124911287243,
0.11875311720698255,0.014080320880044728,
0.11880299251870324,0.004775660199041687,
0.11885286783042394,-0.010496186758655691,
0.11890274314214463,0.02160015083205865,
0.11895261845386533,0.04848271452296324,
0.11900249376558604,0.013758367946437554,
0.11905236907730674,0.029951030135744516,
0.11910224438902743,0.044031749330237346,
0.11915211970074813,0.009251873611107412,
0.11920199501246882,0.04293759183874441,
0.11925187032418953,0.014187949595287535,
0.11930174563591023,0.021436079636206543,
0.11935162094763092,0.026492717497690076,
0.11940149625935162,0.04023046934875764,
0.11945137157107232,0.01326079539952211,
0.11950124688279301,0.029390751395207894,
0.11955112219451372,0.020433469679700715,
0.11960099750623442,0.04585343066202671,
0.11965087281795511,0.008838171489941819,
0.11970074812967581,0.0012351163868463653,
0.1197506234413965,0.05011799527526854,
0.11980049875311721,0.041135670022375774,
0.11985037406483791,-0.005932480211014404,
0.1199002493765586,0.04754892727592623,
0.1199501246882793,0.03546791881943081,
0.12,0.03605250844397345,
0.1200498753117207,0.016771598907400855,
0.1200997506234414,0.010943270968817344,
0.1201496259351621,0.044771511975086664,
0.12019950124688279,0.03711709169268927,
0.12024937655860349,0.04456602319713575,
0.12029925187032418,0.02834436415960679,
0.1203491271820449,0.037528579914750185,
0.12039900249376559,0.005998330146875033,
0.12044887780548628,0.026333964686014746,
0.12049875311720698,0.032352756117987325,
0.12054862842892768,0.004728182243620947,
0.12059850374064839,0.053970578385286044,
0.12064837905236908,0.005912684703183357,
0.12069825436408978,0.0421151853131277,
0.12074812967581047,0.039980046234602794,
0.12079800498753117,0.07109945852795088,
0.12084788029925186,0.031129029083622632,
0.12089775561097257,0.024283956219689755,
0.12094763092269327,0.017982153727888604,
0.12099750623441397,0.0204365506657069,
0.12104738154613466,0.020461101354934515,
0.12109725685785536,0.03509989274847213,
0.12114713216957607,0.030710348450583163,
0.12119700748129676,0.027342432576912035,
0.12124688279301746,-0.0056332603654393534,
0.12129675810473815,0.02436928894583045,
0.12134663341645885,0.002018335268341182,
0.12139650872817954,0.06122142658051878,
0.12144638403990025,0.017171856281834173,
0.12149625935162095,0.04749653831058583,
0.12154613466334165,0.019661340394745735,
0.12159600997506234,0.014885257427017625,
0.12164588528678304,0.03455392950339608,
0.12169576059850375,0.04024867737971676,
0.12174563591022444,0.03791951440319896,
0.12179551122194514,0.04773548300343064,
0.12184538653366583,0.04607973010038416,
0.12189526184538653,0.029933942952266493,
0.12194513715710723,0.03762889209045632,
0.12199501246882793,0.03733317291589464,
0.12204488778054863,0.021712371577139643,
0.12209476309226933,0.02801973196254791,
0.12214463840399002,0.023801535446114023,
0.12219451371571072,0.018583329669748065,
0.12224438902743143,0.012424254697068387,
0.12229426433915212,0.046137522834821865,
0.12234413965087282,0.04389396285046312,
0.12239401496259351,0.02042474065505345,
0.12244389027431421,0.06975759434679865,
0.12249376558603492,0.03587798618487539,
0.12254364089775562,0.032223999721749115,
0.12259351620947631,0.03074330509588411,
0.122643391521197,0.02043789635360303,
0.1226932668329177,0.012823756630354524,
0.1227431421446384,0.008309092424887362,
0.12279301745635911,0.04570274134042074,
0.1228428927680798,0.03696304761820332,
0.1228927680798005,0.02484142021087688,
0.1229426433915212,0.053271044895574854,
0.12299251870324189,0.051325137048517766,
0.1230423940149626,0.026102171989670617,
0.1230922693266833,0.046181566793588015,
0.12314214463840399,0.022995016589264512,
0.12319201995012469,0.0369208745754555,
0.12324189526184538,0.04436918193761815,
0.12329177057356608,0.0158590835140354,
0.12334164588528679,0.022021522075396836,
0.12339152119700748,0.01128895127902179,
0.12344139650872818,0.021997296479197254,
0.12349127182044888,-0.007166868221681704,
0.12354114713216957,0.04754112331853429,
0.12359102244389028,0.008753594434695342,
0.12364089775561098,-0.004595671738853783,
0.12369077306733167,0.02311710535414843,
0.12374064837905237,0.022809120065412962,
0.12379052369077306,0.01637587321184887,
0.12384039900249376,0.025327139647441866,
0.12389027431421447,0.028644724218435766,
0.12394014962593516,0.02525943469250299,
0.12399002493765586,0.00560213459051793,
0.12403990024937656,0.0018051638427290847,
0.12408977556109725,0.004857902875573684,
0.12413965087281796,0.016978126325212888,
0.12418952618453866,-0.0010527168610872696,
0.12423940149625935,0.020540118201339327,
0.12428927680798005,0.0354663622623812,
0.12433915211970074,0.023227042429700705,
0.12438902743142144,0.019975242860932343,
0.12443890274314215,0.014167261373217704,
0.12448877805486284,0.018268993389102393,
0.12453865336658354,0.02603282859824127,
0.12458852867830424,0.03242642455233972,
0.12463840399002493,-0.014370612422701594,
0.12468827930174564,0.011120625777138765,
0.12473815461346634,0.024154015147754705,
0.12478802992518703,0.01340103085439508,
0.12483790523690773,0.020031323532351666,
0.12488778054862842,-0.011121082962780594,
0.12493765586034913,0.009631778889572389,
0.12498753117206983,0.014460878935643472,
0.12503740648379053,0.019563469339269418,
0.12508728179551123,0.008849473085501762,
0.12513715710723192,-0.001160601967546089,
0.12518703241895263,-0.012493551932139534,
0.1252369077306733,0.0023226156290630153,
0.12528678304239402,0.012475936567711298,
0.1253366583541147,-0.011622291174040884,
0.1253865336658354,0.0005437765618113918,
0.12543640897755612,0.01725558052813767,
0.1254862842892768,-0.005873798870262188,
0.1255361596009975,0.015101342685773933,
0.1255860349127182,0.024226122808293792,
0.1256359102244389,-0.0017120993440783872,
0.1256857855361596,0.010395722551846176,
0.1257356608478803,-0.03882353497094686,
0.125785536159601,-0.000393663983053961,
0.12583541147132168,0.023581609060600386,
0.1258852867830424,-0.004774431296724023,
0.1259351620947631,-0.012567570436989656,
0.12598503740648379,-0.01680436059245847,
0.1260349127182045,-0.014339121680005892,
0.12608478802992518,0.006579996321093837,
0.1261346633416459,0.01749220417659525,
0.1261845386533666,0.010901533020639368,
0.12623441396508728,-0.012232562262138976,
0.126284289276808,0.0018942582450325548,
0.12633416458852867,-0.022899622777011207,
0.12638403990024938,-0.012873335613674102,
0.1264339152119701,0.013167538987126224,
0.12648379052369077,-0.021256623100118097,
0.12653366583541148,-0.017851185052249294,
0.12658354114713216,0.012115915764193347,
0.12663341645885287,0.012239587120155165,
0.12668329177057355,0.012471171743621046,
0.12673316708229426,0.014978063543019227,
0.12678304239401497,-0.006532206847484296,
0.12683291770573565,0.0075741718369814574,
0.12688279301745636,0.006630145725300325,
0.12693266832917705,-0.019658423015965695,
0.12698254364089775,-0.031436520150758415,
0.12703241895261846,-0.007050206593083583,
0.12708229426433915,0.018121800495011636,
0.12713216957605986,0.022400639525738855,
0.12718204488778054,-0.02155072626472531,
0.12723192019950125,0.0004785501057361589,
0.12728179551122196,-0.007791944244860768,
0.12733167082294264,-0.014341885212678459,
0.12738154613466335,-0.01454637073515311,
0.12743142144638403,0.012188739119490727,
0.12748129675810474,-0.0024722259148113974,
0.12753117206982545,-0.002931465049424848,
0.12758104738154613,-0.01661574572930246,
0.12763092269326684,-0.007055029509760884,
0.12768079800498752,-0.013853220498670727,
0.12773067331670823,-0.02896900187621152,
0.1277805486284289,0.0006254484267655333,
0.12783042394014962,0.00423728785954147,
0.12788029925187033,-0.004493796477515893,
0.12793017456359101,0.0009118393578380632,
0.12798004987531172,-0.002173183048112062,
0.1280299251870324,-0.014760908055350217,
0.12807980049875312,0.00481032359113325,
0.12812967581047383,0.005198371934938318,
0.1281795511221945,-0.01050676372849909,
0.12822942643391522,0.0016264122346807547,
0.1282793017456359,0.0059023542130080785,
0.1283291770573566,-0.022003571928641753,
0.12837905236907732,-0.01592247484257605,
0.128428927680798,-0.03674461399810674,
0.1284788029925187,0.008229799787895726,
0.1285286783042394,0.001406388771322157,
0.1285785536159601,0.007526091063496424,
0.1286284289276808,-0.0061240728586893466,
0.1286783042394015,0.007788170530945838,
0.1287281795511222,-0.018165787660182536,
0.12877805486284288,-0.0035377485548609673,
0.1288279301745636,0.0024843306615708258,
0.1288778054862843,-0.004977057760296321,
0.12892768079800498,0.015046553076248782,
0.1289775561097257,0.008616582435253308,
0.12902743142144638,-0.010179789895668909,
0.12907730673316709,0.006760942152733009,
0.12912718204488777,-0.01932055639856637,
0.12917705735660848,0.010743940526536053,
0.1292269326683292,0.01595618917129067,
0.12927680798004987,-0.02854995934047514,
0.12932668329177058,-0.01157162765201875,
0.12937655860349126,0.0017470991277384034,
0.12942643391521197,0.007576922021790139,
0.12947630922693268,-0.008515923226033652,
0.12952618453865336,0.0004864372649858173,
0.12957605985037407,0.0015019484177146766,
0.12962593516209475,0.01569847654522083,
0.12967581047381546,-0.0022352579550306085,
0.12972568578553617,0.002260320164337141,
0.12977556109725685,-0.007548041755666133,
0.12982543640897756,0.02125654339394075,
0.12987531172069824,-0.018160041963324776,
0.12992518703241895,-0.024576522605415665,
0.12997506234413966,-0.015408776302048226,
0.13002493765586035,-0.01768223847693046,
0.13007481296758105,-0.04068404019793415,
0.13012468827930174,0.009227441730024282,
0.13017456359102245,-0.008860486484263429,
0.13022443890274316,0.00013911075992348136,
0.13027431421446384,-0.011526839207207578,
0.13032418952618455,-0.005735526971277948,
0.13037406483790523,-0.007313357291822113,
0.13042394014962594,-0.014544253788319484,
0.13047381546134662,-0.025642641215259762,
0.13052369077306733,-0.0011626077948730124,
0.13057356608478804,0.017806681084626207,
0.13062344139650872,-0.005318245736694416,
0.13067331670822943,-0.027152250751132163,
0.1307231920199501,-0.008754569163464551,
0.13077306733167082,-0.006364922615159339,
0.13082294264339153,-0.0021977223576401103,
0.13087281795511221,-0.016572144899619647,
0.13092269326683292,-0.023496232124875595,
0.1309725685785536,-0.005935233324745803,
0.13102244389027431,-0.005947233741625335,
0.13107231920199502,-0.010833780472409052,
0.1311221945137157,-0.007162555426126966,
0.13117206982543642,-0.049287734159580404,
0.1312219451371571,-4.373704353329011e-05,
0.1312718204488778,-0.013686413964372951,
0.13132169576059852,-0.011236675549412664,
0.1313715710723192,-0.015933034894430008,
0.1314214463840399,-0.0037615028634537737,
0.1314713216957606,0.004807330451356614,
0.1315211970074813,-0.032937969797755,
0.13157107231920198,-0.019506349940736203,
0.1316209476309227,-0.00803565670492887,
0.1316708229426434,0.01173515074942889,
0.13172069825436408,0.005323842403723734,
0.1317705735660848,0.012207275076135034,
0.13182044887780547,-0.003940974063850827,
0.13187032418952618,-0.009057611867175354,
0.1319201995012469,0.0005974836356376859,
0.13197007481296757,0.01894976250074682,
0.13201995012468828,-0.0009445768580824956,
0.13206982543640897,-0.009354921122933449,
0.13211970074812968,-0.016883920542855084,
0.13216957605985039,0.0024982655657966157,
0.13221945137157107,-0.008832117338877295,
0.13226932668329178,0.00612984420733579,
0.13231920199501246,0.011295779042147453,
0.13236907730673317,0.022173215321926388,
0.13241895261845388,0.0033422815212529825,
0.13246882793017456,-0.008893377300917191,
0.13251870324189527,0.007167895250818193,
0.13256857855361595,-0.007819928552663178,
0.13261845386533666,0.007769158549813341,
0.13266832917705737,-0.02450664225732539,
0.13271820448877805,-0.012241112154323847,
0.13276807980049876,-0.0020844492250453113,
0.13281795511221944,-0.0017707229370327428,
0.13286783042394015,0.008627250829137281,
0.13291770573566083,-0.020532110658731017,
0.13296758104738154,-0.007500832275766014,
0.13301745635910225,0.002046317835924804,
0.13306733167082294,0.03373807503490362,
0.13311720698254365,-0.018871444018443886,
0.13316708229426433,0.0014065078148717517,
0.13321695760598504,0.007935269939076117,
0.13326683291770575,0.002638743455870166,
0.13331670822942643,0.01731103597478658,
0.13336658354114714,-0.009772395593093426,
0.13341645885286782,0.01631414848128563,
0.13346633416458853,0.012464891537280073,
0.13351620947630924,-0.014378719729824022,
0.13356608478802992,0.025945130448461688,
0.13361596009975063,-0.011386198169588984,
0.1336658354114713,-0.007034930227910341,
0.13371571072319202,0.02978702692768756,
0.13376558603491273,-0.010854589881473671,
0.1338154613466334,-0.005914378078712492,
0.13386533665835412,-0.008092738791421536,
0.1339152119700748,-0.000729222770640402,
0.13396508728179551,0.006990092859923205,
0.1340149625935162,0.006707123200980978,
0.1340648379052369,-0.010674371353783192,
0.13411471321695762,-0.017024114722875433,
0.1341645885286783,-0.01778109820296379,
0.134214463840399,-0.01627830464595372,
0.1342643391521197,-0.0010655056495332393,
0.1343142144638404,-0.0006948870188340584,
0.1343640897755611,-0.017966859136328686,
0.1344139650872818,-0.0032725658780942543,
0.1344638403990025,0.007070638389591144,
0.13451371571072318,0.01343108837150521,
0.1345635910224439,0.009803403284081094,
0.1346134663341646,0.007371778413461172,
0.13466334164588528,0.010064946120641476,
0.134713216957606,0.008526198176345631,
0.13476309226932667,-0.017863161648955805,
0.13481296758104738,-0.008021387083518652,
0.1348628428927681,-0.007143329936390356,
0.13491271820448877,-0.008526524825462314,
0.13496259351620948,0.03206829996275435,
0.13501246882793017,0.012393300214384988,
0.13506234413965088,0.024155178814103086,
0.13511221945137158,-0.0009033925549015789,
0.13516209476309227,0.00954259193869887,
0.13521197007481298,0.016594976806414606,
0.13526184538653366,0.010218467164494274,
0.13531172069825437,0.047775808854809004,
0.13536159600997505,0.019372006809699076,
0.13541147132169576,0.004478279434872201,
0.13546134663341647,0.018991715571813637,
0.13551122194513715,0.009996706571881597,
0.13556109725685786,0.0444303526866519,
0.13561097256857854,0.005699949428563924,
0.13566084788029925,0.03256586699563772,
0.13571072319201996,-0.003967181333255108,
0.13576059850374064,-0.02316557338758832,
0.13581047381546135,0.0030699850873889736,
0.13586034912718203,-0.0034414299637541175,
0.13591022443890274,0.033532784958818534,
0.13596009975062345,0.009755750560399755,
0.13600997506234414,0.03129852571559259,
0.13605985037406484,-0.00477102862531811,
0.13610972568578553,0.018925150481634182,
0.13615960099750624,0.022113572441857753,
0.13620947630922695,0.002884392573623929,
0.13625935162094763,0.01615103557753251,
0.13630922693266834,0.006157236145291307,
0.13635910224438902,0.010594852464232621,
0.13640897755610973,-0.001966335579676539,
0.1364588528678304,0.01173673029847217,
0.13650872817955112,0.014557127282895061,
0.13655860349127183,0.009566554184950013,
0.1366084788029925,0.015829699863321247,
0.13665835411471322,0.0030149005840398816,
0.1367082294264339,0.035406478092367286,
0.1367581047381546,0.007516643836096723,
0.13680798004987532,0.045342891618225536,
0.136857855361596,0.0148598065494845,
0.1369077306733167,-0.005229461059323183,
0.1369576059850374,0.010065113400435952,
0.1370074812967581,0.016706207693164717,
0.13705735660847881,0.04955944959846987,
0.1371072319201995,0.028349331188202938,
0.1371571072319202,0.02411121649020787,
0.1372069825436409,0.009851341857488276,
0.1372568578553616,0.03112736813922893,
0.1373067331670823,0.0333991353681381,
0.137356608478803,0.011059138154185128,
0.1374064837905237,0.03145053038034269,
0.13745635910224438,0.05118695551267043,
0.1375062344139651,0.018004147953335776,
0.1375561097256858,0.017457383900951782,
0.13760598503740648,0.03904631909907175,
0.1376558603491272,-0.0014498714865760834,
0.13770573566084787,0.018216483509246144,
0.13775561097256858,0.014673822053453366,
0.13780548628428926,0.035344948678555185,
0.13785536159600997,-0.0002953685483866597,
0.13790523690773068,0.0023687603826539096,
0.13795511221945136,0.03247096352150192,
0.13800498753117207,0.04976505153186288,
0.13805486284289276,0.04857313209941684,
0.13810473815461347,0.06003585189505209,
0.13815461346633418,0.015337262470708024,
0.13820448877805486,0.0038137593396020374,
0.13825436408977557,0.026656171657029205,
0.13830423940149625,0.03323950503475052,
0.13835411471321696,0.03830572880781542,
0.13840399002493767,0.03555198283719013,
0.13845386533665835,0.02733268946263664,
0.13850374064837906,0.03082304061908744,
0.13855361596009974,-0.008367638400304432,
0.13860349127182045,0.028578022799675844,
0.13865336658354116,0.04706699790603862,
0.13870324189526184,0.006246532447579063,
0.13875311720698255,0.031649690751431876,
0.13880299251870323,0.013151044365770042,
0.13885286783042394,0.03162432700115903,
0.13890274314214462,0.040075994503050896,
0.13895261845386533,0.006302938498278267,
0.13900249376558604,0.0034078168186233646,
0.13905236907730673,0.018763003105515028,
0.13910224438902744,0.03789009973638233,
0.13915211970074812,0.006345570270287773,
0.13920199501246883,0.02964417104328083,
0.13925187032418954,0.013350069925273794,
0.13930174563591022,0.01985855574507705,
0.13935162094763093,0.02500029630365552,
0.1394014962593516,0.045125983954178925,
0.13945137157107232,0.06028968990558087,
0.13950124688279303,0.04128808844492296,
0.1395511221945137,0.04078647983220566,
0.13960099750623442,0.02781899896580011,
0.1396508728179551,0.03414119190905883,
0.1397007481296758,0.03936495961155369,
0.13975062344139652,0.04153757687049277,
0.1398004987531172,0.022507939976253624,
0.1398503740648379,0.02878067996156645,
0.1399002493765586,0.021541893307290828,
0.1399501246882793,0.025470670170479125,
0.14,0.034972465444947476,
0.1400498753117207,0.06192642336584353,
0.1400997506234414,0.038020348729152297,
0.1401496259351621,0.020214965549535086,
0.1401995012468828,0.025572387343809292,
0.14024937655860348,0.032248079482819936,
0.1402992518703242,0.03277621924842257,
0.1403491271820449,0.022519617249339687,
0.14039900249376558,0.030649617468557076,
0.1404488778054863,0.004198387044189539,
0.14049875311720697,0.026668998685944176,
0.14054862842892768,0.05276289815171808,
0.1405985037406484,0.05099916894743872,
0.14064837905236907,0.02212221286295468,
0.14069825436408978,0.04731857634923593,
0.14074812967581046,0.019594119533375542,
0.14079800498753117,0.010989416963711075,
0.14084788029925188,0.011834467479201208,
0.14089775561097256,0.032719657923070807,
0.14094763092269327,0.012729368761461649,
0.14099750623441396,0.04599320099754159,
0.14104738154613466,0.04164410333712604,
0.14109725685785537,0.03843657762028689,
0.14114713216957606,0.05198461002461585,
0.14119700748129677,0.017796186317060887,
0.14124688279301745,0.03440109781736594,
0.14129675810473816,0.029042167556459247,
0.14134663341645887,0.02032389394987153,
0.14139650872817955,0.05546412120348945,
