time,amplitude,label
0.0,-0.035283491389116795,
4.987531172069826e-05,-0.031123003826654196,
9.975062344139652e-05,-0.009918372930110674,
0.00014962593516209475,-0.00982944162874353,
0.00019950124688279303,-0.022129919921489646,
0.00024937655860349125,-0.0025581970547008392,
0.0002992518703241895,-0.03003185158776827,
0.00034912718204488776,-0.017642976886739194,
0.00039900249376558606,0.006036439901854124,
0.0004488778054862843,-0.002774107826087913,
0.0004987531172069825,0.02109032194862051,
0.0005486284289276808,0.044993874398529136,
0.000598503740648379,-0.019907133339540133,
0.0006483790523690773,-0.01756684008415004,
0.0006982543640897755,0.010234790896346373,
0.0007481296758104738,-0.043246023882047596,
0.0007980049875311721,-0.03247540616746861,
0.0008478802992518703,-0.01998436442321133,
0.0008977556109725686,-0.004887922623827402,
0.0009476309226932668,-0.004642271169700455,
0.000997506234413965,-0.0022855880130681697,
0.0010473815461346633,-0.01039762717985134,
0.0010972568578553616,-0.024768320113562288,
0.00114713216957606,-0.03765632926723395,
0.001197007481296758,0.0014709180924751784,
0.0012468827930174563,0.005155402580180081,
0.0012967581047381546,-0.03657005790481245,
0.001346633416458853,-0.02279671525283038,
0.001396508728179551,-0.048075462289162034,
0.0014463840399002493,-0.02744955250632978,
0.0014962593516209476,0.010172435241689783,
0.001546134663341646,-0.02434768684863443,
0.0015960099750623442,-0.013028041261063073,
0.0016458852867830423,-0.002327971783487901,
0.0016957605985037406,-0.012757739863568778,
0.001745635910224439,-0.01628869983299426,
0.0017955112219451373,-0.011047181674634934,
0.0018453865336658353,-0.007842449540007805,
0.0018952618453865336,-0.025637562798761674,
0.001945137157107232,-0.01847948576064917,
0.00199501246882793,-0.037697890200343184,
0.0020448877805486283,-0.019665156321247778,
0.0020947630922693266,-0.021034024620103262,
0.002144638403990025,-0.024790309433696898,
0.0021945137157107233,-0.0342587640445766,
0.0022443890274314216,0.0053914685990339925,
0.00229426433915212,-0.02777085226241734,
0.0023441396508728177,-0.011107122260201639,
0.002394014962593516,-0.00942805281139574,
0.0024438902743142144,-0.018146410057419814,
0.0024937655860349127,-0.04341146975611728,
0.002543640897755611,-0.010800493887760871,
0.0025935162094763093,-0.0014250348082579106,
0.0026433915211970076,-0.006421518120100268,
0.002693266832917706,-0.011329735782825567,
0.002743142144638404,-0.006647598413606241,
0.002793017456359102,-0.039015114178784845,
0.0028428927680798004,-0.03959478234267544,
0.0028927680798004987,-0.027916296793432775,
0.002942643391521197,-0.026584695943722578,
0.0029925187032418953,-0.01810764542448444,
0.0030423940149625936,-0.0012166267888692253,
0.003092269326683292,-0.003680392425032708,
0.00314214463840399,-0.014510789982889696,
0.0031920199501246885,-0.019258557409109645,
0.0032418952618453864,-0.004666473842871019,
0.0032917705735660847,-0.03391903262989124,
0.003341645885286783,-0.022883447161026367,
0.0033915211970074813,-0.009724620501860976,
0.0034413965087281796,-0.020509482796540936,
0.003491271820448878,-0.02994536555497848,
0.003541147132169576,0.00918619710535781,
0.0035910224438902745,-0.029394782819498907,
0.0036408977556109724,-0.01603464169976139,
0.0036907730673316707,0.0049791996714653,
0.003740648379052369,-0.01683807479547282,
0.0037905236907730673,-0.01597547507550459,
0.0038403990024937656,-0.02943051026787892,
0.003890274314214464,-0.014333422370164299,
0.003940149625935162,-0.0051780132407625214,
0.00399002493765586,-0.021665927501602573,
0.004039900249376558,-0.007870719810357139,
0.004089775561097257,-0.02257475238212383,
0.004139650872817955,-0.03445985452917549,
0.004189526184538653,-0.006218246838093492,
0.004239401496259352,-0.036773545109067954,
0.00428927680798005,-0.0463766141060577,
0.004339152119700748,0.0010307995799186155,
0.0043890274314214465,-0.0436374322944834,
0.004438902743142145,-0.012491967580114388,
0.004488778054862843,-0.008391065744411104,
0.004538653366583541,-0.04109042749390665,
0.00458852867830424,-0.015372420660008117,
0.004638403990024938,-0.04332224134436868,
0.0046882793017456355,0.0029661364486102022,
0.004738154613466334,-0.02149636992916591,
0.004788029925187032,-0.012898429988279489,
0.00483790523690773,-0.01340955328398254,
0.004887780548628429,-0.0006126504984862238,
0.004937655860349127,-0.0227316325757392,
0.004987531172069825,-0.025641037235483898,
0.005037406483790524,-0.025422042898465086,
0.005087281795511222,-0.043911765479878045,
0.00513715710723192,-0.033814719197393164,
0.0051870324189526185,-0.028135269423062294,
0.005236907730673317,-0.018658938773574413,
0.005286783042394015,-0.025951882581091996,
0.0053366583541147134,-0.013960798258537521,
0.005386533665835412,-0.06302297364708978,
0.00543640897755611,-0.006232537456389046,
0.005486284289276808,0.006038677395661867,
0.005536159600997507,-0.009261618089592125,
0.005586034912718204,-0.03818736087928283,
0.005635910224438902,-0.020696373435632125,
0.005685785536159601,-0.0023686848085479866,
0.005735660847880299,0.0017307636375822454,
0.005785536159600997,0.0013713869721014866,
0.005835411471321696,-0.040061993514594954,
0.005885286783042394,-0.01827215431601781,
0.005935162094763092,-0.052235910507488534,
0.0059850374064837905,-0.029635576504997187,
0.006034912718204489,0.00463993141337541,
0.006084788029925187,0.000541758718616614,
0.0061346633416458855,-0.02616034971511417,
0.006184538653366584,-0.007430510672290775,
0.006234413965087282,-0.012363962108064966,
0.00628428927680798,-0.03002984316673407,
0.006334164588528679,0.002313205208906927,
0.006384039900249377,-0.013386095588536331,
0.006433915211970074,-0.015384786912488282,
0.006483790523690773,0.0007682913324172456,
0.006533665835411471,-0.01558301545625285,
0.006583541147132169,-0.004542934298333596,
0.006633416458852868,0.011534098584650817,
0.006683291770573566,-0.01567878276731297,
0.006733167082294264,-0.02338907245483757,
0.0067830423940149626,0.002454000466547481,
0.006832917705735661,-0.007324828719359972,
0.006882793017456359,-0.008000188265700876,
0.0069326683291770575,0.027989884769342575,
0.006982543640897756,0.003428799157247778,
0.007032418952618454,-0.0032337232778724082,
0.007082294264339152,0.001163548814456506,
0.007132169576059851,0.00554247286630552,
0.007182044887780549,-0.038481857074814683,
0.007231920199501247,-0.04679966759483129,
0.007281795511221945,-0.03650547266901993,
0.007331670822942643,-0.0036709747591669364,
0.007381546134663341,0.031283419263925215,
0.00743142144638404,0.014264207609169199,
0.007481296758104738,-0.004146514089689317,
0.007531172069825436,-0.0376730068056149,
0.007581047381546135,-0.01386623328172892,
0.007630922693266833,-0.014795789906649853,
0.007680798004987531,-0.01720912204840467,
0.0077306733167082295,0.013987607435863119,
0.007780548628428928,-0.009382845274856345,
0.007830423940149626,-0.014501438936740435,
0.007880299251870324,0.017628138073194653,
0.007930174563591023,-0.011051820493083276,
0.00798004987531172,-0.03388173876198937,
0.00802992518703242,-0.012715114920466501,
0.008079800498753117,-0.004845761328187976,
0.008129675810473816,-0.037205959280324497,
0.008179551122194513,-0.0051453362932729774,
0.008229426433915213,0.0011282460843519428,
0.00827930174563591,0.01733293178085978,
0.00832917705735661,0.005664729246826858,
0.008379052369077307,-0.008231385771949973,
0.008428927680798006,-0.014756005581571427,
0.008478802992518703,0.007803550595472281,
0.0085286783042394,-0.0030292046761464337,
0.0085785536159601,0.02866317417075543,
0.008628428927680797,0.012943471746041338,
0.008678304239401496,0.00016020203776485062,
0.008728179551122194,0.016451221977589234,
0.008778054862842893,-0.009113098499316153,
0.00882793017456359,0.024952150980694924,
0.00887780548628429,-0.0035988731832152336,
0.008927680798004987,-0.018632455646641136,
0.008977556109725686,0.013463641784253742,
0.009027431421446384,0.009087561368324802,
0.009077306733167083,0.0271023769613268,
0.00912718204488778,0.036673572726616706,
0.00917705735660848,0.01040266766717924,
0.009226932668329177,-0.007955782552410036,
0.009276807980049876,0.000845754002450092,
0.009326683291770574,0.03161787179791611,
0.009376558603491271,0.0071020864940119005,
0.00942643391521197,0.030819482199388466,
0.009476309226932668,-0.012111832918547802,
0.009526184538653367,-0.0057933001894065,
0.009576059850374064,0.032302738254361196,
0.009625935162094763,0.011285732523562731,
0.00967581047381546,-0.025032774789846744,
0.00972568578553616,-3.4016965244557454e-05,
0.009775561097256857,-0.000713863649114856,
0.009825436408977557,-0.020924836807631936,
0.009875311720698254,0.00880815777728644,
0.009925187032418953,-0.017737052134157646,
0.00997506234413965,0.013767051086716206,
0.01002493765586035,0.021583017916660535,
0.010074812967581047,0.01021584839114005,
0.010124688279301746,0.007542411918704901,
0.010174563591022444,0.021349511958375485,
0.010224438902743141,0.01826809622129298,
0.01027431421446384,0.009153385640148191,
0.010324189526184538,0.023221895316065003,
0.010374064837905237,0.01824924722391977,
0.010423940149625935,0.02497431525452417,
0.010473815461346634,-0.0024316609167349297,
0.010523690773067331,0.0055083213191828954,
0.01057356608478803,0.0010287694845430087,
0.010623441396508728,0.03434635259148442,
0.010673316708229427,0.02170494088483927,
0.010723192019950124,0.01032924232165004,
0.010773067331670824,0.04103307808437566,
0.010822942643391521,0.01732959742696311,
0.01087281795511222,0.0334814329334266,
0.010922693266832918,0.033176448153925384,
0.010972568578553617,0.0161635765645153,
0.011022443890274314,0.002018045117128069,
0.011072319201995013,0.036634554060788,
0.01112219451371571,0.005117552163311823,
0.011172069825436408,0.014230843040899579,
0.011221945137157107,0.008646021367339694,
0.011271820448877805,-0.008745349938394952,
0.011321695760598504,-0.00969408745776244,
0.011371571072319201,0.02957822534015951,
0.0114214463840399,0.045423946317246305,
0.011471321695760598,0.0017771373606913256,
0.011521197007481297,0.046923717403769286,
0.011571072319201995,0.018344510422122547,
0.011620947630922694,0.015162098701688997,
0.011670822942643391,0.02086977804232632,
0.01172069825436409,0.020543164467362145,
0.011770573566084788,-0.000818412147048378,
0.011820448877805487,0.02598265169474953,
0.011870324189526184,0.007096109646709398,
0.011920199501246884,0.03344331087895542,
0.011970074812967581,0.027258457126821387,
0.012019950124688279,0.000529706398660533,
0.012069825436408978,0.011886685670212411,
0.012119700748129675,0.018867939393328904,
0.012169576059850374,0.008220058376238489,
0.012219451371571072,0.03572737444104801,
0.012269326683291771,0.012748608626789622,
0.012319201995012468,0.011038255956446436,
0.012369077306733168,0.005609916286323473,
0.012418952618453865,-0.00015597670041260156,
0.012468827930174564,0.020422120009040444,
0.012518703241895262,0.028699548168868293,
0.01256857855361596,0.011408958874213476,
0.012618453865336658,0.006655465300197085,
0.012668329177057357,0.004056197360868628,
0.012718204488778055,0.027862380378934643,
0.012768079800498754,0.00837944960612045,
0.012817955112219451,0.0074340579594267785,
0.012867830423940149,0.007972434666322298,
0.012917705735660848,0.032024728655321744,
0.012967581047381545,0.03380903796315119,
0.013017456359102245,0.0002988251742342199,
0.013067331670822942,0.015313539726391854,
0.013117206982543641,0.035384946879931156,
0.013167082294264339,0.03607195262707881,
0.013216957605985038,0.034833922597398065,
0.013266832917705735,0.008896652610213654,
0.013316708229426434,-0.0032786588813594995,
0.013366583541147132,-0.00010772707430535197,
0.013416458852867831,0.00465733263437626,
0.013466334164588529,0.014590620021586422,
0.013516209476309228,0.012378380419075186,
0.013566084788029925,0.034511822533099604,
0.013615960099750624,0.03909935291227938,
0.013665835411471322,0.01827692648102349,
0.01371571072319202,0.017726875959773257,
0.013765586034912718,0.02254784489312513,
0.013815461346633416,0.01584686196236491,
0.013865336658354115,0.0376127309086135,
0.013915211970074812,0.018240953887913483,
0.013965087281795512,-0.0054529628191307515,
0.014014962593516209,0.01995362492136312,
0.014064837905236908,0.011471911480598155,
0.014114713216957606,0.03698456476192936,
0.014164588528678305,0.014142556357560714,
0.014214463840399002,0.02035653987022061,
0.014264339152119701,0.03911932220678696,
0.014314214463840399,0.02764787794928989,
0.014364089775561098,0.021013835460117217,
0.014413965087281795,0.0254435779427385,
0.014463840399002495,0.02371376927213834,
0.014513715710723192,0.022590751393544328,
0.01456359102244389,0.017813167904072755,
0.014613466334164589,0.010397273611507928,
0.014663341645885286,0.026624860631325156,
0.014713216957605985,0.06252913690793681,
0.014763092269326683,0.028963896829041408,
0.014812967581047382,0.004951618993585179,
0.01486284289276808,0.03196766623882453,
0.014912718204488778,0.01710347627678935,
0.014962593516209476,0.029782049779186703,
0.015012468827930175,0.03854294244728873,
0.015062344139650873,0.020346154951027196,
0.015112219451371572,0.04265301896113911,
0.01516209476309227,0.025975427120688198,
0.015211970074812968,0.015091199660169898,
0.015261845386533666,-0.0017536562468409497,
0.015311720698254365,-0.003954956973720183,
0.015361596009975062,0.01612495090983336,
0.01541147132169576,0.03867824839549663,
0.015461346633416459,0.009970345231518376,
0.015511221945137156,0.013468250514712985,
0.015561097256857856,0.006890647212541321,
0.015610972568578553,0.0039984164567854735,
0.015660847880299252,0.002135891611174518,
0.01571072319201995,0.009794366181678407,
0.015760598503740647,0.010968168659855532,
0.015810473815461346,0.018609618063502684,
0.015860349127182045,-0.010902902987028935,
0.015910224438902745,-0.02013849611142558,
0.01596009975062344,0.013182117549249294,
0.01600997506234414,0.048879274143837984,
0.01605985037406484,0.029921808363672985,
0.016109725685785538,0.025821345600368736,
0.016159600997506234,0.04724518134988576,
0.016209476309226933,-0.0007392368576717035,
0.016259351620947632,0.005853674232221306,
0.016309226932668328,-0.004198606646647229,
0.016359102244389027,-0.016167461861479743,
0.016408977556109726,0.018328546728195838,
0.016458852867830425,-0.009590028440829684,
0.01650872817955112,-0.039359327704763886,
0.01655860349127182,0.012478232611316507,
0.01660847880299252,0.0017543995780452976,
0.01665835411471322,0.03482635060251866,
0.016708229426433914,0.002025887490673707,
0.016758104738154613,0.023284662786799158,
0.016807980049875312,0.033398135816749,
0.01685785536159601,0.03319169040778,
0.016907730673316707,0.013827736699060596,
0.016957605985037406,0.01982610582214627,
0.017007481296758106,0.02678009599014719,
0.0170573566084788,-0.00013377061773031662,
0.0171072319201995,0.00272436377405408,
0.0171571072319202,-0.006283204983249678,
0.0172069825436409,-0.004815598393556206,
0.017256857855361595,0.010033663929044898,
0.017306733167082294,0.0071498834741060835,
0.017356608478802993,-0.007348019294539927,
0.017406483790523692,0.007768268126854298,
0.017456359102244388,0.025757105125561112,
0.017506234413965087,0.032367418850618127,
0.017556109725685786,0.012163069775238664,
0.017605985037406485,-0.016602453857352456,
0.01765586034912718,-0.0003650978706267278,
0.01770573566084788,0.021204619755434875,
0.01775561097256858,-0.01669412460175868,
0.01780548628428928,-0.011848509571397187,
0.017855361596009974,0.016758554507640012,
0.017905236907730673,0.01190154659161674,
0.017955112219451373,0.005641539479410481,
0.018004987531172068,-0.011333998302366755,
0.018054862842892767,-0.005607604772285431,
0.018104738154613467,0.0077616441348460335,
0.018154613466334166,-0.0013485071437222967,
0.01820448877805486,-0.015179840714513464,
0.01825436408977556,-0.006076220396141507,
0.01830423940149626,0.0022609989554249667,
0.01835411471321696,0.0024528799189567595,
0.018403990024937655,0.012811571075546353,
0.018453865336658354,-0.0031388565634440794,
0.018503740648379053,0.006969231337403963,
0.018553615960099752,0.007899250328792448,
0.018603491271820448,-0.008327616128955048,
0.018653366583541147,-0.0014425496317342556,
0.018703241895261846,-0.00011700708127806211,
0.018753117206982542,-0.0036313976105487042,
0.01880299251870324,0.00021099584508503088,
0.01885286783042394,-0.017350987575283503,
0.01890274314214464,-0.008405364019319963,
0.018952618453865335,-0.0018768587851065361,
0.019002493765586034,-0.005217329681255574,
0.019052369077306733,-0.03146475690527169,
0.019102244389027433,0.008161145309113688,
0.01915211970074813,0.0017592635232606883,
0.019201995012468828,-0.01752634123680842,
0.019251870324189527,0.003976365452286524,
0.019301745635910226,-0.03110857682450161,
0.01935162094763092,0.006957473750713777,
0.01940149625935162,-0.021213325405591267,
0.01945137157107232,0.009015528127627837,
0.01950124688279302,0.0186836800192628,
0.019551122194513715,-0.017981677917882268,
0.019600997506234414,0.003883099789353384,
0.019650872817955113,-0.013971902496977794,
0.01970074812967581,0.018913327726860867,
0.019750623441396508,-0.046559279724749575,
0.019800498753117207,-0.003515112567569199,
0.019850374064837906,0.030262344930379874,
0.019900249376558602,0.00801274884757103,
0.0199501246882793,0.011653293407419635,
0.02,-0.0003610737146514595,
0.0200498753117207,-0.005584344823464525,
0.020099750623441395,0.0032772106189768186,
0.020149625935162094,0.0071189399697277125,
0.020199501246882794,-0.010598827144398495,
0.020249376558603493,-0.028494035297430376,
0.02029925187032419,-0.01141126966420144,
0.020349127182044888,-0.017801906590862206,
0.020399002493765587,0.008274353139373886,
0.020448877805486283,0.01381067842088504,
0.02049875311720698,-0.028200902776414488,
0.02054862842892768,-0.01124931683506353,
0.02059850374064838,-0.023562143161746277,
0.020648379052369076,-0.012717464094076295,
0.020698254364089775,-0.01966096492117548,
0.020748129675810474,-0.007760926117550037,
0.020798004987531173,-0.035778446273372774,
0.02084788029925187,-0.009728236855010428,
0.020897755610972568,0.0020913728845934117,
0.020947630922693267,-0.01803641822096585,
0.020997506234413967,-0.033700919782554954,
0.021047381546134662,-0.004301979103625748,
0.02109725685785536,-0.016338733195635495,
0.02114713216957606,-0.018643367826279136,
0.02119700748129676,-0.005530066585535804,
0.021246882793017455,-0.013729055239731558,
0.021296758104738155,-0.03878797188773651,
0.021346633416458854,0.004270074274456288,
0.02139650872817955,-0.029670397155723022,
0.02144638403990025,-0.010669505432027805,
0.021496259351620948,0.003223672094402611,
0.021546134663341647,0.028697939197347186,
0.021596009975062343,-0.03636427619219312,
0.021645885286783042,-0.01268431592935847,
0.02169576059850374,-0.010465742689878757,
0.02174563591022444,-0.01792825843359182,
0.021795511221945136,-0.03409508340761025,
0.021845386533665835,-0.004330684516626753,
0.021895261845386534,-0.014817519057082817,
0.021945137157107233,-0.01122085551102248,
0.02199501246882793,-0.00345847003540695,
0.02204488778054863,-0.022859189797392026,
0.022094763092269327,-0.012725281868004895,
0.022144638403990027,-0.01741975709289772,
0.022194513715710722,-0.054680555472175985,
0.02224438902743142,0.0324833695923331,
0.02229426433915212,-0.022800462738952764,
0.022344139650872816,-0.011750637419013474,
0.022394014962593516,-0.008468827830488008,
0.022443890274314215,-0.005134083846695114,
0.022493765586034914,0.007344152136711357,
0.02254364089775561,-0.000475190873709605,
0.02259351620947631,-0.02197508961950074,
0.022643391521197008,-0.02103186445263591,
0.022693266832917707,-0.005460557629334508,
0.022743142144638403,-0.03324445379356093,
0.022793017456359102,-0.024124377537258993,
0.0228428927680798,-0.009365891115622839,
0.0228927680798005,-0.036793682884566005,
0.022942643391521196,-0.014162167793692036,
0.022992518703241895,-0.025500923953201714,
0.023042394014962594,-0.008944492120612026,
0.02309226932668329,-0.017631284030783942,
0.02314214463840399,-0.0341177997322908,
0.02319201995012469,-0.027156614511420082,
0.023241895261845388,-0.04203720309165881,
0.023291770573566083,-0.03355900524292495,
0.023341645885286783,-0.02785934098417625,
0.02339152119700748,-0.025388920275330816,
0.02344139650872818,-0.023367533059260787,
0.023491271820448877,-0.009055686704484327,
0.023541147132169576,-0.025953520228910662,
0.023591022443890275,-0.012619035602466095,
0.023640897755610974,-0.045658587443833484,
0.02369077306733167,0.007423127249533618,
0.02374064837905237,-0.004625688145591715,
0.023790523690773068,-0.021117250963288665,
0.023840399002493767,-0.03623136493493841,
0.023890274314214463,-0.020666006098713028,
0.023940149625935162,-0.023318643525238065,
0.02399002493765586,0.003414276478462947,
0.024039900249376557,-0.038598122213192296,
0.024089775561097256,-0.003750822378840642,
0.024139650872817955,-0.014032159215157172,
0.024189526184538655,0.008627201836736209,
0.02423940149625935,-0.038360806732593615,
0.02428927680798005,-0.016343641180353422,
0.02433915211970075,-0.03257676547942059,
0.024389027431421448,-0.013573442503540473,
0.024438902743142144,-0.006717888161441409,
0.024488778054862843,-0.030246113150902258,
0.024538653366583542,-0.04770900084728622,
0.02458852867830424,-0.041918641886168825,
0.024638403990024937,-0.0010343641143753576,
0.024688279301745636,-0.031236363736394754,
0.024738154613466335,-0.014175530609875149,
0.02478802992518703,-0.010854157922738843,
0.02483790523690773,-0.024248433397834328,
0.02488778054862843,-0.0007704997999804352,
0.02493765586034913,-0.023653572028163296,
0.024987531172069824,-0.040167698792491865,
0.025037406483790523,-0.04441923846265648,
0.025087281795511222,-0.020878334931338477,
0.02513715710723192,-0.0064377729426760896,
0.025187032418952617,0.014080761768953972,
0.025236907730673316,0.00110891172852025,
0.025286783042394016,-0.025142192356109504,
0.025336658354114715,-0.01597714798467133,
0.02538653366583541,-0.0027615670226887514,
0.02543640897755611,-0.03185930998861329,
0.02548628428927681,-0.014708632072667992,
0.025536159600997508,-0.0022891327041234255,
0.025586034912718204,-0.015149490880403637,
0.025635910224438903,-0.007084941046554925,
0.025685785536159602,0.010750394657298238,
0.025735660847880298,-0.027244192395131955,
0.025785536159600997,0.004976761517988941,
0.025835411471321696,-0.0287604196206773,
0.025885286783042395,0.01482768671358332,
0.02593516209476309,0.0035657749142420873,
0.02598503740648379,-0.017113107820915092,
0.02603491271820449,0.0036454863922634664,
0.02608478802992519,-0.011189169872190338,
0.026134663341645884,-0.009963623273738622,
0.026184538653366583,-0.006088044409338675,
0.026234413965087282,-0.022941139768772885,
0.02628428927680798,-0.007247185203221725,
0.026334164588528677,-0.042955243608874434,
0.026384039900249377,-0.016788900843254215,
0.026433915211970076,0.0028835561279190996,
0.02648379052369077,0.019279825344486072,
0.02653366583541147,0.0009804785737480108,
0.02658354114713217,-0.01955287384542275,
0.02663341645885287,0.005771764731479648,
0.026683291770573565,0.0001921454906724778,
0.026733167082294264,-0.007275197082946758,
0.026783042394014963,0.00799013257628177,
0.026832917705735662,0.0032614988625207777,
0.026882793017456358,-0.00868980859885724,
0.026932668329177057,0.024877267706224514,
0.026982543640897756,-0.004920787744832415,
0.027032418952618455,0.002935525870884626,
0.02708229426433915,-0.019995788591758535,
0.02713216957605985,0.00778667331896488,
0.02718204488778055,-0.012585846466733816,
0.02723192019950125,0.004975738709869729,
0.027281795511221944,-0.025264826676241338,
0.027331670822942643,-0.0010638780375670305,
0.027381546134663343,0.035047990569548264,
0.02743142144638404,-0.028632838008162822,
0.027481296758104738,-0.013693922297093535,
0.027531172069825437,0.02330825230887041,
0.027581047381546136,0.009438334295967177,
0.02763092269326683,-0.00231199072424649,
0.02768079800498753,-0.004763385649214075,
0.02773067331670823,0.02419897312890186,
0.02778054862842893,-0.0006915470948757641,
0.027830423940149625,0.0073854909589594194,
0.027880299251870324,0.01632473383800916,
0.027930174563591023,-0.0012810507629599046,
0.027980049875311722,-0.022588538595154625,
0.028029925187032418,0.0034189115274187816,
0.028079800498753117,-0.012943360749806487,
0.028129675810473816,-0.003277669152831658,
0.028179551122194512,0.01004409328046043,
0.02822942643391521,-0.003530498870604721,
0.02827930174563591,0.014042744119911755,
0.02832917705735661,-0.006543031033389371,
0.028379052369077305,0.024913277147345623,
0.028428927680798004,0.004258876245013213,
0.028478802992518704,-0.01431405470365009,
0.028528678304239403,0.06460960502848524,
0.0285785536159601,0.03387716472406889,
0.028628428927680798,-0.00697041911898945,
0.028678304239401497,0.016041860806596014,
0.028728179551122196,-0.008259882156366048,
0.02877805486284289,0.004076099571542912,
0.02882793017456359,0.0016110628851299645,
0.02887780548628429,0.009857148783023479,
0.02892768079800499,0.0041810451426930306,
0.028977556109725685,-0.008717822135122625,
0.029027431421446384,0.012717228842503349,
0.029077306733167083,0.00855140001815609,
0.02912718204488778,0.007119086085125578,
0.029177057356608478,-0.0015687807711148817,
0.029226932668329177,-0.0003994396581004766,
0.029276807980049877,0.0030237279931810343,
0.029326683291770572,0.0038050057007495463,
0.02937655860349127,0.006543854166920725,
0.02942643391521197,0.02121047164600997,
0.02947630922693267,0.028431275136149146,
0.029526184538653365,0.023837629882327384,
0.029576059850374065,-0.005837137034726962,
0.029625935162094764,0.017167014031583713,
0.029675810473815463,-0.008219779925329069,
0.02972568578553616,0.011590381318088476,
0.029775561097256858,0.004581670607605808,
0.029825436408977557,0.003378380876537716,
0.029875311720698253,-0.021410740415927304,
0.029925187032418952,0.032487452437214,
0.02997506234413965,0.005612688162003249,
0.03002493765586035,0.02395654237672683,
0.030074812967581046,0.010633276340504143,
0.030124688279301745,-0.00019904305068996035,
0.030174563591022444,0.03233094094564067,
0.030224438902743143,0.022322828676925744,
0.03027431421446384,0.013814005334685226,
0.03032418952618454,0.0054885718030298625,
0.030374064837905237,-0.00900997886762946,
0.030423940149625937,0.017129902716509954,
0.030473815461346632,0.031699835933164416,
0.03052369077306733,0.0003038316576466447,
0.03057356608478803,0.01897498430728293,
0.03062344139650873,0.042597347047793596,
0.030673316708229426,0.021594863426966465,
0.030723192019950125,0.028579336118193435,
0.030773067331670824,0.018131321236296072,
0.03082294264339152,0.003352386083432536,
0.03087281795511222,0.0016363354304175654,
0.030922693266832918,-0.01814623032622849,
0.030972568578553617,0.03530159697112136,
0.031022443890274313,-0.006303162670520376,
0.031072319201995012,0.035628516253841114,
0.03112219451371571,0.016115154613919134,
0.03117206982543641,0.03576950601756297,
0.031221945137157106,-0.00639881534158682,
0.03127182044887781,0.005520894463958065,
0.031321695760598504,0.03028023494128594,
0.0313715710723192,0.010892826222846617,
0.0314214463840399,0.022940449275610307,
0.0314713216957606,0.009047813235779379,
0.031521197007481294,0.027430525569127978,
0.031571072319202,0.010886427933411508,
0.03162094763092269,0.031790897490433206,
0.03167082294264339,0.03258632462202751,
0.03172069825436409,0.012490996632177162,
0.03177057356608479,-0.011301148474283842,
0.03182044887780549,0.0008573020865581815,
0.031870324189526185,0.03330371817856676,
0.03192019950124688,0.02763059578189629,
0.03197007481296758,0.003481609651208497,
0.03201995012468828,0.01572439765344042,
0.032069825436408975,-0.005417125332142461,
0.03211970074812968,0.03426548974431515,
0.03216957605985037,0.03611971566620108,
0.032219451371571076,0.029948302928852966,
0.03226932668329177,0.02397448211100241,
0.03231920199501247,0.018346956477952085,
0.03236907730673317,0.02091691753672937,
0.032418952618453865,0.003643103311833415,
0.03246882793017456,0.0038616923566325186,
0.032518703241895264,-0.008218680929122847,
0.03256857855361596,0.028723931730547138,
0.032618453865336655,-0.006880760011299721,
0.03266832917705736,0.018148427361633416,
0.032718204488778053,0.001216264503798515,
0.032768079800498756,0.040308285901480674,
0.03281795511221945,0.026834670108457623,
0.03286783042394015,0.008817868542883781,
0.03291770573566085,0.018562178256437245,
0.032967581047381546,0.01765879536177611,
0.03301745635910224,0.025465994429780186,
0.033067331670822944,0.029974312120830068,
0.03311720698254364,0.0019687053335672895,
0.03316708229426434,0.04730098330334749,
0.03321695760598504,0.040806503733397365,
0.033266832917705734,0.028401806354597763,
0.03331670822942644,0.017538651250286898,
0.03336658354114713,0.017254178840869203,
0.03341645885286783,0.019469978911970748,
0.03346633416458853,0.037259593622766526,
0.033516209476309226,0.01837542242900094,
0.03356608478802992,0.03021709034670359,
0.033615960099750625,0.03610008727111506,
0.03366583541147132,0.04769678099411427,
0.03371571072319202,-0.01616804704571464,
0.03376558603491272,0.04572792562026824,
0.033815461346633414,0.018067018341725503,
0.03386533665835412,0.052820561032361005,
0.03391521197007481,0.013463835103049946,
0.03396508728179551,0.02225537921138861,
0.03401496259351621,0.0041391335859567585,
0.03406483790523691,0.024459273449198175,
0.0341147132169576,-0.0022428365480104545,
0.034164588528678305,0.018489580323729916,
0.034214463840399,0.010140716067856374,
0.034264339152119704,0.013728026455463076,
0.0343142144638404,0.04401110277458409,
0.034364089775561095,0.018335024646105296,
0.0344139650872818,0.035656187078569934,
0.03446384039900249,0.04132010273356984,
0.03451371571072319,0.021548167734869967,
0.03456359102244389,0.01667707416488285,
0.03461346633416459,0.03489484454652128,
0.03466334164588529,0.014078102362956993,
0.034713216957605986,-0.0027801079899105914,
0.03476309226932668,0.007673144245739536,
0.034812967581047384,0.023360299016496635,
0.03486284289276808,0.005968959765374565,
0.034912718204488775,0.011320498508386453,
0.03496259351620948,0.005647796138956943,
0.035012468827930174,0.02484185593760055,
0.03506234413965087,0.004777890496927036,
0.03511221945137157,0.038916556726161525,
0.03516209476309227,0.02301224756004909,
0.03521197007481297,0.022229137055989598,
0.035261845386533666,0.01213938357767827,
0.03531172069825436,0.01420926020941468,
0.035361596009975065,-0.002259755572752424,
0.03541147132169576,0.0041152246411665615,
0.035461346633416456,0.031380390619951334,
0.03551122194513716,0.02940760964291271,
0.035561097256857854,-0.0020029740924979965,
0.03561097256857856,0.01917127858381465,
0.03566084788029925,0.029042705793805308,
0.03571072319201995,0.030180195452691135,
0.03576059850374065,0.00366471101721743,
0.03581047381546135,0.0036634963053350754,
0.03586034912718204,0.012629921206367571,
0.035910224438902745,0.02131917569955866,
0.03596009975062344,0.0162254095133871,
0.036009975062344136,0.012880060310139258,
0.03605985037406484,0.015917579473376183,
0.036109725685785535,0.016759430011177513,
0.03615960099750624,0.007035069027361887,
0.03620947630922693,0.03287779000972006,
0.03625935162094763,-0.0343697155777393,
0.03630922693266833,0.01631058036046055,
0.03635910224438903,0.026150581080147943,
0.03640897755610972,0.03440829487828255,
0.036458852867830426,0.0185111930988955,
0.03650872817955112,-0.01635022230882292,
0.036558603491271824,0.014604144214954503,
0.03660847880299252,0.0005346743943196262,
0.036658354114713215,0.017347629143292128,
0.03670822942643392,0.03210498919550207,
0.036758104738154614,0.032483192026622754,
0.03680798004987531,-0.012514778341405857,
0.03685785536159601,0.018940907955579716,
0.03690773067331671,0.01598696142056062,
0.0369576059850374,0.016364705681109225,
0.037007481296758106,0.019441485483963968,
0.0370573566084788,-0.00979184929469091,
0.037107231920199504,-0.0020466735652916977,
0.0371571072319202,0.028071039566626363,
0.037206982543640896,-0.00462888640960697,
0.0372568578553616,-0.007355012297556893,
0.037306733167082294,0.022756745955236902,
0.03735660847880299,0.015306542382349107,
0.03740648379052369,0.03107841776994398,
0.03745635910224439,0.01519362223406318,
0.037506234413965084,0.012611322011208468,
0.037556109725685786,0.010775174624726136,
0.03760598503740648,-0.008422007112830086,
0.037655860349127185,0.018412993394743712,
0.03770573566084788,0.027851523793662382,
0.037755610972568576,-0.0029815007411457626,
0.03780548628428928,-0.004354516193960274,
0.037855361596009975,0.0038361223498002825,
0.03790523690773067,-0.008371559135870704,
0.03795511221945137,0.022807440533578003,
0.03800498753117207,0.016715571106839546,
0.03805486284289277,-0.027399136638369476,
0.03810473815461347,0.002494644881023308,
0.03815461346633416,-0.00784898826546137,
0.038204488778054865,0.014102292449283125,
0.03825436408977556,0.016862712364713005,
0.03830423940149626,-0.026539811173368802,
0.03835411471321696,-0.03193628603030265,
0.038403990024937655,0.016811724605460657,
0.03845386533665835,-0.0094598224974788,
0.03850374064837905,-0.0057696136966008515,
0.03855361596009975,0.0104857448969099,
0.03860349127182045,0.0056389697600862385,
0.03865336658354115,0.0032695823259033838,
0.03870324189526184,0.0026537664998583783,
0.038753117206982546,-0.007705524165899707,
0.03880299251870324,-0.011796782534052102,
0.03885286783042394,-0.0076409479853207386,
0.03890274314214464,0.007888811225194315,
0.038952618453865336,0.004852645574800145,
0.03900249376558604,-0.0197704937464776,
0.039052369077306734,-0.017609293398615666,
0.03910224438902743,0.009048437183550587,
0.03915211970074813,-0.015436875163585759,
0.03920199501246883,-0.012248170461089935,
0.039251870324189524,0.0019298789154334945,
0.039301745635910226,-0.022608760521108006,
0.03935162094763092,-0.013500854256232438,
0.03940149625935162,-0.026422204178125235,
0.03945137157107232,0.01701071380079259,
0.039501246882793016,-0.01592026696207194,
0.03955112219451372,-0.01056517322031473,
0.039600997506234414,-0.004360902244969199,
0.03965087281795511,-0.0016440290368286248,
0.03970074812967581,-0.010719579273780352,
0.03975062344139651,-0.014804168677080518,
0.039800498753117204,-0.009515177445137697,
0.03985037406483791,-0.002507027125246316,
0.0399002493765586,-0.011899608726776551,
0.039950124688279305,0.0013148436960838334,
0.04,-0.012055114240838546,
0.0400498753117207,0.0019315594560160203,
0.0400997506234414,0.00023364470985326805,
0.040149625935162095,-0.004089630460853997,
0.04019950124688279,-0.0037227614275812393,
0.04024937655860349,9.438817412378217e-05,
0.04029925187032419,-0.003270206209189281,
0.040349127182044885,-0.004887422517137268,
0.04039900249376559,-0.002587964460563601,
0.04044887780548628,0.004854952388416505,
0.040498753117206986,-0.02435770884612569,
0.04054862842892768,-0.012927016775223444,
0.04059850374064838,-0.04408895896490296,
0.04064837905236908,-0.007577048802026655,
0.040698254364089775,0.004629947081085321,
0.04074812967581047,0.0004666812535026668,
0.040798004987531174,-0.0012405619371678635,
0.04084788029925187,-0.002252046081251586,
0.040897755610972565,-0.017750599244480237,
0.04094763092269327,0.026053702881304767,
0.04099750623441396,-0.017157113331506928,
0.041047381546134666,-0.038499640142931245,
0.04109725685785536,-0.04238051386655804,
0.04114713216957606,-0.013956152158720855,
0.04119700748129676,0.008691608511067539,
0.041246882793017456,-0.012705875170647384,
0.04129675810473815,-0.03507491184652031,
0.041346633416458854,-0.027355045770588435,
0.04139650872817955,-0.02623126608533464,
0.04144638403990025,-0.009388901243080887,
0.04149625935162095,-0.008667409723308745,
0.041546134663341644,0.010636911208420221,
0.04159600997506235,0.006677266320716326,
0.04164588528678304,-0.018731380386853243,
0.04169576059850374,0.0031366718678622896,
0.04174563591022444,-0.0025806651084556934,
0.041795511221945136,-0.005939021263041891,
0.04184538653366583,0.019164137294358327,
0.041895261845386535,-0.021344403323084734,
0.04194513715710723,-0.044898039229639836,
0.04199501246882793,-0.03224939085390147,
0.04204488778054863,0.0018081246750144605,
0.042094763092269324,0.016406500436678205,
0.04214463840399003,-0.021033956326539562,
0.04219451371571072,-0.02924357983156505,
0.04224438902743142,-0.03264958090590127,
0.04229426433915212,0.006190310426141311,
0.04234413965087282,-0.015350350935806771,
0.04239401496259352,-0.0034343569630949974,
0.042443890274314215,0.0041787349566511645,
0.04249376558603491,0.007575697279865887,
0.042543640897755614,-0.022128639405060022,
0.04259351620947631,-0.004656384352253686,
0.042643391521197005,0.014045844676449443,
0.04269326683291771,-0.0228988373097938,
0.0427431421446384,0.0008930205431376854,
0.0427930174563591,0.009121789188714566,
0.0428428927680798,0.00031366896127334176,
0.0428927680798005,0.0004296026942984636,
0.0429426433915212,-0.04662060970609444,
0.042992518703241896,-0.02575423800967891,
0.04304239401496259,-0.02579480680391886,
0.043092269326683294,-0.03518639666721596,
0.04314214463840399,-0.02130495520832433,
0.043192019950124685,0.0020542130541487263,
0.04324189526184539,-0.02566762106096748,
0.043291770573566084,-0.03617993858284179,
0.043341645885286786,-0.04234649171003655,
0.04339152119700748,-0.03770440648374805,
0.04344139650872818,-0.009366453091841398,
0.04349127182044888,-0.021411436402520266,
0.043541147132169576,-0.0386725647280814,
0.04359102244389027,-0.021156760970705207,
0.043640897755610975,-0.030609930363286277,
0.04369077306733167,-0.02609422465383455,
0.043740648379052366,0.0017991876585715105,
0.04379052369077307,-0.02046414058710016,
0.043840399002493764,-0.009485780966151089,
0.04389027431421447,-0.018532424229468915,
0.04394014962593516,0.005674634070997393,
0.04399002493765586,-0.0027581193064444287,
0.04403990024937656,-0.027786199033550982,
0.04408977556109726,-0.01248471682572038,
0.04413965087281795,-0.0489379057301243,
0.044189526184538655,-0.015433439061923713,
0.04423940149625935,-0.015056173874548905,
0.04428927680798005,-0.013519519917466003,
0.04433915211970075,0.007731618843171452,
0.044389027431421445,-0.018458166882793392,
0.04443890274314215,-0.01023710749897147,
0.04448877805486284,0.007959953175466201,
0.04453865336658354,-0.02745984188465827,
0.04458852867830424,0.005596305199835824,
0.04463840399002494,-0.025248113162552772,
0.04468827930174563,-0.023179422379997722,
0.044738154613466335,-0.013954764270427099,
0.04478802992518703,-0.01924118327017684,
0.044837905236907734,-0.00996675109466036,
0.04488778054862843,-0.005827096930671542,
0.044937655860349125,-0.03170291682499185,
0.04498753117206983,-0.024296907825476114,
0.045037406483790524,-0.0057291696804200615,
0.04508728179551122,-0.029770292495144512,
0.04513715710723192,-0.03526974727975765,
0.04518703241895262,-0.005559951496404097,
0.04523690773067331,-0.02032008144751967,
0.045286783042394016,-0.01972874533979275,
0.04533665835411471,-0.0021067042846930496,
0.045386533665835414,0.0013391783898375632,
0.04543640897755611,-0.003945048938671094,
0.045486284289276806,-0.008965943892730876,
0.04553615960099751,-0.0021225894007845525,
0.045586034912718204,-0.0024391098125392963,
0.0456359102244389,-0.0004220121393570912,
0.0456857855361596,-0.018918691526683636,
0.0457356608478803,0.008377061373919813,
0.045785536159601,-0.0045059864167751795,
0.045835411471321696,-0.00026509685018292865,
0.04588528678304239,-0.03489988816405343,
0.045935162094763095,-0.00865072823139027,
0.04598503740648379,-0.033678671724020254,
0.046034912718204486,-0.00809014378578427,
0.04608478802992519,0.0014539257553380907,
0.046134663341645885,0.022414142538752346,
0.04618453865336658,0.00367967370876195,
0.04623441396508728,-0.0027015138507186327,
0.04628428927680798,0.004867858682463484,
0.04633416458852868,-0.024313833394846638,
0.04638403990024938,-0.031368835032783746,
0.04643391521197007,0.0020688625796868353,
0.046483790523690775,-0.02401666273598064,
0.04653366583541147,-0.012803521131397492,
0.04658354114713217,-0.0065498357699731525,
0.04663341645885287,0.012200338303953609,
0.046683291770573565,-0.02160477527015439,
0.04673316708229427,-0.03729211495511158,
0.04678304239401496,0.03631279593747597,
0.04683291770573566,-0.006956458501959446,
0.04688279301745636,0.0034307375723442706,
0.04693266832917706,-0.007614746632301266,
0.04698254364089775,-0.01384305686684556,
0.047032418952618456,-0.005060411964256495,
0.04708229426433915,0.01368973720901736,
0.04713216957605985,-0.0012370020421992268,
0.04718204488778055,0.0023685622196602447,
0.047231920199501246,-0.023539306171038468,
0.04728179551122195,0.010011914297171617,
0.047331670822942644,-0.014616289547227788,
0.04738154613466334,-0.0068542345638199775,
0.04743142144638404,0.025464512968262052,
0.04748129675810474,0.00030038671373955,
0.047531172069825434,0.0005459352709025016,
0.047581047381546136,0.011995626806438436,
0.04763092269326683,-0.012629499190341852,
0.047680798004987535,-0.013864247580260678,
0.04773067331670823,0.005112613252737475,
0.047780548628428926,0.022596460563890183,
0.04783042394014963,-0.013746978107949953,
0.047880299251870324,0.02226215356868455,
0.04793017456359102,0.00850318895371149,
0.04798004987531172,0.007516368005447026,
0.04802992518703242,0.01690209554005659,
0.048079800498753114,-0.01255092372575568,
0.04812967581047382,0.0017800749236890293,
0.04817955112219451,0.0052842418530914745,
0.048229426433915215,0.007412704444303234,
0.04827930174563591,-0.04952447077584961,
0.048329177057356607,-0.009338452479355608,
0.04837905236907731,-0.0401003526039793,
0.048428927680798005,0.009614664562242903,
0.0484788029925187,0.0038022726025551167,
0.0485286783042394,0.001532315708544835,
0.0485785536159601,0.023021415132089818,
0.048628428927680795,0.006634270324488463,
0.0486783042394015,0.0010454288117811988,
0.04872817955112219,0.0066708463804397355,
0.048778054862842896,0.00035641914148465577,
0.04882793017456359,0.007041513319765172,
0.04887780548628429,0.0012214240161695965,
0.04892768079800499,-0.01451234311688387,
0.048977556109725685,0.007180975239435735,
0.04902743142144638,0.024137598608724335,
0.049077306733167084,0.010130091628128182,
0.04912718204488778,0.019758128944921922,
0.04917705735660848,0.003974574163844883,
0.04922693266832918,0.007438500835523857,
0.04927680798004987,0.01601929941550152,
0.049326683291770576,0.00864055972402786,
0.04937655860349127,0.025476822335842413,
0.04942643391521197,0.04439166283446826,
0.04947630922693267,0.006869433244684334,
0.049526184538653366,-0.0026345134435124262,
0.04957605985037406,0.00219027877879943,
0.049625935162094764,0.01805089492209185,
0.04967581047381546,-0.002221494456830871,
0.04972568578553616,-0.009014844040802614,
0.04977556109725686,0.006102266009308624,
0.049825436408977554,0.0043793474515666925,
0.04987531172069826,0.012300282794834186,
0.04992518703241895,0.005119536712077499,
0.04997506234413965,0.018234841844472986,
0.05002493765586035,0.0029187826863010004,
0.050074812967581046,0.015657114613198894,
0.05012468827930175,0.012926928397331377,
0.050174563591022445,0.019895985498480376,
0.05022443890274314,0.0038793951004623874,
0.05027431421446384,0.013209622744551723,
0.05032418952618454,0.03851358627671754,
0.050374064837905234,0.03545817147854341,
0.05042394014962594,0.023152163927202353,
0.05047381546134663,0.04747438005445844,
0.05052369077306733,0.010453534310911256,
0.05057356608478803,0.02152121309277026,
0.05062344139650873,0.0038494716099756344,
0.05067331670822943,-0.00809456218442563,
0.050723192019950125,-0.000681778303966929,
0.05077306733167082,0.00915259344775215,
0.050822942643391524,0.03312540657644069,
0.05087281795511222,0.016601352789604857,
0.050922693266832915,0.022204678592708933,
0.05097256857855362,0.016029187943889595,
0.05102244389027431,0.029718120149697845,
0.051072319201995016,0.0256812249190264,
0.05112219451371571,-0.027366485089373397,
0.05117206982543641,0.019946057685022264,
0.05122194513715711,0.022916615438778327,
0.051271820448877806,0.03934823258333681,
0.0513216957605985,0.0379910614822636,
0.051371571072319204,0.006336684223408662,
0.0514214463840399,0.010103922209470281,
0.051471321695760595,0.013103115831914652,
0.0515211970074813,0.0029066173846308482,
0.051571072319201994,0.004997550994452003,
0.051620947630922696,0.0327357456101581,
0.05167082294264339,0.023015543833436226,
0.05172069825436409,0.03361998071189732,
0.05177057356608479,0.023559284489599538,
0.051820448877805486,0.03056095167574195,
0.05187032418952618,0.035104147632352534,
0.051920199501246884,0.045370497169762936,
0.05197007481296758,0.012344826976221966,
0.052019950124688276,0.04689221605249726,
0.05206982543640898,0.02366072787565267,
0.052119700748129674,0.002335218934651953,
0.05216957605985038,-0.003563034507837494,
0.05221945137157107,0.026372454310733384,
0.05226932668329177,0.05111441450221914,
0.05231920199501247,0.022424290307323895,
0.05236907730673317,0.004363304674512493,
0.05241895261845386,0.0250613927676287,
0.052468827930174565,0.01900708872214786,
0.05251870324189526,0.03807289446844555,
0.05256857855361596,0.012857549704408422,
0.05261845386533666,0.014545002851816159,
0.052668329177057355,-0.022590383383482855,
0.05271820448877806,0.021290162800590463,
0.05276807980049875,0.011553850047886564,
0.05281795511221945,0.03705902658579144,
0.05286783042394015,0.003940232922833197,
0.05291770573566085,0.047218514275631104,
0.05296758104738154,0.010654078011485978,
0.053017456359102245,0.01300401115109061,
0.05306733167082294,0.02897768566458382,
0.053117206982543644,0.021900689903668048,
0.05316708229426434,0.04152833936116195,
0.053216957605985035,0.02250373267047992,
0.05326683291770574,0.01657570715226485,
0.053316708229426434,0.02864765830783035,
0.05336658354114713,0.03235974182422505,
0.05341645885286783,0.013149970109270413,
0.05346633416458853,0.047488165961695555,
0.05351620947630923,-0.002766068168050872,
0.053566084788029926,0.026747550306775197,
0.05361596009975062,0.05889295784395962,
0.053665835411471324,0.017056441473323438,
0.05371571072319202,0.016724686834138285,
0.053765586034912716,0.023296382900703558,
0.05381546134663342,0.011822578099262617,
0.053865336658354114,0.01481969056631147,
0.05391521197007481,0.02721416540051851,
0.05396508728179551,0.03007992737589828,
0.05401496259351621,0.0196404726245013,
0.05406483790523691,0.01793683635877931,
0.054114713216957606,0.03364953468517219,
0.0541645885286783,0.03886059554698089,
0.054214463840399005,0.02710867622770077,
0.0542643391521197,0.01019098511078767,
0.054314214463840396,0.024346334971847676,
0.0543640897755611,0.039280294865834224,
0.054413965087281795,0.040796320070277795,
0.0544638403990025,0.030170454106487166,
0.05451371571072319,0.011877016196007463,
0.05456359102244389,0.013792750169968684,
0.05461346633416459,0.012744035676982167,
0.05466334164588529,0.009866382344240414,
0.05471321695760598,0.019269395215348838,
0.054763092269326685,0.05181570480923185,
0.05481296758104738,0.0065895189022759475,
0.05486284289276808,0.013449067394393551,
0.05491271820448878,0.026947616316079937,
0.054962593516209475,0.047832223582651934,
0.05501246882793018,0.021655122623647702,
0.05506234413965087,0.02359229321951524,
0.05511221945137157,0.010056554241891986,
0.05516209476309227,0.016010370441201627,
0.05521197007481297,0.031333260107313375,
0.05526184538653366,0.029915288213779433,
0.055311720698254366,0.014275028652275631,
0.05536159600997506,0.011672867684955002,
0.05541147132169576,0.02240976373608715,
0.05546134663341646,0.015524493210608208,
0.055511221945137156,0.020301311463754298,
0.05556109725685786,0.027994723971927232,
0.055610972568578554,0.033971148039487815,
0.05566084788029925,0.029355906551983092,
0.05571072319201995,0.005858816228707623,
0.05576059850374065,0.02235815999207682,
0.055810473815461344,0.027057785492836106,
0.055860349127182046,-0.00249903885112231,
0.05591022443890274,0.013848528559895849,
0.055960099750623445,0.027334042803293594,
0.05600997506234414,0.02653350985358163,
0.056059850374064836,0.012047854826794588,
0.05610972568578554,0.029860841255352103,
0.056159600997506234,0.006644546646669776,
0.05620947630922693,0.002977606290073041,
0.05625935162094763,0.02205355001273518,
0.05630922693266833,0.00397353680758864,
0.056359102244389024,0.020897317786991526,
0.05640897755610973,0.03900938273618003,
0.05645885286783042,0.0069063518529009875,
0.056508728179551125,0.007169129760411148,
0.05655860349127182,0.029659968894052667,
0.056608478802992516,0.03882302223135078,
0.05665835411471322,0.02082401325822144,
0.056708229426433915,0.020734225196111986,
0.05675810473815461,0.018298485760706463,
0.05680798004987531,-0.0035623749810818617,
0.05685785536159601,0.007838091495226178,
0.05690773067331671,0.008488353511960058,
0.05695760598503741,0.03388053755943632,
0.0570074812967581,0.018019637522071776,
0.057057356608478806,0.025032230067324725,
0.0571072319201995,0.023414371787352267,
0.0571571072319202,0.0027736330323738477,
0.0572069825436409,0.0175551182124522,
0.057256857855361595,0.03052017558576253,
0.05730673316708229,0.015348032167048515,
0.057356608478802994,-0.006913236336591733,
0.05740648379052369,0.02501733222787326,
0.05745635910224439,0.0049802976289519294,
0.05750623441396509,-0.0023893507310862403,
0.05755610972568578,-0.0004963524252755269,
0.057605985037406486,-0.021886461072047943,
0.05765586034912718,0.02605374459236466,
0.05770573566084788,0.007821792999837361,
0.05775561097256858,-0.006940190397645695,
0.057805486284289276,0.012877107356423577,
0.05785536159600998,0.009957016141228018,
0.057905236907730674,-0.008363963980260491,
0.05795511221945137,-0.0053188112768720545,
0.05800498753117207,0.021017644448147896,
0.05805486284289277,-0.014689680278410151,
0.058104738154613464,0.0241329745940985,
0.05815461346633417,0.009471109090339458,
0.05820448877805486,0.00779674867045665,
0.05825436408977556,-0.013009326692396317,
0.05830423940149626,-0.0008758962749511236,
0.058354114713216956,0.02038919313258338,
0.05840399002493766,0.013572018653655645,
0.058453865336658355,-0.0005962794052446489,
0.05850374064837905,0.0002120928965494294,
0.05855361596009975,-0.0031664324495856533,
0.05860349127182045,0.021176841286578436,
0.058653366583541144,0.011268185465987677,
0.05870324189526185,-0.002302951407234568,
0.05875311720698254,-0.03120089918142676,
0.05880299251870324,0.002792324934753455,
0.05885286783042394,-0.007231710601957509,
0.05890274314214464,0.0033390846345338083,
0.05895261845386534,0.009774769917382879,
0.059002493765586035,-0.018479799298161154,
0.05905236907730673,0.011353400264022899,
0.059102244389027433,-0.00025214513893923675,
0.05915211970074813,0.0007846531595773292,
0.059201995012468825,-0.01923345866299084,
0.05925187032418953,-0.0285531783226681,
0.05930174563591022,0.005502731719675234,
0.059351620947630926,-0.013582306879450615,
0.05940149625935162,0.02722353154619314,
0.05945137157107232,-0.008024917532843378,
0.05950124688279302,-0.023973027365690826,
0.059551122194513716,0.002165002229538817,
0.05960099750623441,-0.0232983812732262,
0.059650872817955114,-0.0016364396809461805,
0.05970074812967581,0.005311763715121531,
0.059750623441396505,-0.010068999533411322,
0.05980049875311721,-0.015609956430774842,
0.059850374064837904,0.014955303247855076,
0.059900249376558606,0.002476573367628798,
0.0599501246882793,-0.0020613403193196923,
0.06,-0.011759933405234695,
0.0600498753117207,-0.015027418573227458,
0.060099750623441396,0.008894833906255138,
0.06014962593516209,-0.00786143685590516,
0.060199501246882794,-0.005873358715623075,
0.06024937655860349,-0.038654184302563274,
0.06029925187032419,-0.0001515108645760016,
0.06034912718204489,-0.017851788815031206,
0.060399002493765584,-0.017302479201493404,
0.06044887780548629,-0.017165329028819894,
0.06049875311720698,-0.009725004890894092,
0.06054862842892768,-0.03334806856873432,
0.06059850374064838,0.0002860048521069348,
0.06064837905236908,-0.02181762895671742,
0.06069825436408977,-0.02483353884707691,
0.060748129675810475,-0.01674375924284983,
0.06079800498753117,-0.017114090339062873,
0.06084788029925187,-0.0033967003199887073,
0.06089775561097257,-0.04106329065531758,
0.060947630922693265,-0.04411099684748339,
0.06099750623441397,0.010122762314034233,
0.06104738154613466,-0.01954837866652129,
0.06109725685785536,-0.015460858091220052,
0.06114713216957606,-0.019439917733467683,
0.06119700748129676,-0.02165851023040043,
0.06124688279301746,-0.0333767874903925,
0.061296758104738155,-0.02357409933975846,
0.06134663341645885,0.0142998835953727,
0.061396508728179554,0.00749805120916202,
0.06144638403990025,-0.0033897054443548184,
0.061496259351620945,-0.004640594494258778,
0.06154613466334165,-0.033660667040309615,
0.061596009975062344,-0.015183983279307289,
0.06164588528678304,-0.02318900113888577,
0.06169576059850374,0.003577328850926084,
0.06174563591022444,0.001165838029148913,
0.06179551122194514,-0.014558728442569864,
0.061845386533665836,-0.02049381070062376,
0.06189526184538653,-0.039944276746093695,
0.061945137157107234,0.0016813090768635127,
0.06199501246882793,-0.024762259778798194,
0.062044887780548626,-0.03518654156329335,
0.06209476309226933,-0.045322295830341,
0.062144638403990024,-0.011055727037321895,
0.06219451371571072,-0.00365617220991076,
0.06224438902743142,-0.010685488336499993,
0.06229426433915212,-0.04005203331125949,
0.06234413965087282,-0.006136328558832813,
0.062394014962593516,-0.023947797509449094,
0.06244389027431421,0.003701124288819333,
0.062493765586034915,-0.02512787654568572,
0.06254364089775562,-0.02139808421495425,
0.06259351620947631,-0.002193242973126187,
0.06264339152119701,0.0029196100340459774,
0.0626932668329177,-0.007689906376179929,
0.0627431421446384,-0.004086048527467271,
0.0627930174563591,-0.02894692575764553,
0.0628428927680798,-0.034022681704039354,
0.0628927680798005,-0.01043473357625057,
0.0629426433915212,0.009995910755959667,
0.06299251870324189,0.0005869381540755669,
0.06304239401496259,-0.02300294688299497,
0.0630922693266833,-0.030101276720613586,
0.063142144638404,-0.014384529153531682,
0.06319201995012469,-0.02210342511969297,
0.06324189526184539,-0.006620171177613916,
0.06329177057356608,-0.009838693674861159,
0.06334164588528678,0.010481329833149599,
0.06339152119700749,-0.009658897546308259,
0.06344139650872818,-0.006065562886429111,
0.06349127182044888,-0.030224165496492688,
0.06354114713216957,-0.014808880307436205,
0.06359102244389027,-0.042414234551623915,
0.06364089775561098,-0.01924750779362165,
0.06369077306733167,-0.03969954947461421,
0.06374064837905237,-0.022086365254569907,
0.06379052369077307,-0.024854608783593045,
0.06384039900249376,-0.009105850820552968,
0.06389027431421446,-0.011746728980475732,
0.06394014962593517,-0.004647358541534573,
0.06399002493765586,-0.019462214700704514,
0.06403990024937656,-0.024245758216327178,
0.06408977556109725,0.00020093968719020992,
0.06413965087281795,0.02340668843321847,
0.06418952618453866,-0.023410617102875605,
0.06423940149625935,-0.03608956208072978,
0.06428927680798005,-0.032423860515149686,
0.06433915211970075,0.005279589097595756,
0.06438902743142144,-0.010794471128212236,
0.06443890274314215,-0.03202078013584523,
0.06448877805486285,0.0033944314848493237,
0.06453865336658354,-0.018023928782226598,
0.06458852867830424,0.009411975478150064,
0.06463840399002493,-0.0025373166584284883,
0.06468827930174563,0.0074888111872019394,
0.06473815461346634,0.004356125767055321,
0.06478802992518704,-0.0076156148391612445,
0.06483790523690773,-0.005234452655361115,
0.06488778054862843,-0.002761941849811109,
0.06493765586034912,-0.023028168520413336,
0.06498753117206983,-0.026251531179492915,
0.06503740648379053,-0.0010970584887273812,
0.06508728179551122,-0.029613599079965882,
0.06513715710723192,-0.003922731145502397,
0.06518703241895261,0.012876479164640886,
0.06523690773067331,-0.0181225347440174,
0.06528678304239402,-0.018788203473747482,
0.06533665835411472,-8.865732115166669e-05,
0.06538653366583541,-0.011941643300568662,
0.06543640897755611,-0.03255910673772727,
0.0654862842892768,0.012417758522230421,
0.06553615960099751,-0.022673274502147463,
0.06558603491271821,-0.01709594702829319,
0.0656359102244389,0.006364493893221619,
0.0656857855361596,-0.021805741302263797,
0.0657356608478803,-0.01567536308764414,
0.06578553615960099,-0.028683938666337082,
0.0658354114713217,-0.030883447861232215,
0.0658852867830424,-0.01571840650001933,
0.06593516209476309,-0.02158792375656215,
0.06598503740648379,0.00697017823266185,
0.06603491271820448,-0.01826896430185052,
0.06608478802992519,-0.019428428263868217,
0.06613466334164589,-0.003687986444025516,
0.06618453865336658,0.006693978400733314,
0.06623441396508728,-0.0218252808232154,
0.06628428927680798,-0.011475960930568734,
0.06633416458852869,-0.0024584166045380123,
0.06638403990024938,0.002901950646536076,
0.06643391521197008,-0.010169732722874733,
0.06648379052369077,-0.0011291511752462308,
0.06653366583541147,-0.013893289472474847,
0.06658354114713216,-0.01468264053414033,
0.06663341645885287,-0.00041298948644176263,
0.06668329177057357,-0.010274753238095641,
0.06673316708229426,-0.053906872920434994,
0.06678304239401496,0.007282730587277628,
0.06683291770573566,-0.012506246664836468,
0.06688279301745637,-0.006796830307907485,
0.06693266832917706,-0.01430655956640795,
0.06698254364089776,-0.00041510172953972396,
0.06703241895261845,0.0024435255879769477,
0.06708229426433915,-0.0005943947398295772,
0.06713216957605984,-0.0014896024105518547,
0.06718204488778055,0.008818221624985694,
0.06723192019950125,0.010962932567844998,
0.06728179551122195,0.013586217663434652,
0.06733167082294264,-0.01597726249324137,
0.06738154613466334,-0.009558089766213865,
0.06743142144638405,0.011337206570539752,
0.06748129675810474,0.014303039340723234,
0.06753117206982544,-0.02540639515158834,
0.06758104738154613,-0.002327027439632016,
0.06763092269326683,0.016725300147609375,
0.06768079800498752,-0.001351965337821779,
0.06773067331670823,0.007301916200351982,
0.06778054862842893,0.047389520859314783,
0.06783042394014963,0.003967633265051391,
0.06788029925187032,-0.009553190645523051,
0.06793017456359102,-0.017141578301128287,
0.06798004987531173,0.0009124470932347258,
0.06802992518703242,0.0023932837118672257,
0.06807980049875312,-0.0023754733576941706,
0.06812967581047381,0.016303391610705025,
0.06817955112219451,-0.009975995836836032,
0.0682294264339152,0.019097563229660382,
0.06827930174563591,-0.003143545467419828,
0.06832917705735661,0.009474291851772423,
0.0683790523690773,-0.010989111041430993,
0.068428927680798,0.008868593697580892,
0.0684788029925187,0.03443644715139347,
0.06852867830423941,0.025175205440233966,
0.0685785536159601,-0.02935197442867068,
0.0686284289276808,0.029800443943513843,
0.0686783042394015,-0.009213424694411533,
0.06872817955112219,-0.02444091209730238,
0.0687780548628429,0.02350867755576086,
0.0688279301745636,0.017706554933386225,
0.06887780548628429,0.02984119428336314,
0.06892768079800499,0.019353280011155452,
0.06897755610972568,-0.0035473716887226385,
0.06902743142144638,0.01612667572131989,
0.06907730673316709,0.03582594816287665,
0.06912718204488778,-0.014067192644566573,
0.06917705735660848,-0.029751191941183072,
0.06922693266832917,0.0023225325065627037,
0.06927680798004987,0.02477034777283034,
0.06932668329177058,0.015647228715929374,
0.06937655860349128,-0.006344261261413672,
0.06942643391521197,0.021043295197844265,
0.06947630922693267,0.017099419863664846,
0.06952618453865336,0.022790575559509293,
0.06957605985037406,0.019605601845279413,
0.06962593516209477,0.02710819479173711,
0.06967581047381546,0.022413563843577892,
0.06972568578553616,0.0213309705665471,
0.06977556109725686,0.018930939277197304,
0.06982543640897755,0.023875035763555173,
0.06987531172069826,0.0323583902648777,
0.06992518703241896,0.027515507602252767,
0.06997506234413965,0.015561515263484505,
0.07002493765586035,0.01748211442228265,
0.07007481296758104,0.01902080489852162,
0.07012468827930174,0.01304209839370818,
0.07017456359102245,0.011432157477620029,
0.07022443890274314,-0.015132485731625844,
0.07027431421446384,0.015647858315088664,
0.07032418952618454,0.013046270027953224,
0.07037406483790523,0.045131595357383106,
0.07042394014962594,-0.010778294014035107,
0.07047381546134664,-0.0020407935029806423,
0.07052369077306733,0.022811947560812985,
0.07057356608478803,0.026874449414427494,
0.07062344139650872,0.0070401590869046925,
0.07067331670822943,0.029492465593302618,
0.07072319201995013,0.0034506284577369463,
0.07077306733167082,0.03149271862314272,
0.07082294264339152,0.01623205296104554,
0.07087281795511222,0.012443816588070537,
0.07092269326683291,0.01389008361184509,
0.07097256857855362,0.017507661444365306,
0.07102244389027432,0.01009627602404556,
0.07107231920199501,0.0401453704669601,
0.07112219451371571,0.001421700734067683,
0.0711720698254364,0.024609722855760137,
0.07122194513715711,0.00017687174703408248,
0.07127182044887781,0.0023098694202995512,
0.0713216957605985,0.03883552118279868,
0.0713715710723192,0.04851642743159594,
0.0714214463840399,0.0018997559952988012,
0.07147132169576059,0.042747912398828504,
0.0715211970074813,0.01627286522958725,
0.071571072319202,0.018168625740305804,
0.0716209476309227,0.027737533970020024,
0.07167082294264339,0.014900634679053096,
0.07172069825436408,0.02265144546318955,
0.0717705735660848,0.0279565140113474,
0.07182044887780549,0.049210771978372245,
0.07187032418952619,0.01561410636341282,
0.07192019950124688,0.010685523535138767,
0.07197007481296758,0.0033846452910994,
0.07201995012468827,0.008798439070065863,
0.07206982543640898,0.034886493336192696,
0.07211970074812968,0.030437171378217113,
0.07216957605985037,9.325344380285705e-05,
0.07221945137157107,0.01718394707014065,
0.07226932668329177,0.029560046074210904,
0.07231920199501247,0.03317553272125762,
0.07236907730673317,0.03706146820052923,
0.07241895261845387,0.028411122733204498,
0.07246882793017456,0.022733356707977062,
0.07251870324189526,0.028326095637843638,
0.07256857855361595,0.028442886681469878,
0.07261845386533666,0.033245895827999764,
0.07266832917705736,0.01303283147921398,
0.07271820448877805,0.041491494080236314,
0.07276807980049875,0.019033378354942426,
0.07281795511221945,0.015816143899417143,
0.07286783042394016,0.03511044048242183,
0.07291770573566085,0.011591492527008673,
0.07296758104738155,0.04697963590344805,
0.07301745635910224,0.038397329063336,
0.07306733167082294,0.014777948736837002,
0.07311720698254365,0.029978081879866593,
0.07316708229426434,0.007710177778774873,
0.07321695760598504,0.02408428003471361,
0.07326683291770573,0.034314117200853006,
0.07331670822942643,0.007871701708167204,
0.07336658354114713,0.049766165541895405,
0.07341645885286784,0.0023033363111945662,
0.07346633416458853,0.03938183049088985,
0.07351620947630923,0.0394786341506507,
0.07356608478802992,0.015242940712510113,
0.07361596009975062,0.04274744828817771,
0.07366583541147133,0.006766092855952366,
0.07371571072319202,0.023065874347383112,
0.07376558603491272,0.01639770581591175,
0.07381546134663342,0.023593842206982168,
0.07386533665835411,0.004438935072934649,
0.0739152119700748,0.042088296253356736,
0.07396508728179552,0.03518244444326675,
0.07401496259351621,0.04788559450497902,
0.07406483790523691,0.027856423093746197,
0.0741147132169576,0.039060811116936205,
0.0741645885286783,0.010238900276694683,
0.07421446384039901,0.007243003422045601,
0.0742643391521197,0.034051426851331196,
0.0743142144638404,0.01933008485988762,
0.0743640897755611,0.03135230291932578,
0.07441396508728179,0.017273150536051628,
0.07446384039900249,-0.005286839001345127,
0.0745137157107232,0.023725720439621702,
0.07456359102244389,0.02708576945107792,
0.07461346633416459,0.0038037124463227816,
0.07466334164588528,0.01150504633097824,
0.07471321695760598,0.03632554730351535,
0.07476309226932669,0.04042134531971642,
0.07481296758104738,0.03166765448712573,
0.07486284289276808,0.018058458462366634,
0.07491271820448878,0.014635897366036585,
0.07496259351620947,-0.008373806638064946,
0.07501246882793017,0.03824815824515293,
0.07506234413965088,0.042131884364795535,
0.07511221945137157,0.04570095375921475,
0.07516209476309227,0.01138317468457099,
0.07521197007481296,0.022109156064013796,
0.07526184538653366,0.06025543024536035,
0.07531172069825437,0.02567845796195748,
0.07536159600997507,0.02176296956533272,
0.07541147132169576,0.036303682147497456,
0.07546134663341646,0.01629731894440456,
0.07551122194513715,0.01360830499718569,
0.07556109725685786,0.0080234116057028,
0.07561097256857856,0.012334016041007475,
0.07566084788029925,0.024952260837089273,
0.07571072319201995,0.022157398075407373,
0.07576059850374064,0.03347808381623282,
0.07581047381546134,0.02358261330491992,
0.07586034912718205,0.024403742438540207,
0.07591022443890275,-0.01603349427895651,
0.07596009975062344,-0.005534567519151001,
0.07600997506234414,0.03817956707110008,
0.07605985037406483,-0.000744145603682328,
0.07610972568578554,0.04939390336147639,
0.07615960099750624,0.01946169059613744,
0.07620947630922693,0.01533480087288039,
0.07625935162094763,0.012929194032232135,
0.07630922693266833,0.02967159055655249,
0.07635910224438902,0.02664851839724387,
0.07640897755610973,0.0331272173705956,
0.07645885286783043,0.0275458588649862,
0.07650872817955112,-0.007938488138957735,
0.07655860349127182,-0.01702430193808811,
0.07660847880299251,0.01206107524340018,
0.07665835411471322,0.016264077454321575,
0.07670822942643392,0.0004022151338738608,
0.07675810473815461,0.013210283839730077,
0.07680798004987531,-0.012471145021100326,
0.076857855361596,0.027634511631060572,
0.0769077306733167,0.027586613975866047,
0.07695760598503741,0.01487161983412589,
0.0770074812967581,0.016145018714475157,
0.0770573566084788,-0.015127049559637826,
0.0771072319201995,0.03274938019401699,
0.0771571072319202,0.02306483856203017,
0.0772069825436409,0.013538829017493832,
0.0772568578553616,0.028113398119739674,
0.0773067331670823,-0.000990268019165165,
0.07735660847880299,0.004321811669318615,
0.07740648379052369,0.03744947602381454,
0.0774563591022444,0.0139362435214747,
0.07750623441396509,0.013886087297332575,
0.07755610972568579,-0.004710948122839655,
0.07760598503740648,-0.01282194880584428,
0.07765586034912718,-0.004191028469938674,
0.07770573566084787,0.014630040852159906,
0.07775561097256858,-0.019497379330485145,
0.07780548628428928,0.013463325148299194,
0.07785536159600998,0.001298581404480935,
0.07790523690773067,-0.00895656701569998,
0.07795511221945137,0.0016042493180495115,
0.07800498753117208,-0.009708203221500719,
0.07805486284289277,-0.00016074645434535108,
0.07810473815461347,-0.006850328079390486,
0.07815461346633416,0.0094681738037838,
0.07820448877805486,0.012763687899034974,
0.07825436408977555,0.009364179412695135,
0.07830423940149626,0.03690704622220184,
0.07835411471321696,0.004319312845456067,
0.07840399002493766,0.018128108468594632,
0.07845386533665835,0.0009386545608654814,
0.07850374064837905,-0.009038990802625673,
0.07855361596009976,-0.026420413869958234,
0.07860349127182045,0.004263588004127742,
0.07865336658354115,-0.0006426572706071795,
0.07870324189526184,0.01375376307080248,
0.07875311720698254,-0.0013029266188707565,
0.07880299251870324,-0.0006634298085726278,
0.07885286783042394,-0.02031201838320762,
0.07890274314214464,-0.010009512963516848,
0.07895261845386534,-0.020977738885136307,
0.07900249376558603,0.007871668067608813,
0.07905236907730673,0.027422727718628588,
0.07910224438902744,-0.006286926244082712,
0.07915211970074813,-0.001409453132047241,
0.07920199501246883,0.005227239623580895,
0.07925187032418952,-0.0034701167970398344,
0.07930174563591022,-0.011402716935953842,
0.07935162094763092,-0.018264730469195405,
0.07940149625935163,-0.004141611864387756,
0.07945137157107232,0.016445788456859765,
0.07950124688279302,0.024211464438933985,
0.07955112219451371,0.014388821554028326,
0.07960099750623441,0.0038538669607624558,
0.07965087281795512,0.004328458648482211,
0.07970074812967581,-0.007973368267609327,
0.07975062344139651,-0.004010309869976877,
0.0798004987531172,-0.018815840114669868,
0.0798503740648379,-0.017908425362078585,
0.07990024937655861,-0.0070918808332969385,
0.0799501246882793,0.02227212831038014,
0.08,0.009665211642609094,
0.0800498753117207,0.010932347265324358,
0.0800997506234414,-0.010309479560533137,
0.08014962593516209,-0.007412599076794339,
0.0801995012468828,-0.015750418042286926,
0.0802493765586035,0.024518168295273236,
0.08029925187032419,-0.021263937784547375,
0.08034912718204489,-0.02070213374889812,
0.08039900249376558,0.012018307406980192,
0.08044887780548629,0.008661569531292521,
0.08049875311720699,0.0007629748334245842,
0.08054862842892768,0.0010276839703698241,
0.08059850374064838,-0.03325697173306518,
0.08064837905236907,-0.013564131870620874,
0.08069825436408977,-0.013165655459958975,
0.08074812967581048,-0.00655289827868602,
0.08079800498753117,0.01176762501901633,
0.08084788029925187,-0.02775546532301811,
0.08089775561097257,-0.038627620883191535,
0.08094763092269326,-0.014561272809151895,
0.08099750623441397,-0.0042780758916244185,
0.08104738154613467,-0.007511236888874594,
0.08109725685785536,-0.006998737688720137,
0.08114713216957606,0.0022557554236480332,
0.08119700748129675,-0.023909480474944782,
0.08124688279301745,-0.026998833368646075,
0.08129675810473816,-0.01443832761978474,
0.08134663341645886,-0.02935200039290931,
0.08139650872817955,0.018039457632122193,
0.08144638403990025,0.010846768880863545,
0.08149625935162094,-0.0023962483219113657,
0.08154613466334165,-0.011031341069440549,
0.08159600997506235,-0.02008085987454159,
0.08164588528678304,0.0016288749249902916,
0.08169576059850374,-0.01411890884330766,
0.08174563591022443,-0.024736495787300746,
0.08179551122194513,-0.0015669704376088615,
0.08184538653366584,-0.02809174380041048,
0.08189526184538654,0.007441684178038605,
0.08194513715710723,0.006294081352285978,
0.08199501246882793,-0.002058264818475545,
0.08204488778054862,0.008419092870282033,
0.08209476309226933,-0.01936357196325538,
0.08214463840399003,0.002577977286766956,
0.08219451371571072,-0.0222510894891611,
0.08224438902743142,0.002697477539540836,
0.08229426433915212,-0.019387304912933494,
0.08234413965087282,-0.04715271049724539,
0.08239401496259352,-0.027491995620737897,
0.08244389027431422,-0.020909376169828273,
0.08249376558603491,0.0017365435693897386,
0.08254364089775561,-0.016571370887669565,
0.0825935162094763,0.017856992945092905,
0.08264339152119701,-0.006655231374447105,
0.08269326683291771,0.020901778920614275,
0.0827431421446384,-0.0007747686878407448,
0.0827930174563591,-0.021229261234079717,
0.0828428927680798,-0.025946833539335523,
0.0828927680798005,-0.019606772973603196,
0.0829426433915212,-0.002191751109211373,
0.0829925187032419,-0.01498275900890085,
0.08304239401496259,-0.027098065754713845,
0.08309226932668329,-0.017987158823562076,
0.08314214463840398,-0.039128846032064374,
0.0831920199501247,-0.0175811793874468,
0.08324189526184539,-0.0466579919855596,
0.08329177057356608,-0.01869117306839911,
0.08334164588528678,-0.028098099201225447,
0.08339152119700748,-0.03633248929296608,
0.08344139650872819,-0.0044629539406508545,
0.08349127182044888,-0.012726045424446254,
0.08354114713216958,-0.033825947564858495,
0.08359102244389027,-0.01726841994946763,
0.08364089775561097,-0.02294777735451102,
0.08369077306733166,-0.017449026340858965,
0.08374064837905237,-0.019049877936045866,
0.08379052369077307,-0.006401955458728945,
0.08384039900249377,-0.020739984836562697,
0.08389027431421446,-0.022583990317126924,
0.08394014962593516,-0.0387008426361836,
0.08399002493765587,-0.014876815693649011,
0.08403990024937656,-0.015766889674733272,
0.08408977556109726,-0.027270789730293572,
0.08413965087281795,-0.011778854249246429,
0.08418952618453865,-0.010635305174231181,
0.08423940149625936,-0.033861664412013846,
0.08428927680798005,-0.012538924121846136,
0.08433915211970075,-0.016276427295058543,
0.08438902743142145,-0.0018255655449651489,
0.08443890274314214,0.022510972239862693,
0.08448877805486284,-0.01490069060856295,
0.08453865336658355,-0.024186537093764327,
0.08458852867830424,-0.017398452659351513,
0.08463840399002494,-0.04618095504979286,
0.08468827930174563,-0.003598218688262423,
0.08473815461346633,-0.010801092568807024,
0.08478802992518704,-0.002764368622895195,
0.08483790523690773,-0.006408046062450252,
0.08488778054862843,-0.018243125768688192,
0.08493765586034913,-0.04712521172966462,
0.08498753117206982,-0.0007212933681152202,
0.08503740648379052,0.020909748458030043,
0.08508728179551123,0.007428096440483459,
0.08513715710723192,-0.01156340199666075,
0.08518703241895262,-0.017537087827007945,
0.08523690773067331,-0.017846872939042406,
0.08528678304239401,0.003534689556698776,
0.08533665835411472,0.007284041208057784,
0.08538653366583542,0.019238889883062646,
0.08543640897755611,-0.03219460651098574,
0.0854862842892768,-0.013220771150736648,
0.0855361596009975,-0.031618707719791486,
0.0855860349127182,-0.0065006262751164615,
0.08563591022443891,0.030127292904098935,
0.0856857855361596,-0.011417792156713107,
0.0857356608478803,-0.006034164499829969,
0.085785536159601,-0.008019382300947238,
0.08583541147132169,-0.005289898528071454,
0.0858852867830424,-0.00969307205391191,
0.0859351620947631,-0.002182604703398829,
0.08598503740648379,0.006937029327833208,
0.08603491271820449,-0.0056528328010322995,
0.08608478802992518,0.0018981570698834386,
0.08613466334164588,-0.012391494996419079,
0.08618453865336659,0.005634350353046407,
0.08623441396508728,0.011443265137462903,
0.08628428927680798,7.238134633855316e-05,
0.08633416458852868,-0.021017514660893764,
0.08638403990024937,0.0028974268140967933,
0.08643391521197008,0.015527404467374974,
0.08648379052369078,-0.009538119550842663,
0.08653366583541147,-0.005324931740540609,
0.08658354114713217,-0.0010546636579956106,
0.08663341645885286,0.011913324873086863,
0.08668329177057357,0.005536620894296666,
0.08673316708229427,0.0096581997240829,
0.08678304239401496,0.010562129542055567,
0.08683291770573566,-0.007231794969065677,
0.08688279301745636,-0.030994914910911824,
0.08693266832917705,-0.017883392125056574,
0.08698254364089776,-0.00269840412940972,
0.08703241895261846,-0.026157970091950124,
0.08708229426433915,0.03021113010115995,
0.08713216957605985,-0.028164404763391784,
0.08718204488778054,0.04531269146879744,
0.08723192019950125,0.006249148228004802,
0.08728179551122195,0.01952605396454913,
0.08733167082294264,0.004972908366120359,
0.08738154613466334,-0.03332578534579403,
0.08743142144638404,-0.008613933736730934,
0.08748129675810473,-0.005368895137993289,
0.08753117206982544,-0.013718056366740148,
0.08758104738154614,0.01880418946164341,
0.08763092269326683,0.026458511198100818,
0.08768079800498753,0.014582341021891541,
0.08773067331670822,-0.015337013867515273,
0.08778054862842893,-0.00409077991230637,
0.08783042394014963,-0.016284824280276625,
0.08788029925187033,-0.004798493232914071,
0.08793017456359102,0.007013844171790335,
0.08798004987531172,-0.005003386881827956,
0.08802992518703241,-0.03449053004953177,
0.08807980049875312,-0.024165170003833468,
0.08812967581047382,-0.006388543340512471,
0.08817955112219451,0.023895934470473442,
0.08822942643391521,0.016166856706804816,
0.0882793017456359,0.028947136644822624,
0.08832917705735661,-0.001163004160983588,
0.08837905236907731,-0.003406625292022186,
0.088428927680798,0.010830158301571271,
0.0884788029925187,0.031984362469830566,
0.0885286783042394,0.002544315542993212,
0.0885785536159601,0.011717155069545715,
0.0886284289276808,0.028591051720303382,
0.0886783042394015,0.020646092372412182,
0.0887281795511222,-0.0014043597495527055,
0.08877805486284289,0.02256166087010128,
0.08882793017456359,0.036452990981835534,
0.0888778054862843,-0.0036184223492538616,
0.08892768079800499,0.008134679884244456,
0.08897755610972569,0.020061890614979084,
0.08902743142144638,0.01891280799941078,
0.08907730673316708,0.012399845197350372,
0.08912718204488779,-0.009470249077225781,
0.08917705735660848,0.011937793099769618,
0.08922693266832918,0.05150794163594611,
0.08927680798004987,0.009127425461128855,
0.08932668329177057,0.0046726193083451335,
0.08937655860349127,0.015747592892897563,
0.08942643391521198,0.011099159403644518,
0.08947630922693267,0.02096223052632584,
0.08952618453865337,0.02096420845880611,
0.08957605985037406,0.002997779500955257,
0.08962593516209476,0.008859288004649187,
0.08967581047381547,0.01181535883355681,
0.08972568578553616,0.007828175344087635,
0.08977556109725686,0.03059070800666395,
0.08982543640897755,0.031994982709350486,
0.08987531172069825,-0.01646975489015704,
0.08992518703241895,0.03963913244361665,
0.08997506234413966,-0.01395444775988948,
0.09002493765586035,0.026755947922732656,
0.09007481296758105,0.006283495337315341,
0.09012468827930174,0.004999143971861759,
0.09017456359102244,0.016146937845070007,
0.09022443890274315,0.027992170253885132,
0.09027431421446384,0.032349905402977386,
0.09032418952618454,0.01704818121109745,
0.09037406483790524,0.02856872578449833,
0.09042394014962593,0.015002298703204839,
0.09047381546134663,0.006490533212356637,
0.09052369077306734,0.022959189104129193,
0.09057356608478803,-0.00472725519626753,
0.09062344139650873,0.021318462332206738,
0.09067331670822942,0.010057374054797669,
0.09072319201995012,0.01613068762736891,
0.09077306733167083,0.008956645753101818,
0.09082294264339152,0.027461322667014853,
0.09087281795511222,0.030628004447771758,
0.09092269326683292,0.019672300751112128,
0.09097256857855361,0.025079215307831183,
0.09102244389027432,0.022389852126662287,
0.09107231920199502,0.002350116784838246,
0.09112219451371571,0.0156567359706056,
0.09117206982543641,0.041462503586918664,
0.0912219451371571,0.03309918848655969,
0.0912718204488778,0.009234966713536377,
0.09132169576059851,0.032423366791735214,
0.0913715710723192,0.009707566394960501,
0.0914214463840399,0.00036759610674087437,
0.0914713216957606,0.017517408655120015,
0.09152119700748129,0.039292266279549584,
0.091571072319202,0.02138078926171887,
0.0916209476309227,0.0199512190724596,
0.09167082294264339,0.014546618855388447,
0.09172069825436409,0.03854328077347753,
0.09177057356608478,0.06632939250379898,
0.09182044887780548,0.03768948925642181,
0.09187032418952619,0.03438148327392675,
0.09192019950124689,0.022052460688847496,
0.09197007481296758,0.04045769488470653,
0.09201995012468828,0.042803269805845534,
0.09206982543640897,0.04403674130822709,
0.09211970074812968,0.024746796654499057,
0.09216957605985038,0.031014488455733156,
0.09221945137157107,0.020771934908501183,
0.09226932668329177,0.01958836799206257,
0.09231920199501246,0.02795290068095953,
0.09236907730673316,0.013557595743417632,
0.09241895261845387,0.020903645516620557,
0.09246882793017457,0.022048488198732064,
0.09251870324189526,0.04421252194054889,
0.09256857855361596,0.023139116994836482,
0.09261845386533665,0.00010778418418300878,
0.09266832917705736,0.00946901152697081,
0.09271820448877806,0.03443201515398579,
0.09276807980049875,0.04508077925217879,
0.09281795511221945,0.019149601215541025,
0.09286783042394015,0.03584956137260537,
0.09291770573566084,0.0497161392127334,
0.09296758104738155,0.021489152950111143,
0.09301745635910225,0.029973880358158813,
0.09306733167082294,-0.005054384553645173,
0.09311720698254364,-0.0041583070712330784,
0.09316708229426433,0.027720653696934945,
0.09321695760598504,0.02783858308786311,
0.09326683291770574,0.01807250856413446,
0.09331670822942643,0.014231329479897142,
0.09336658354114713,0.03111821583858065,
0.09341645885286783,0.0156945053804012,
0.09346633416458854,0.03666421655587129,
0.09351620947630923,0.020354865158912175,
0.09356608478802993,0.015202580499512956,
0.09361596009975062,0.020714820013505428,
0.09366583541147132,-0.0017005675717189743,
0.09371571072319201,0.0017755447771274947,
0.09376558603491272,0.004509892156333968,
0.09381546134663342,0.012711514734141428,
0.09386533665835411,0.01269987776353981,
0.09391521197007481,0.022954607450032166,
0.0939650872817955,0.027105928441654922,
0.09401496259351622,0.026739733840190797,
0.09406483790523691,0.04208843217776002,
0.09411471321695761,0.03374372255733569,
0.0941645885286783,0.047805447164613935,
0.094214463840399,0.031498065718221904,
0.0942643391521197,0.014168808789175915,
0.0943142144638404,0.029995888570841185,
0.0943640897755611,0.018827739981999367,
0.0944139650872818,0.042473872950930906,
0.09446384039900249,0.007559796417231517,
0.09451371571072319,0.04328367096492019,
0.0945635910224439,0.02458987069687147,
0.09461346633416459,0.028844409710264998,
0.09466334164588529,0.04639121772727027,
0.09471321695760598,0.02269064480054742,
0.09476309226932668,0.03723825702875285,
0.09481296758104737,0.0389025084034355,
0.09486284289276808,0.023606681377112353,
0.09491271820448878,0.026234725614602303,
0.09496259351620948,0.022540726699278504,
0.09501246882793017,0.03693575136558628,
0.09506234413965087,0.021933844557748473,
0.09511221945137158,0.01374981084189039,
0.09516209476309227,0.028111433800141427,
0.09521197007481297,0.027099135268837768,
0.09526184538653366,0.04601134056231751,
0.09531172069825436,0.03805389737982048,
0.09536159600997507,0.0416559751509349,
0.09541147132169576,0.015261831091811277,
0.09546134663341646,0.04121852446161179,
0.09551122194513716,0.0413750202585854,
0.09556109725685785,0.029471537368516692,
0.09561097256857855,0.0482012721663688,
0.09566084788029926,0.011138450130069673,
0.09571072319201995,-0.0068540353661281535,
0.09576059850374065,0.021277919906601057,
0.09581047381546134,0.022122997978959693,
0.09586034912718204,-0.009670629833759763,
0.09591022443890275,0.026166607192910054,
0.09596009975062345,0.03953140741788147,
0.09600997506234414,0.010327666976904884,
0.09605985037406484,0.018057061151327224,
0.09610972568578553,0.016383032695707785,
0.09615960099750623,0.01620512652483641,
0.09620947630922694,0.009368470069794221,
0.09625935162094763,0.02356038668291253,
0.09630922693266833,0.014985447198895534,
0.09635910224438902,0.00230240095281525,
0.09640897755610972,0.025646125827975416,
0.09645885286783043,0.028118100790209745,
0.09650872817955113,3.464980200171969e-05,
0.09655860349127182,0.005602803756191906,
0.09660847880299252,0.012435899238800365,
0.09665835411471321,0.021870703888580284,
0.09670822942643391,0.01775188520801651,
0.09675810473815462,0.05189381504290856,
0.09680798004987531,0.04636623836911247,
0.09685785536159601,0.01750291996964908,
0.0969077306733167,0.005891180150948406,
0.0969576059850374,0.005977051310420698,
0.09700748129675811,0.005670730591154471,
0.0970573566084788,0.011779712872119171,
0.0971072319201995,0.020264267085874362,
0.0971571072319202,0.025846017621713555,
0.0972069825436409,0.01588170859337723,
0.09725685785536159,0.014211612795284906,
0.0973067331670823,-0.00306684411303991,
0.097356608478803,0.001776890448281965,
0.09740648379052369,0.021106503653035586,
0.09745635910224439,0.028519725072185316,
0.09750623441396508,0.00396754089064974,
0.09755610972568579,0.02497930581957955,
0.09760598503740649,-0.007496306835357725,
0.09765586034912718,0.012529565730125298,
0.09770573566084788,-0.02024284514909864,
0.09775561097256857,0.026204280009769623,
0.09780548628428928,-0.0030711211161919185,
0.09785536159600998,0.011174413793277422,
0.09790523690773068,0.014293023000955914,
0.09795511221945137,0.02894140524100619,
0.09800498753117207,0.024365331307836146,
0.09805486284289276,0.03312418320349308,
0.09810473815461347,0.03329972496534868,
0.09815461346633417,0.00632763609498407,
0.09820448877805486,0.021976440858676123,
0.09825436408977556,0.008541290199448135,
0.09830423940149625,0.008771164391693996,
0.09835411471321696,0.023358552597217138,
0.09840399002493766,0.0021305351714173467,
0.09845386533665836,-0.005007616340558234,
0.09850374064837905,-0.030570204734131783,
0.09855361596009975,0.002718164008670383,
0.09860349127182044,0.008615191004697667,
0.09865336658354115,0.007681747955088077,
0.09870324189526185,0.021845387618517544,
0.09875311720698254,0.016370795647788948,
0.09880299251870324,0.011577096454719549,
0.09885286783042393,-0.002167935523286201,
0.09890274314214464,0.009514527239531334,
0.09895261845386534,0.02174034871768306,
0.09900249376558604,0.012605097018974406,
0.09905236907730673,0.00044604318606757684,
0.09910224438902743,-0.00017116760608790063,
0.09915211970074812,0.008328699090007913,
0.09920199501246883,-0.013977977150809284,
0.09925187032418953,-0.015257573740763964,
0.09930174563591022,-0.031908004954703355,
0.09935162094763092,0.021393277102318572,
0.09940149625935162,-0.005969437000800304,
0.09945137157107233,0.036187213442127386,
0.09950124688279302,-0.004528576925988026,
0.09955112219451372,-0.004638428463657162,
0.09960099750623441,0.019569590799531064,
0.09965087281795511,-0.021801475515652285,
0.0997007481296758,0.029981475713833715,
0.09975062344139651,0.007591087004191403,
0.09980049875311721,-0.006400774923699694,
0.0998503740648379,-0.014644307868860371,
0.0999002493765586,-0.027537907182096484,
0.0999501246882793,-0.04193389956650212,
0.1,0.0031034656539075623,
0.1000498753117207,0.002107973622993956,
0.1000997506234414,-0.005556274216388164,
0.10014962593516209,-0.017387468087986056,
0.10019950124688279,0.01754182911993457,
0.1002493765586035,-0.0207484004837903,
0.1002992518703242,-0.0170008056311386,
0.10034912718204489,-0.0035811955844103384,
0.10039900249376559,-0.004331992891381672,
0.10044887780548628,0.005418738140859014,
0.10049875311720698,-0.029793831334034786,
0.10054862842892769,-0.007562643189432925,
0.10059850374064838,-0.00819650874365832,
0.10064837905236908,-0.009066996834572093,
0.10069825436408977,-0.012940025015510356,
0.10074812967581047,-0.03049641649153082,
0.10079800498753118,-0.008256307907910716,
0.10084788029925187,-0.004319206908573148,
0.10089775561097257,-0.010380203477659274,
0.10094763092269327,0.004129099624963485,
0.10099750623441396,-0.02810477317581766,
0.10104738154613466,-0.0031470773123956726,
0.10109725685785537,-0.030669724023264202,
0.10114713216957606,-0.0025468223066631972,
0.10119700748129676,-0.018650090918179787,
0.10124688279301745,-0.026781076274920396,
0.10129675810473815,-0.005673038904424587,
0.10134663341645886,-0.0056976756204242685,
0.10139650872817955,0.005325627523536117,
0.10144638403990025,0.011150075937697415,
0.10149625935162095,0.0037875864193703517,
0.10154613466334164,0.0011354504426461642,
0.10159600997506234,-0.0153356338768979,
0.10164588528678305,-0.006045040273857735,
0.10169576059850374,0.003238089177974102,
0.10174563591022444,0.017730511416140255,
0.10179551122194513,-0.003685511582198882,
0.10184538653366583,-0.01995179769265925,
0.10189526184538654,0.016235005606959542,
0.10194513715710724,-0.019894821767555596,
0.10199501246882793,0.003230214460950887,
0.10204488778054863,-0.017129842545406514,
0.10209476309226932,0.013003617719364417,
0.10214463840399003,-0.028178858537287323,
0.10219451371571073,0.0027035562643918307,
0.10224438902743142,-0.02584048101087706,
0.10229426433915212,-0.014735563931729173,
0.10234413965087281,-0.03100187594039202,
0.10239401496259351,-0.026662919736383572,
0.10244389027431422,-0.01745341832499218,
0.10249376558603492,-0.02130829172117423,
0.10254364089775561,-0.02219709183496939,
0.10259351620947631,0.0030119567554266827,
0.102643391521197,-0.017967355557615763,
0.10269326683291771,0.008155816306002933,
0.10274314214463841,-0.03656563514248948,
0.1027930174563591,-0.04468737955670486,
0.1028428927680798,-0.023357360898930223,
0.1028927680798005,-0.001642440007571416,
0.10294264339152119,0.004963250875503509,
0.1029925187032419,0.009046103870065585,
0.1030423940149626,-0.004294628179854621,
0.10309226932668329,-0.024257267893243672,
0.10314214463840399,0.0019368965587681815,
0.10319201995012468,-0.02696445175248921,
0.10324189526184539,-0.025613862575344863,
0.10329177057356609,-0.021171427348463782,
0.10334164588528678,-0.0338191487102886,
0.10339152119700748,-0.007035391332905434,
0.10344139650872818,0.015179412875653407,
0.10349127182044887,-0.046905685585057644,
0.10354114713216958,-0.031339224005409616,
0.10359102244389028,-0.020193036494004796,
0.10364089775561097,-0.014827563231595993,
0.10369077306733167,-0.008980125114960226,
0.10374064837905236,-0.02255362018539603,
0.10379052369077307,-0.012828201163330541,
0.10384039900249377,-0.0035306757277177234,
0.10389027431421446,0.026532646084290228,
0.10394014962593516,-0.030551429516088007,
0.10399002493765586,-0.014749322210338294,
0.10403990024937655,-0.028152558933715183,
0.10408977556109726,-0.01972019156702403,
0.10413965087281796,-0.01657252769473926,
0.10418952618453865,-0.00786443801210852,
0.10423940149625935,-0.0025663040405748214,
0.10428927680798004,-0.009856778958266883,
0.10433915211970075,0.0018716342894457404,
0.10438902743142145,-0.00513981369527354,
0.10443890274314215,-0.014125567643933985,
0.10448877805486284,0.031597788636545894,
0.10453865336658354,-0.007630928066806999,
0.10458852867830425,-0.010243303428823368,
0.10463840399002494,-0.016876175759659384,
0.10468827930174564,-0.02496958238973652,
0.10473815461346633,-0.008924596366893703,
0.10478802992518703,-0.00858465349190619,
0.10483790523690772,0.011870234886707761,
0.10488778054862843,-0.008991208936605813,
0.10493765586034913,0.001992732847286993,
0.10498753117206983,-0.010293349911956719,
0.10503740648379052,0.0035692161333609317,
0.10508728179551122,0.002528053651760155,
0.10513715710723193,0.006193328639615272,
0.10518703241895262,-0.009160056434608113,
0.10523690773067332,-0.0027125338099683195,
0.10528678304239401,-0.02828986290204083,
0.10533665835411471,-0.010919712151861567,
0.1053865336658354,0.010695152852147748,
0.10543640897755611,-0.001491873815465946,
0.10548628428927681,0.006111658143907749,
0.1055361596009975,0.029644566996514753,
0.1055860349127182,-0.004530025242157312,
0.1056359102244389,-0.004349340988775418,
0.10568578553615961,-0.0036773929925836084,
0.1057356608478803,-0.01651591450447574,
0.105785536159601,-0.004607179419240468,
0.1058354114713217,-0.018889056836800346,
0.10588528678304239,-0.004215445727240395,
0.10593516209476309,-0.013032214142101085,
0.1059850374064838,-0.0007488678835298095,
0.10603491271820449,-0.028721493637813237,
0.10608478802992519,-0.017095847708518498,
0.10613466334164588,-0.011327120365049508,
0.10618453865336658,0.006593292061882068,
0.10623441396508729,-0.027182569712072686,
0.10628428927680798,0.002577920279769017,
0.10633416458852868,-0.007588693150148684,
0.10638403990024937,-0.026554411661051932,
0.10643391521197007,0.006059258903074053,
0.10648379052369077,-0.010786740390111496,
0.10653366583541148,-0.009025666851671912,
0.10658354114713217,-0.017392007237712698,
0.10663341645885287,-0.0006120863157355015,
0.10668329177057356,-0.03209403312109087,
0.10673316708229426,0.012576843043324421,
0.10678304239401497,-0.0007860156342639418,
0.10683291770573566,0.006771303739537628,
0.10688279301745636,-0.004645413123186445,
0.10693266832917706,-0.002651855591113424,
0.10698254364089775,-0.017926808912491984,
0.10703241895261846,-0.007704836784055229,
0.10708229426433916,-0.01719900197006362,
0.10713216957605985,-0.020290447602928252,
0.10718204488778055,-0.023066839102532422,
0.10723192019950124,0.006837415751679215,
0.10728179551122194,0.027500129802968537,
0.10733167082294265,0.007549638684550857,
0.10738154613466334,0.03389424147167062,
0.10743142144638404,-0.004691729122291461,
0.10748129675810474,0.004538066217243465,
0.10753117206982543,0.016872604066684973,
0.10758104738154614,0.011077154939834553,
0.10763092269326684,0.006070639429310744,
0.10768079800498753,0.03268408561417866,
0.10773067331670823,0.002330878994386531,
0.10778054862842892,0.016222776494901534,
0.10783042394014962,-0.006678825513891099,
0.10788029925187033,0.0035859183167220275,
0.10793017456359102,0.010638106122513312,
0.10798004987531172,-0.010197680210101659,
0.10802992518703242,0.0090406962103102,
0.10807980049875311,0.008010704724498061,
0.10812967581047382,0.01223799555526216,
0.10817955112219452,-0.006889624670969968,
0.10822942643391521,0.0033019170963370092,
0.10827930174563591,0.026902561578668847,
0.1083291770573566,-0.00611655899361852,
0.1083790523690773,0.01438768980486817,
0.10842892768079801,0.005782504924057103,
0.1084788029925187,-0.014254638520695098,
0.1085286783042394,0.010607480225215148,
0.1085785536159601,0.025444117796192593,
0.10862842892768079,0.01882915234187912,
0.1086783042394015,0.001582125961997605,
0.1087281795511222,0.0062473611675295465,
0.1087780548628429,0.01643139924183406,
0.10882793017456359,0.027635718699828102,
0.10887780548628428,-0.0066196488915382275,
0.108927680798005,0.02425226259457161,
0.10897755610972569,0.007261116169416089,
0.10902743142144639,0.006341088475879339,
0.10907730673316708,0.017276658972170338,
0.10912718204488778,0.03350006313907422,
0.10917705735660847,0.023128966995214335,
0.10922693266832918,0.026874336993830843,
0.10927680798004988,-0.0035366374214378,
0.10932668329177057,0.03129522148518683,
0.10937655860349127,-0.0016852720558669584,
0.10942643391521197,-0.008324358003358106,
0.10947630922693267,0.009870689589172445,
0.10952618453865337,0.021848370700115777,
0.10957605985037407,0.010232366002150882,
0.10962593516209476,0.01816241963309189,
0.10967581047381546,0.019782171886283853,
0.10972568578553615,0.026330620593333652,
0.10977556109725686,2.9796080317657375e-05,
0.10982543640897756,-0.0013456293583611091,
0.10987531172069825,0.01462819699727892,
0.10992518703241895,0.014153900249868238,
0.10997506234413965,0.00011109631889590424,
0.11002493765586036,0.029536077139701883,
0.11007481296758105,0.020703841452351854,
0.11012468827930175,0.04317235731040199,
0.11017456359102244,0.014596197128775416,
0.11022443890274314,0.032065726230478445,
0.11027431421446383,0.020640395801259093,
0.11032418952618454,0.02754939732349903,
0.11037406483790524,0.022174747261799774,
0.11042394014962593,0.01869751993172944,
0.11047381546134663,0.027124927633472594,
0.11052369077306733,0.03397287945979861,
0.11057356608478804,0.015669430319228718,
0.11062344139650873,0.008154959361304986,
0.11067331670822943,0.013482051791185808,
0.11072319201995012,0.012208704286655225,
0.11077306733167082,0.03170330122718748,
0.11082294264339151,0.02044530572097529,
0.11087281795511222,0.011556572443775755,
0.11092269326683292,0.02325288406843942,
0.11097256857855362,0.03447037382570918,
0.11102244389027431,0.0025452298425098843,
0.111072319201995,0.02279545652980398,
0.11112219451371572,0.01829376076451928,
0.11117206982543641,0.026391702027201303,
0.11122194513715711,0.013344468736046838,
0.1112718204488778,0.0231160705930047,
0.1113216957605985,0.02113254967222985,
0.11137157107231921,0.00883950404827229,
0.1114214463840399,0.02062674463051769,
0.1114713216957606,-0.02791295477682367,
0.1115211970074813,0.0005499253334106113,
0.11157107231920199,0.028437059934517034,
0.11162094763092269,0.032710675552114515,
0.1116708229426434,0.027091398031430798,
0.11172069825436409,0.009604392821185446,
0.11177057356608479,0.035501651698546084,
0.11182044887780548,0.011824079075590126,
0.11187032418952618,0.01707701999822854,
0.11192019950124689,0.013459498015860069,
0.11197007481296758,0.03814937028123317,
0.11201995012468828,0.04112769547731813,
0.11206982543640898,0.03248362588038178,
0.11211970074812967,0.01787893359535333,
0.11216957605985037,0.03661853332662859,
0.11221945137157108,0.030939139756370155,
0.11226932668329177,0.04968860315727573,
0.11231920199501247,0.0384173945121569,
0.11236907730673316,0.010606301090463892,
0.11241895261845386,0.050072890855035974,
0.11246882793017457,0.044174221743492975,
0.11251870324189527,0.009150826050445135,
0.11256857855361596,0.014727351898082759,
0.11261845386533666,0.012861407435896127,
0.11266832917705735,0.038530261390963896,
0.11271820448877805,0.03002231421746905,
0.11276807980049876,0.04401023926101433,
0.11281795511221945,-0.0011762062799782688,
0.11286783042394015,0.047104055387146335,
0.11291770573566084,0.006684892739343685,
0.11296758104738154,0.03229121166032408,
0.11301745635910225,0.013678643328544618,
0.11306733167082295,0.029532076870223314,
0.11311720698254364,-7.883788736734454e-05,
0.11316708229426434,0.04417819845097558,
0.11321695760598503,0.037849777273616964,
0.11326683291770574,0.038285266492170095,
0.11331670822942644,0.01096906273725129,
0.11336658354114713,0.030336024298008607,
0.11341645885286783,0.028684698059370902,
0.11346633416458853,0.024393921818570564,
0.11351620947630922,0.025674778176226102,
0.11356608478802993,0.013322789524428934,
0.11361596009975063,0.029319823384498893,
0.11366583541147132,0.03154232533369151,
0.11371571072319202,0.01884447318199714,
0.11376558603491271,0.027612079936494355,
0.11381546134663342,0.039919886188584885,
0.11386533665835412,0.044791262880420527,
0.11391521197007481,0.027392741749580427,
0.11396508728179551,0.027844153092860906,
0.1140149625935162,0.009834502023998156,
0.1140648379052369,0.029481013771188936,
0.11411471321695761,0.031324282413981754,
0.1141645885286783,0.024572282301113624,
0.114214463840399,0.023546902697377976,
0.1142643391521197,0.06819978221088158,
0.1143142144638404,0.040168687220001664,
0.1143640897755611,0.024932102069020155,
0.1144139650872818,0.026877907363892756,
0.1144638403990025,0.0378081852947729,
0.11451371571072319,0.004411129946161569,
0.11456359102244389,0.04076770214083594,
0.11461346633416458,0.020376896833904926,
0.11466334164588529,-0.003882695642524213,
0.11471321695760599,0.054771990105645645,
0.11476309226932668,0.043662534048858136,
0.11481296758104738,0.020247089580397254,
0.11486284289276807,0.019129055072835573,
0.11491271820448878,0.016277615492030446,
0.11496259351620948,0.020353296018146817,
0.11501246882793018,0.024322766277703516,
0.11506234413965087,0.040926547566851365,
0.11511221945137157,0.03385684300731057,
0.11516209476309226,0.023204001546390993,
0.11521197007481297,0.038972227460040934,
0.11526184538653367,0.028527591685973765,
0.11531172069825436,0.018299433753722453,
0.11536159600997506,0.02561544185952197,
0.11541147132169575,0.030544309748770912,
0.11546134663341646,0.022724030984380594,
0.11551122194513716,0.030293176332918937,
0.11556109725685786,0.013541780750974505,
0.11561097256857855,0.0005767281141343776,
0.11566084788029925,0.04955782079697828,
0.11571072319201996,0.03035481313777762,
0.11576059850374065,0.04369746479250718,
0.11581047381546135,0.026053946736819673,
0.11586034912718204,0.055937850331365224,
0.11591022443890274,0.032519118544550904,
0.11596009975062344,0.021579918274328196,
0.11600997506234415,0.014313645338315507,
0.11605985037406484,-0.007802727601270688,
0.11610972568578554,0.018020999796464984,
0.11615960099750623,0.03203483392567762,
0.11620947630922693,-0.033245611589835966,
0.11625935162094764,0.007639948974597641,
0.11630922693266833,0.0231003656542246,
0.11635910224438903,0.02875191761590314,
0.11640897755610972,0.012286190248927286,
0.11645885286783042,0.009397280567081305,
0.11650872817955112,0.017497559667094445,
0.11655860349127183,0.024994233802185177,
0.11660847880299252,0.02990262455915713,
0.11665835411471322,-0.005205607491300498,
0.11670822942643391,0.007978665178300981,
0.11675810473815461,-0.018162553798791954,
0.11680798004987532,0.017899390746228275,
0.11685785536159601,0.0065494443837420604,
0.11690773067331671,-0.0009634400899855254,
0.1169576059850374,0.031148903309905163,
0.1170074812967581,0.04475103488073125,
0.1170573566084788,0.014110886480938636,
0.1171072319201995,0.0177332014912755,
0.1171571072319202,0.015706966755891744,
0.1172069825436409,0.016611509049023684,
0.1172568578553616,0.0019203888063064733,
0.11730673316708229,0.0007935478137877181,
0.117356608478803,-0.0020875422661662396,
0.1174064837905237,0.025840694895065172,
0.11745635910224439,0.005526572970458506,
0.11750623441396509,0.016898738260365694,
0.11755610972568578,0.00046640052367796087,
0.11760598503740648,0.0079858016415684,
0.11765586034912719,0.00967293486457841,
0.11770573566084788,0.00548824976904154,
0.11775561097256858,0.019252602095036986,
0.11780548628428927,0.015171708986853,
0.11785536159600997,-0.008777354862581653,
0.11790523690773068,0.015356104453109939,
0.11795511221945137,0.0074866856256756665,
0.11800498753117207,0.007114081735503338,
0.11805486284289277,0.012739450239186023,
0.11810473815461346,0.007332169504028376,
0.11815461346633417,-0.00847026492143592,
0.11820448877805487,0.016530749168455743,
0.11825436408977556,0.01565231975151135,
0.11830423940149626,0.004390405748684717,
0.11835411471321695,0.02618351515485722,
0.11840399002493765,-0.002038126096892785,
0.11845386533665836,0.053205257030030054,
0.11850374064837906,0.012505008555565264,
0.11855361596009975,0.027664367801592923,
0.11860349127182045,0.014004380780218281,
0.11865336658354114,-0.011725579068400183,
0.11870324189526185,-0.014460206016278777,
0.11875311720698255,0.012946420554313118,
0.11880299251870324,-0.01794909916985145,
0.11885286783042394,0.009018633547085469,
0.11890274314214463,-0.0019657806893448836,
0.11895261845386533,-0.01790486111170986,
0.11900249376558604,0.023407550966719207,
0.11905236907730674,-0.021710556516592976,
0.11910224438902743,0.019498885160248305,
0.11915211970074813,0.0084916832536796,
0.11920199501246882,-0.008111956952552596,
0.11925187032418953,0.000655623690050297,
0.11930174563591023,-0.012566723348246326,
0.11935162094763092,-0.012426189358431868,
0.11940149625935162,0.010470774934117588,
0.11945137157107232,0.028273204701025123,
0.11950124688279301,-0.004111219807224639,
0.11955112219451372,0.0041692918464557565,
0.11960099750623442,0.013424661061433677,
0.11965087281795511,0.008481786416155953,
0.11970074812967581,0.02641263359872291,
0.1197506234413965,-0.013176878721104974,
0.11980049875311721,-0.02320489275057276,
0.11985037406483791,0.010759310362653334,
0.1199002493765586,0.010622072327543336,
0.1199501246882793,-0.023310315485764378,
0.12,-0.0031881496788077413,
0.1200498753117207,-0.019223823922310104,
0.1200997506234414,-0.03301385543658108,
0.1201496259351621,-0.0017608796592641163,
0.12019950124688279,-0.015022434762734732,
0.12024937655860349,-0.010679742375472073,
0.12029925187032418,0.020642819705373745,
0.1203491271820449,0.021049115151946438,
0.12039900249376559,-0.005567742352414456,
0.12044887780548628,0.0011639130421441431,
0.12049875311720698,-0.006240184184414664,
0.12054862842892768,-0.012226587601431006,
0.12059850374064839,0.0017675228247027277,
0.12064837905236908,-0.047785877976302224,
0.12069825436408978,-0.01735790825381285,
0.12074812967581047,-0.017252657452815005,
0.12079800498753117,-0.02186155005355021,
0.12084788029925186,0.006700616856320864,
0.12089775561097257,0.01184527683661014,
0.12094763092269327,-0.011314881052295594,
0.12099750623441397,0.0074525476442422415,
0.12104738154613466,-0.026522244182846627,
0.12109725685785536,0.003245699775539854,
0.12114713216957607,-0.003699123462500463,
0.12119700748129676,-0.02778496533533613,
0.12124688279301746,0.009701160947321973,
0.12129675810473815,-0.019500593939512395,
0.12134663341645885,0.008861131340124511,
0.12139650872817954,0.003951708855703829,
0.12144638403990025,-0.0005740594743850955,
0.12149625935162095,-0.01948962833708986,
0.12154613466334165,5.6594314340296936e-05,
0.12159600997506234,0.009045718973314678,
0.12164588528678304,-0.00775616311799148,
0.12169576059850375,0.010740671474862318,
0.12174563591022444,0.01166910178970904,
0.12179551122194514,-0.029088551537011433,
0.12184538653366583,0.0063469221027995255,
0.12189526184538653,-0.011489094363079821,
0.12194513715710723,-0.039809391840882745,
0.12199501246882793,-0.021392005759796662,
0.12204488778054863,-0.01413759711392429,
0.12209476309226933,0.0012698145199868602,
0.12214463840399002,-0.0291430136851655,
0.12219451371571072,-0.006786123955828262,
0.12224438902743143,-0.016719066197632835,
0.12229426433915212,-0.003155883460760244,
0.12234413965087282,-0.01206870776098799,
0.12239401496259351,0.0014269924106450858,
0.12244389027431421,-0.011721108174113301,
0.12249376558603492,0.005906874418891471,
0.12254364089775562,-0.005728829060978789,
0.12259351620947631,0.013557410010309663,
0.122643391521197,-0.014757234083420823,
0.1226932668329177,0.0016070220875333916,
0.1227431421446384,-0.005320095918165538,
0.12279301745635911,-0.02757085387213663,
0.1228428927680798,-0.013352775675393292,
0.1228927680798005,0.016914531951297627,
0.1229426433915212,-0.0276200058014801,
0.12299251870324189,-0.02242890043790903,
0.1230423940149626,-0.013389509222686261,
0.1230922693266833,-0.0030759067259222925,
0.12314214463840399,-0.011780223564122817,
0.12319201995012469,0.018304780967686958,
0.12324189526184538,-0.03753215419801784,
0.12329177057356608,-0.012453499597407543,
0.12334164588528679,-0.0015847388578685891,
0.12339152119700748,-0.005799861022730314,
0.12344139650872818,-0.022680346329844954,
0.12349127182044888,-0.015320278314610244,
0.12354114713216957,-0.012911755068869728,
0.12359102244389028,-0.015599951933793502,
0.12364089775561098,-0.007255413172295181,
0.12369077306733167,0.019224531561497185,
0.12374064837905237,-0.0034544073805092288,
0.12379052369077306,0.00971523796187796,
0.12384039900249376,-0.003317609743041172,
0.12389027431421447,-0.004192264831098401,
0.12394014962593516,-0.021060854514009065,
0.12399002493765586,0.022649635171580206,
0.12403990024937656,-0.01784552605976195,
0.12408977556109725,0.0018907011969177667,
0.12413965087281796,-0.02600127586489967,
0.12418952618453866,-0.013568765783022168,
0.12423940149625935,-0.010894415514484758,
0.12428927680798005,-0.010779641520558289,
0.12433915211970074,-0.016893198799225732,
0.12438902743142144,0.002875321307604586,
0.12443890274314215,0.015713055674506538,
0.12448877805486284,-0.03241424280361416,
0.12453865336658354,-0.015175844285439569,
0.12458852867830424,0.009293148970225524,
0.12463840399002493,-0.013895612525490505,
0.12468827930174564,0.002554450324193795,
0.12473815461346634,-0.012518149402789232,
0.12478802992518703,-0.030770840884733763,
0.12483790523690773,-0.013973192818927999,
0.12488778054862842,-0.015564205262013246,
0.12493765586034913,-0.01472702571990574,
0.12498753117206983,-0.03055402009713007,
0.12503740648379053,-0.007590368989623268,
0.12508728179551123,-0.026884164474454186,
0.12513715710723192,-0.021717533863040744,
0.12518703241895263,-0.042303109691317134,
0.1252369077306733,-0.038040807106166606,
0.12528678304239402,-0.009458316138109272,
0.1253366583541147,-0.01537122807801756,
0.1253865336658354,-0.019248284297620308,
0.12543640897755612,-0.008034248028086145,
0.1254862842892768,-0.003378009353986996,
0.1255361596009975,-0.01363430830361944,
0.1255860349127182,-0.004283344283864356,
0.1256359102244389,0.002168214750203677,
0.1256857855361596,-0.013654563148868112,
0.1257356608478803,-0.005480706284726261,
0.125785536159601,-0.017014736672670394,
0.12583541147132168,-0.007087303492522481,
0.1258852867830424,-0.003121058841647619,
0.1259351620947631,-0.0072696511932434415,
0.12598503740648379,-0.0013135293446516353,
0.1260349127182045,-0.010738128304215291,
0.12608478802992518,0.015094987864564226,
0.1261346633416459,-0.020576401475206,
0.1261845386533666,-0.0052196371539302965,
0.12623441396508728,-0.02599637564729583,
0.126284289276808,-0.020035123642318037,
0.12633416458852867,0.006296575730478975,
0.12638403990024938,-0.031820324730678765,
0.1264339152119701,-0.00936828342423561,
0.12648379052369077,0.0059247180142340495,
0.12653366583541148,0.015530742472366448,
0.12658354114713216,0.007153610249288128,
0.12663341645885287,-0.014798240946770493,
0.12668329177057355,-0.022385141044978484,
0.12673316708229426,0.0002190941217696187,
0.12678304239401497,-0.022619386504400398,
0.12683291770573565,0.006779970265387598,
0.12688279301745636,-0.007278215972616646,
0.12693266832917705,-0.006365938872306888,
0.12698254364089775,0.01101309715016428,
0.12703241895261846,0.00502062002671789,
0.12708229426433915,0.013838049949616755,
0.12713216957605986,-0.006316672649642999,
0.12718204488778054,0.0036297580945174063,
0.12723192019950125,-0.002843919748655623,
0.12728179551122196,7.267142574777716e-05,
0.12733167082294264,-0.02130587485523158,
0.12738154613466335,0.022487006906936807,
0.12743142144638403,0.015180504683289187,
0.12748129675810474,0.010761309500899267,
0.12753117206982545,0.02666818549963678,
0.12758104738154613,0.03006143980141618,
0.12763092269326684,0.016102116252011987,
0.12768079800498752,0.0009925149140026313,
0.12773067331670823,0.008098133423552234,
0.1277805486284289,0.00286675542529899,
0.12783042394014962,0.003382396508710368,
0.12788029925187033,0.016243802604417136,
0.12793017456359101,0.001626519601172956,
0.12798004987531172,0.03302767205544272,
0.1280299251870324,-0.0007533006734383764,
0.12807980049875312,0.009925859581023334,
0.12812967581047383,0.01466135929752381,
0.1281795511221945,-0.000399825584573639,
0.12822942643391522,0.008173700881961189,
0.1282793017456359,0.018442543763685933,
0.1283291770573566,0.007768779622504901,
0.12837905236907732,0.009137877908658816,
0.128428927680798,0.03191888981296433,
0.1284788029925187,0.0015523694276367555,
0.1285286783042394,0.019000927486541905,
0.1285785536159601,0.008563195507712049,
0.1286284289276808,-0.028596724341049175,
0.1286783042394015,-0.01652141459745367,
0.1287281795511222,0.0029219814055075517,
0.12877805486284288,0.04510709132082355,
0.1288279301745636,0.006926463926142969,
0.1288778054862843,0.005817243741009481,
0.12892768079800498,0.007526414591094098,
0.1289775561097257,-0.01470000402668963,
0.12902743142144638,-0.01783967586271049,
0.12907730673316709,-0.0019363158261080475,
0.12912718204488777,0.020736119422764175,
0.12917705735660848,0.01935075836381949,
0.1292269326683292,0.009147592913507717,
0.12927680798004987,-0.009517021598914741,
0.12932668329177058,0.002043154217244986,
0.12937655860349126,0.04040001294141339,
0.12942643391521197,0.024705401591626555,
0.12947630922693268,0.0008091145914180357,
0.12952618453865336,0.0499246260504486,
0.12957605985037407,0.018848640473107685,
0.12962593516209475,0.03343065322293702,
0.12967581047381546,0.0013278316223182922,
0.12972568578553617,0.03735900133125311,
0.12977556109725685,0.01153903625974506,
0.12982543640897756,0.04412424908065925,
0.12987531172069824,0.024903042426080598,
0.12992518703241895,0.00832650578298766,
0.12997506234413966,0.000733070949144779,
0.13002493765586035,0.02022681778456471,
0.13007481296758105,0.02780408752027504,
0.13012468827930174,0.03427557810496513,
0.13017456359102245,-0.002631995891125241,
0.13022443890274316,0.025529209517049227,
0.13027431421446384,0.0006312819601821777,
0.13032418952618455,0.00752680301986349,
0.13037406483790523,0.028641878155826347,
0.13042394014962594,0.04640602716924428,
0.13047381546134662,0.0421247571416539,
0.13052369077306733,0.027460221434820214,
0.13057356608478804,0.010799774635968947,
0.13062344139650872,0.015062288791202574,
0.13067331670822943,0.03350891696983497,
0.1307231920199501,0.04127011191819667,
0.13077306733167082,0.011718188114862024,
0.13082294264339153,0.03607685188906329,
0.13087281795511221,0.03702134468751568,
0.13092269326683292,0.02025757100078511,
0.1309725685785536,0.009800557997686254,
0.13102244389027431,0.03820652157998705,
0.13107231920199502,0.02546956506525224,
0.1311221945137157,-0.002802807503791669,
0.13117206982543642,0.01947061737646468,
0.1312219451371571,0.03874641906715087,
0.1312718204488778,0.04234802910365996,
0.13132169576059852,0.01663346869717677,
0.1313715710723192,0.01877642029908217,
0.1314214463840399,0.026937195150369634,
0.1314713216957606,0.03499005563965214,
0.1315211970074813,0.02176507910558431,
0.13157107231920198,0.02660997194277723,
0.1316209476309227,0.02246903048201468,
0.1316708229426434,0.035132308486917646,
0.13172069825436408,0.013364340943499824,
0.1317705735660848,0.012556058099235318,
0.13182044887780547,0.045276893370374355,
0.13187032418952618,0.03369392448679018,
0.1319201995012469,0.02757748914999154,
0.13197007481296757,0.02117975710005154,
0.13201995012468828,0.05266752603913361,
0.13206982543640897,0.045731046087587685,
0.13211970074812968,0.011836894455818283,
0.13216957605985039,0.012215470620630192,
0.13221945137157107,0.04615190259103348,
0.13226932668329178,0.02190588245419702,
0.13231920199501246,0.019484115998449306,
0.13236907730673317,0.03046480654449094,
0.13241895261845388,0.020374705739455806,
0.13246882793017456,0.04546124300429609,
0.13251870324189527,0.03536530738137363,
0.13256857855361595,0.006888295151337907,
0.13261845386533666,0.014123079169135773,
0.13266832917705737,0.026580584447862966,
0.13271820448877805,0.042820848612872824,
0.13276807980049876,0.03103140661680884,
0.13281795511221944,0.019727414952721213,
0.13286783042394015,0.030377356216314776,
0.13291770573566083,0.005979808190904948,
0.13296758104738154,0.023482215448594315,
0.13301745635910225,0.007690681430992722,
0.13306733167082294,0.04197579593724677,
0.13311720698254365,0.022105886036938346,
0.13316708229426433,0.04180271977256986,
0.13321695760598504,0.010439537664088935,
0.13326683291770575,0.052621226766033986,
0.13331670822942643,0.039477694443491425,
0.13336658354114714,0.029234283049353212,
0.13341645885286782,0.024847384808085907,
0.13346633416458853,0.011109700548908683,
0.13351620947630924,0.027798673122356954,
0.13356608478802992,0.04368771354707825,
0.13361596009975063,0.043204424690757234,
0.1336658354114713,0.047957398369955044,
0.13371571072319202,0.029883923001270858,
0.13376558603491273,0.0174995537977701,
0.1338154613466334,0.016943185292501522,
0.13386533665835412,0.05156893542332122,
0.1339152119700748,0.02550044409547279,
0.13396508728179551,0.041901218899096065,
0.1340149625935162,0.04048898925101506,
0.1340648379052369,0.01338112071057387,
0.13411471321695762,0.025582038873370957,
0.1341645885286783,0.0349024940443364,
0.134214463840399,0.03948166420114121,
0.1342643391521197,0.03893114648718411,
0.1343142144638404,0.022397464897147126,
0.1343640897755611,0.03814888611464851,
0.1344139650872818,0.0425204936630676,
0.1344638403990025,0.024995465616239183,
0.13451371571072318,0.05970637092468827,
0.1345635910224439,0.02935461369369667,
0.1346134663341646,0.01252537582272761,
0.13466334164588528,0.029055325518307806,
0.134713216957606,0.03333775969161165,
0.13476309226932667,0.029376131489458408,
0.13481296758104738,0.05205287151023253,
0.1348628428927681,0.011812750765302353,
0.13491271820448877,0.05489625511271114,
0.13496259351620948,0.04874800964087572,
0.13501246882793017,0.03924038311113306,
0.13506234413965088,0.04291274469071475,
0.13511221945137158,0.030957679892037415,
0.13516209476309227,0.033732064685755125,
0.13521197007481298,0.011054286408137739,
0.13526184538653366,0.013722164057204098,
0.13531172069825437,0.03661429490075027,
0.13536159600997505,0.015064683360119251,
0.13541147132169576,0.014313971139374005,
0.13546134663341647,0.00581551588255199,
0.13551122194513715,0.023361127437572512,
0.13556109725685786,0.033932211906019846,
0.13561097256857854,0.017025166726672106,
0.13566084788029925,0.009024651244751051,
0.13571072319201996,0.016672917198595472,
0.13576059850374064,0.025826933269003975,
0.13581047381546135,0.03912226059513465,
0.13586034912718203,0.017925737118911142,
0.13591022443890274,0.01564943005114274,
0.13596009975062345,0.02118525727366032,
0.13600997506234414,0.014880205933893949,
0.13605985037406484,0.06527265006677747,
0.13610972568578553,0.018657406007322443,
0.13615960099750624,0.04216114480618935,
0.13620947630922695,0.019003833730887366,
0.13625935162094763,0.013593543252588752,
0.13630922693266834,0.032774760964009685,
0.13635910224438902,0.009949431715971452,
0.13640897755610973,0.032792970787457694,
0.1364588528678304,0.006055420293360689,
0.13650872817955112,0.02072604700195247,
0.13655860349127183,0.020477620246409037,
0.1366084788029925,0.019098125996189364,
0.13665835411471322,-0.00448071881262499,
0.1367082294264339,0.03682435633909549,
0.1367581047381546,0.012429596921759541,
0.13680798004987532,0.00649110662978843,
0.136857855361596,0.012783033178220975,
0.1369077306733167,0.02121323866834727,
0.1369576059850374,-6.841442526894434e-05,
0.1370074812967581,0.017465030033113525,
0.13705735660847881,0.009557143077878217,
0.1371072319201995,-0.0035841530313094824,
0.1371571072319202,0.02114195995189512,
0.1372069825436409,0.022228997516722103,
0.1372568578553616,0.02668179288510009,
0.1373067331670823,-0.010412906507991145,
0.137356608478803,0.014786613647971857,
0.1374064837905237,0.0008529033093671347,
0.13745635910224438,0.013448891926050366,
0.1375062344139651,0.018293537820002245,
0.1375561097256858,0.01605434031521273,
0.13760598503740648,0.03434072691965101,
0.1376558603491272,0.01865883330156384,
0.13770573566084787,0.013442411926839369,
0.13775561097256858,0.024930219949192478,
0.13780548628428926,0.01997397080916359,
0.13785536159600997,0.010872793813964075,
0.13790523690773068,0.023506126701817485,
0.13795511221945136,0.019803123093844487,
0.13800498753117207,0.007185100139159619,
0.13805486284289276,0.028736033837172426,
0.13810473815461347,0.03777238376895798,
0.13815461346633418,-0.003502280876412786,
0.13820448877805486,0.005978033365592905,
0.13825436408977557,0.00556058308162336,
0.13830423940149625,0.012192976342849838,
0.13835411471321696,0.018602445635928687,
0.13840399002493767,0.024065029682702972,
0.13845386533665835,0.011726400048892738,
0.13850374064837906,0.012089557290305825,
0.13855361596009974,0.007076165754744122,
0.13860349127182045,2.2478307461127126e-05,
0.13865336658354116,0.02216580880881828,
0.13870324189526184,0.0061913327410348645,
0.13875311720698255,-0.012349259105393924,
0.13880299251870323,-0.026730473663098733,
0.13885286783042394,0.020724742777841455,
0.13890274314214462,0.0070147076126148575,
0.13895261845386533,-0.0217795375087705,
0.13900249376558604,-0.013684299791177922,
0.13905236907730673,-0.017911727894003575,
0.13910224438902744,0.015498001936081088,
0.13915211970074812,0.0021455465661440474,
0.13920199501246883,-0.0036574339945728987,
0.13925187032418954,-9.182208201858472e-06,
0.13930174563591022,0.02584764380463042,
0.13935162094763093,0.005151050214241963,
0.1394014962593516,0.022948308632401073,
0.13945137157107232,-0.0014371413841369508,
0.13950124688279303,-0.005628384354826384,
0.1395511221945137,0.022107745074155666,
0.13960099750623442,0.022444103634737506,
0.1396508728179551,-0.021787799399369784,
0.1397007481296758,-0.008428346034755592,
0.13975062344139652,-0.0037205356576183795,
0.1398004987531172,0.008528862223990975,
0.1398503740648379,-0.017835935380590202,
0.1399002493765586,0.024286592675730384,
0.1399501246882793,0.0005766055659261922,
0.14,0.005523035015981491,
0.1400498753117207,0.018172162988152482,
0.1400997506234414,-0.006543360535332418,
0.1401496259351621,-0.02770905696757438,
0.1401995012468828,0.018047374065287718,
0.14024937655860348,0.003254638238242496,
0.1402992518703242,0.006445124667294897,
0.1403491271820449,-0.025313878083769392,
0.14039900249376558,0.005674625267231294,
0.1404488778054863,-0.0030363525609019603,
0.14049875311720697,0.007079717082247892,
0.14054862842892768,0.00509302375328806,
0.1405985037406484,0.026209398170049292,
0.14064837905236907,0.01690275702890728,
0.14069825436408978,-0.0167335218629978,
0.14074812967581046,-0.00022692454280223446,
0.14079800498753117,0.009809761000563888,
0.14084788029925188,0.012978018514584721,
0.14089775561097256,0.016967903648129824,
0.14094763092269327,0.001018354090311614,
0.14099750623441396,-0.026262537219267607,
0.14104738154613466,-0.011970710877091145,
0.14109725685785537,-0.011374353488242487,
0.14114713216957606,-0.04101018342110782,
0.14119700748129677,0.009223198489575483,
0.14124688279301745,-0.0010444423191903838,
0.14129675810473816,-0.027886665022274652,
0.14134663341645887,-0.019884084004055474,
