time,amplitude,label
0.0,0.0066926014059160086,
4.987531172069826e-05,0.055243196242749884,
9.975062344139652e-05,0.04214563243756582,
0.00014962593516209475,0.027033535869992603,
0.00019950124688279303,0.02135158812054805,
0.00024937655860349125,0.016529235668810257,
0.0002992518703241895,0.014307069021309075,
0.00034912718204488776,0.009206777694584417,
0.00039900249376558606,0.03056324477314238,
0.0004488778054862843,0.00788680931240447,
0.0004987531172069825,0.03228181321976702,
0.0005486284289276808,0.005744571552871183,
0.000598503740648379,0.01622116331040195,
0.0006483790523690773,-0.004254729102403505,
0.0006982543640897755,0.01617577975164761,
0.0007481296758104738,0.002890882181933112,
0.0007980049875311721,0.040110604547576076,
0.0008478802992518703,0.03815304980496665,
0.0008977556109725686,0.06311402789404949,
0.0009476309226932668,0.018489061932919708,
0.000997506234413965,0.019204267768950525,
0.0010473815461346633,-0.005601610376125887,
0.0010972568578553616,0.009803266739232793,
0.00114713216957606,0.016154352035593216,
0.001197007481296758,0.025345175571826348,
0.0012468827930174563,0.01975521088634251,
0.0012967581047381546,0.019864218736756912,
0.001346633416458853,-0.006230874658641788,
0.001396508728179551,-0.00299332953915123,
0.0014463840399002493,-0.004035816545813371,
0.0014962593516209476,0.06360666496367583,
0.001546134663341646,0.0064482939433381375,
0.0015960099750623442,0.020600499572829493,
0.0016458852867830423,-0.016582244309007343,
0.0016957605985037406,0.009763630780490772,
0.001745635910224439,0.01662274514692201,
0.0017955112219451373,0.043524795517179776,
0.0018453865336658353,0.013997233135199693,
0.0018952618453865336,0.03161803220487218,
0.001945137157107232,0.017682332389567276,
0.00199501246882793,0.006585626893203857,
0.0020448877805486283,0.011705735410214805,
0.0020947630922693266,0.009102391756869332,
0.002144638403990025,0.027356062970008532,
0.0021945137157107233,0.02583302198235892,
0.0022443890274314216,0.03529637605407559,
0.00229426433915212,0.0372572825332325,
0.0023441396508728177,0.036585459831776246,
0.002394014962593516,0.015556365846237758,
0.0024438902743142144,0.0218499094433229,
0.0024937655860349127,0.016898504208600378,
0.002543640897755611,0.014384006446817955,
0.0025935162094763093,0.013769863779881824,
0.0026433915211970076,0.001980682793565565,
0.002693266832917706,0.012991626948704899,
0.002743142144638404,-0.0007586895272558535,
0.002793017456359102,0.020005632685927838,
0.0028428927680798004,0.009844731564732,
0.0028927680798004987,0.015955597858784136,
0.002942643391521197,0.017480005434746777,
0.0029925187032418953,-0.008104123068318553,
0.0030423940149625936,0.009287653298765585,
0.003092269326683292,0.005788436266956656,
0.00314214463840399,0.01895656640435099,
0.0031920199501246885,0.0451731717671366,
0.0032418952618453864,0.0023623133041282395,
0.0032917705735660847,0.005619709985194177,
0.003341645885286783,-0.003882011196345802,
0.0033915211970074813,0.008956861720263096,
0.0034413965087281796,0.001522310304034262,
0.003491271820448878,0.018899226931328,
0.003541147132169576,0.00870234050454852,
0.0035910224438902745,0.04188316549282643,
0.0036408977556109724,0.021674956593904095,
0.0036907730673316707,0.021135978867542995,
0.003740648379052369,0.0205919204022268,
0.0037905236907730673,0.04204058569733114,
0.0038403990024937656,0.03237964421028468,
0.003890274314214464,-0.0003009055337677997,
0.003940149625935162,0.015792434509522297,
0.00399002493765586,0.010084035202100406,
0.004039900249376558,0.030180530434431856,
0.004089775561097257,0.011719255848035673,
0.004139650872817955,0.02535332001533177,
0.004189526184538653,0.0025426225264909997,
0.004239401496259352,0.02908611607835246,
0.00428927680798005,0.029575697968452275,
0.004339152119700748,0.01742798762470487,
0.0043890274314214465,-0.004728735857795182,
0.004438902743142145,0.007952671226932335,
0.004488778054862843,-0.005972355909017122,
0.004538653366583541,0.0004941043359393809,
0.00458852867830424,0.023599884403780285,
0.004638403990024938,-0.004402364317806653,
0.0046882793017456355,0.026031530467137097,
0.004738154613466334,0.011238998358400983,
0.004788029925187032,0.021112683091357477,
0.00483790523690773,-0.010818091293979091,
0.004887780548628429,-0.0014423129939495332,
0.004937655860349127,-0.004192128453156515,
0.004987531172069825,0.0007341001780940331,
0.005037406483790524,0.015166632061261013,
0.005087281795511222,0.012463363751808437,
0.00513715710723192,-0.008234234006732209,
0.0051870324189526185,-0.005236579172045088,
0.005236907730673317,0.011801916156951038,
0.005286783042394015,-0.014919592104544292,
0.0053366583541147134,-0.008074935470074431,
0.005386533665835412,0.004581345835026554,
0.00543640897755611,0.019744507814158832,
0.005486284289276808,-0.02775532546686221,
0.005536159600997507,-0.0015232443193407973,
0.005586034912718204,-0.00029889595343334657,
0.005635910224438902,-0.0006489020329278022,
0.005685785536159601,0.01693876064840061,
0.005735660847880299,0.008198429367193755,
0.005785536159600997,-0.021404688416462432,
0.005835411471321696,0.0004730681675788089,
0.005885286783042394,-0.021199848478726552,
0.005935162094763092,0.009996678479808467,
0.0059850374064837905,-0.0072432271925358515,
0.006034912718204489,0.0036887499311521535,
0.006084788029925187,0.0041851938962112435,
0.0061346633416458855,-0.011271225999813422,
0.006184538653366584,0.004155001033722784,
0.006234413965087282,0.00699819728798066,
0.00628428927680798,-0.02138229258911877,
0.006334164588528679,-0.00959859094375786,
0.006384039900249377,-0.0032318324365794965,
0.006433915211970074,0.010924391224142734,
0.006483790523690773,-0.026187420516890804,
0.006533665835411471,0.016135470605732803,
0.006583541147132169,-0.003039646023347837,
0.006633416458852868,-0.04019693915492475,
0.006683291770573566,-0.00994235371158926,
0.006733167082294264,-0.04927881382948206,
0.0067830423940149626,0.011948381300763684,
0.006832917705735661,-0.02025731557932178,
0.006882793017456359,0.01712909531366026,
0.0069326683291770575,-0.0018426011901795944,
0.006982543640897756,-0.014864179542521332,
0.007032418952618454,0.008897968277042628,
0.007082294264339152,-0.012174530710411833,
0.007132169576059851,-0.011427917999098786,
0.007182044887780549,-0.0030020405893301672,
0.007231920199501247,-0.0014818403174434351,
0.007281795511221945,0.0015931198097066833,
0.007331670822942643,-0.0021650472372061504,
0.007381546134663341,-0.015653026140429255,
0.00743142144638404,0.006490774961578289,
0.007481296758104738,0.008693586544601405,
0.007531172069825436,0.006084195440680106,
0.007581047381546135,-0.0012676934488049978,
0.007630922693266833,-0.021131539103540934,
0.007680798004987531,-2.7513649687657682e-05,
0.0077306733167082295,-0.010378805962597274,
0.007780548628428928,-1.9133577217443284e-05,
0.007830423940149626,-0.0021593400582322446,
0.007880299251870324,-0.0403522816613009,
0.007930174563591023,-0.040661711458011715,
0.00798004987531172,0.007246264311684314,
0.00802992518703242,0.025187455014549453,
0.008079800498753117,-0.0430936701802284,
0.008129675810473816,-0.021429034367597605,
0.008179551122194513,-0.0316654401349381,
0.008229426433915213,0.0072792566601707544,
0.00827930174563591,-0.008928379652369017,
0.00832917705735661,0.003428179597624958,
0.008379052369077307,-0.03853813295115303,
0.008428927680798006,-0.0011757608041312179,
0.008478802992518703,-0.037763526483894756,
0.0085286783042394,-0.011991805996267512,
0.0085785536159601,-0.02270434607697991,
0.008628428927680797,-0.009565836798583199,
0.008678304239401496,-0.02444074966613887,
0.008728179551122194,-0.0025720918457438693,
0.008778054862842893,-0.00407322930688821,
0.00882793017456359,-0.023267928485259735,
0.00887780548628429,0.006994803467558406,
0.008927680798004987,0.025537013926814293,
0.008977556109725686,-0.029438431426754903,
0.009027431421446384,-0.02440509528346279,
0.009077306733167083,-0.03072730546614491,
0.00912718204488778,-0.0003495453907217394,
0.00917705735660848,-0.022072950682005384,
0.009226932668329177,-0.024507485579196537,
0.009276807980049876,0.004849347685771464,
0.009326683291770574,-0.006451097958023505,
0.009376558603491271,-0.016920282629872822,
0.00942643391521197,-0.016060609690080888,
0.009476309226932668,-0.007589895149487142,
0.009526184538653367,0.0008606810195411624,
0.009576059850374064,-0.006090269782247252,
0.009625935162094763,0.02184991636369405,
0.00967581047381546,-0.026486772388406278,
0.00972568578553616,-0.03129343725579377,
0.009775561097256857,-0.0105327122901734,
0.009825436408977557,-0.010767726734041281,
0.009875311720698254,-0.025160141629630407,
0.009925187032418953,-0.03837273603815759,
0.00997506234413965,-0.016698069053236998,
0.01002493765586035,-0.030615886793200014,
0.010074812967581047,-0.005055362341522259,
0.010124688279301746,-0.008893104066515764,
0.010174563591022444,-0.005148977482071363,
0.010224438902743141,0.0014134087026606984,
0.01027431421446384,-0.026827810042789484,
0.010324189526184538,-0.0024442783632816593,
0.010374064837905237,-0.025284486755484878,
0.010423940149625935,-0.016227903535241128,
0.010473815461346634,-0.0175350663742894,
0.010523690773067331,-0.0328934535523115,
0.01057356608478803,0.020944420495035122,
0.010623441396508728,-0.015662549792854186,
0.010673316708229427,-0.053178823045542056,
0.010723192019950124,-0.02057872522002535,
0.010773067331670824,-0.0044977653151283825,
0.010822942643391521,-0.04739560123524437,
0.01087281795511222,-0.01679516754669606,
0.010922693266832918,-0.049139509542307336,
0.010972568578553617,-0.02002581186514501,
0.011022443890274314,-0.005693891461160899,
0.011072319201995013,-0.029054156521480703,
0.01112219451371571,-0.039155986981760045,
0.011172069825436408,-0.0017254023923666748,
0.011221945137157107,-0.026999514967019113,
0.011271820448877805,0.00266891294656706,
0.011321695760598504,-0.011871036913448268,
0.011371571072319201,-0.01105059438066165,
0.0114214463840399,-0.02402347530721053,
0.011471321695760598,-0.02446261140392254,
0.011521197007481297,-0.02393790167282106,
0.011571072319201995,-0.018099710905740994,
0.011620947630922694,-0.03435669608997828,
0.011670822942643391,-0.024838611654259428,
0.01172069825436409,-0.04257385292123764,
0.011770573566084788,-0.02609089914084932,
0.011820448877805487,-0.008317990792084203,
0.011870324189526184,-0.013705515349049674,
0.011920199501246884,-0.010233030322764593,
0.011970074812967581,-0.023300282444048852,
0.012019950124688279,0.0032291119336670462,
0.012069825436408978,-0.004576698915977199,
0.012119700748129675,-0.03957319083219482,
0.012169576059850374,-0.01449852937139352,
0.012219451371571072,-0.007776690454516398,
0.012269326683291771,-0.03276326830545275,
0.012319201995012468,-0.03323768801684575,
0.012369077306733168,-0.012409357310575596,
0.012418952618453865,-0.016858813213856468,
0.012468827930174564,-0.023727819118846662,
0.012518703241895262,-0.033508407038707146,
0.01256857855361596,-0.013473959904658477,
0.012618453865336658,-0.013128044081992305,
0.012668329177057357,-0.004321984814086398,
0.012718204488778055,-0.029664933922027535,
0.012768079800498754,-0.028774474229623863,
0.012817955112219451,-0.027711032157323744,
0.012867830423940149,-0.009976405782598133,
0.012917705735660848,-0.02440122586452108,
0.012967581047381545,-0.030870406929794918,
0.013017456359102245,-0.015901933681457796,
0.013067331670822942,0.013000214187718713,
0.013117206982543641,0.018317862511245966,
0.013167082294264339,-0.030530810056936683,
0.013216957605985038,-0.018742256349691563,
0.013266832917705735,-0.007171027476649556,
0.013316708229426434,-0.030641089332088683,
0.013366583541147132,-0.03639148561518301,
0.013416458852867831,0.01107855858124762,
0.013466334164588529,-0.026273589304280986,
0.013516209476309228,0.0007009888563174419,
0.013566084788029925,-0.0025017110383105095,
0.013615960099750624,-0.03884078132309632,
0.013665835411471322,0.013814189781220001,
0.01371571072319202,-0.004959261819762694,
0.013765586034912718,-0.00480050129392164,
0.013815461346633416,-0.000988359748523602,
0.013865336658354115,-0.018345668282312853,
0.013915211970074812,-0.023381374722552285,
0.013965087281795512,-0.044742781152689315,
0.014014962593516209,-0.0031619959085324003,
0.014064837905236908,0.0023434856256818112,
0.014114713216957606,-0.0015176491786697052,
0.014164588528678305,-0.024222812029511903,
0.014214463840399002,0.007327292676900705,
0.014264339152119701,-0.01136652969374672,
0.014314214463840399,-0.0007933919550793967,
0.014364089775561098,0.013886132325851055,
0.014413965087281795,-0.00640007961473864,
0.014463840399002495,-0.020636386029020987,
0.014513715710723192,-0.004151853440174182,
0.01456359102244389,-0.008227654947540582,
0.014613466334164589,-0.008152832030232187,
0.014663341645885286,-0.013320849247834245,
0.014713216957605985,-0.008598604455044987,
0.014763092269326683,0.010374348049874294,
0.014812967581047382,-0.009589362467086332,
0.01486284289276808,0.024836256122755477,
0.014912718204488778,-0.04645973642852479,
0.014962593516209476,-0.01578395668886106,
0.015012468827930175,-0.01778480315691871,
0.015062344139650873,0.018225005652307648,
0.015112219451371572,-0.021685585597450752,
0.01516209476309227,-0.03107216219532947,
0.015211970074812968,0.014501943521473755,
0.015261845386533666,-0.0018767162769753641,
0.015311720698254365,0.04066616013099916,
0.015361596009975062,0.011834124024201772,
0.01541147132169576,-0.010603432002222347,
0.015461346633416459,0.002207516950868523,
0.015511221945137156,-0.003672327828416714,
0.015561097256857856,-0.009565691261843043,
0.015610972568578553,0.0068598910759631836,
0.015660847880299252,-0.005155907779018913,
0.01571072319201995,0.005036538804143818,
0.015760598503740647,0.03321123675808704,
0.015810473815461346,0.0007123787632972728,
0.015860349127182045,-0.003957266773804698,
0.015910224438902745,-0.005995987561471957,
0.01596009975062344,-0.013679735157664694,
0.01600997506234414,0.00839779996837018,
0.01605985037406484,-0.0072601741885222814,
0.016109725685785538,0.007754313604873985,
0.016159600997506234,0.005699577445134526,
0.016209476309226933,0.011110374327684651,
0.016259351620947632,-0.015106875388938106,
0.016309226932668328,0.0148745667043537,
0.016359102244389027,-0.004893838119075214,
0.016408977556109726,-0.004551673189828744,
0.016458852867830425,0.007565940299572562,
0.01650872817955112,-0.00763703261485818,
0.01655860349127182,0.01240988715694118,
0.01660847880299252,0.02798730679748795,
0.01665835411471322,0.020762811794326028,
0.016708229426433914,0.005364983903972224,
0.016758104738154613,0.0020047671457162942,
0.016807980049875312,-0.008055758723928372,
0.01685785536159601,0.004214385323444666,
0.016907730673316707,0.013301397524991033,
0.016957605985037406,0.008702552546219164,
0.017007481296758106,0.010838634433694632,
0.0170573566084788,0.00604843814386948,
0.0171072319201995,0.014358419417911848,
0.0171571072319202,-0.003142350211231125,
0.0172069825436409,-0.009036918264292612,
0.017256857855361595,-0.0011060992556292289,
0.017306733167082294,0.0074397224660409786,
0.017356608478802993,0.0051500979599513564,
0.017406483790523692,0.007619242235549339,
0.017456359102244388,-0.027511087321503515,
0.017506234413965087,0.01966566695431934,
0.017556109725685786,0.03862158921934466,
0.017605985037406485,-0.0011366421551251456,
0.01765586034912718,0.017196412235928188,
0.01770573566084788,0.011589902322066144,
0.01775561097256858,0.008544740586899574,
0.01780548628428928,0.0017697620799865862,
0.017855361596009974,0.007169976847029885,
0.017905236907730673,0.04193566455872261,
0.017955112219451373,0.02193161345028234,
0.018004987531172068,0.014612014700496268,
0.018054862842892767,0.021097505381278567,
0.018104738154613467,0.01490681520381857,
0.018154613466334166,0.006164163563242377,
0.01820448877805486,0.03857392026368435,
0.01825436408977556,0.030910923196418298,
0.01830423940149626,0.0015167863552902703,
0.01835411471321696,0.005067095862987623,
0.018403990024937655,0.00709628497612905,
0.018453865336658354,0.01722447396244255,
0.018503740648379053,0.015360772992872754,
0.018553615960099752,0.026508341127365345,
0.018603491271820448,0.01889300892695218,
0.018653366583541147,0.017425042631689647,
0.018703241895261846,0.035483993738495465,
0.018753117206982542,0.03936631965020543,
0.01880299251870324,0.03775542146117214,
0.01885286783042394,0.03670880807536449,
0.01890274314214464,0.030963495985417484,
0.018952618453865335,0.016597613042030262,
0.019002493765586034,0.02020814087539045,
0.019052369077306733,0.020769268328757133,
0.019102244389027433,0.016436131981476643,
0.01915211970074813,0.06327444470718174,
0.019201995012468828,0.0380093823410485,
0.019251870324189527,0.0100972707085979,
0.019301745635910226,0.024196242356414464,
0.01935162094763092,0.03553154703483063,
0.01940149625935162,0.042589041914025356,
0.01945137157107232,-0.017824900466061597,
0.01950124688279302,0.03549371753747624,
0.019551122194513715,0.016579174802659427,
0.019600997506234414,0.011548510654585098,
0.019650872817955113,0.03787579187695067,
0.01970074812967581,0.0216294627550524,
0.019750623441396508,0.01768847524864592,
0.019800498753117207,-0.006457457778436638,
0.019850374064837906,0.03666962512305544,
0.019900249376558602,0.053432464980967743,
0.0199501246882793,0.004760544055097449,
0.02,0.017405305955163645,
0.0200498753117207,0.03356483689623208,
0.020099750623441395,0.03473991850804095,
0.020149625935162094,0.015308657799733873,
0.020199501246882794,0.037005106141816096,
0.020249376558603493,0.030077038417731808,
0.02029925187032419,0.008416841174086703,
0.020349127182044888,0.019427115955049947,
0.020399002493765587,0.006748040840777576,
0.020448877805486283,0.054372227714086854,
0.02049875311720698,0.01119835498898574,
0.02054862842892768,0.028991072727636784,
0.02059850374064838,0.019708024184557266,
0.020648379052369076,0.007069501536110537,
0.020698254364089775,0.014188113965383968,
0.020748129675810474,0.026732795403875124,
0.020798004987531173,0.014642204828469754,
0.02084788029925187,0.01976097959278659,
0.020897755610972568,0.01627514068894699,
0.020947630922693267,0.014431036229770872,
0.020997506234413967,0.022406703512011784,
0.021047381546134662,0.024673723043370878,
0.02109725685785536,0.04096237128072175,
0.02114713216957606,0.04280115558324298,
0.02119700748129676,0.04702581888775065,
0.021246882793017455,0.02439473693206617,
0.021296758104738155,0.048396653650874394,
0.021346633416458854,0.008208229579828367,
0.02139650872817955,0.01581731370306451,
0.02144638403990025,0.005755392721744083,
0.021496259351620948,0.02013625235157859,
0.021546134663341647,0.03996868401260564,
0.021596009975062343,0.017841773754543988,
0.021645885286783042,0.011266058825897709,
0.02169576059850374,0.018729440106363848,
0.02174563591022444,0.013540507954910082,
0.021795511221945136,0.040062415991508435,
0.021845386533665835,0.03276049627941306,
0.021895261845386534,0.03389112245818362,
0.021945137157107233,0.0247616029491509,
0.02199501246882793,0.02617947327911038,
0.02204488778054863,0.00850548426660324,
0.022094763092269327,0.019540811258382626,
0.022144638403990027,0.015436859031523137,
0.022194513715710722,0.03727285718373022,
0.02224438902743142,0.018819112283724165,
0.02229426433915212,0.014201288960244614,
0.022344139650872816,0.016626328611469364,
0.022394014962593516,-0.006065650426212342,
0.022443890274314215,0.0066748430124767815,
0.022493765586034914,0.011459142544269352,
0.02254364089775561,0.007656866070647453,
0.02259351620947631,0.018894370608327708,
0.022643391521197008,0.03544663703327185,
0.022693266832917707,-0.016263912252733426,
0.022743142144638403,-0.012585433936764721,
0.022793017456359102,0.02376955780210456,
0.0228428927680798,0.0017799758364705418,
0.0228927680798005,0.0018789828209239273,
0.022942643391521196,0.029078682320964246,
0.022992518703241895,0.013592629455379642,
0.023042394014962594,0.01909083802772686,
0.02309226932668329,0.019109233459556067,
0.02314214463840399,0.04638072811680667,
0.02319201995012469,0.01676500420765179,
0.023241895261845388,0.015698796877247165,
0.023291770573566083,0.025666198185978702,
0.023341645885286783,0.010383996983794767,
0.02339152119700748,0.006179547029865038,
0.02344139650872818,0.036900720889686836,
0.023491271820448877,-0.00332001983221036,
0.023541147132169576,0.040096771217839125,
0.023591022443890275,0.01593713334607943,
0.023640897755610974,0.01710667754822488,
0.02369077306733167,0.010377448899895197,
0.02374064837905237,0.0027876585273598053,
0.023790523690773068,-0.003778459752843478,
0.023840399002493767,0.026340679719286116,
0.023890274314214463,0.018132682755641324,
0.023940149625935162,0.01793853896255768,
0.02399002493765586,-0.0012101538338230543,
0.024039900249376557,0.013574576411032819,
0.024089775561097256,0.017897363970086476,
0.024139650872817955,-0.014312423158741807,
0.024189526184538655,0.021520083535414684,
0.02423940149625935,0.02009211494534075,
0.02428927680798005,0.016510882712798856,
0.02433915211970075,0.028486176692736932,
0.024389027431421448,0.02367141005216667,
0.024438902743142144,0.006233429664758946,
0.024488778054862843,0.022090137182981313,
0.024538653366583542,0.010607117480409222,
0.02458852867830424,0.008136843089438864,
0.024638403990024937,0.0299978537861178,
0.024688279301745636,0.01163461493728143,
0.024738154613466335,-0.002922723030321905,
0.02478802992518703,0.020355070661584006,
0.02483790523690773,0.00514658604722698,
0.02488778054862843,0.0075061477301043315,
0.02493765586034913,-0.00016022939020768345,
0.024987531172069824,-0.007769843044091266,
0.025037406483790523,-0.033565811876781995,
0.025087281795511222,0.0004247962677323188,
0.02513715710723192,0.014614000331333808,
0.025187032418952617,0.011253686492686195,
0.025236907730673316,0.005209098785584209,
0.025286783042394016,0.009868622493100146,
0.025336658354114715,-0.007081971793131655,
0.02538653366583541,-0.0022586512048314144,
0.02543640897755611,0.033242744402056545,
0.02548628428927681,-0.006744940713422703,
0.025536159600997508,0.004124621900651738,
0.025586034912718204,0.025037390163979517,
0.025635910224438903,0.009049264598834076,
0.025685785536159602,0.010420607566711457,
0.025735660847880298,-0.0010452345461472428,
0.025785536159600997,-0.0009958780229941651,
0.025835411471321696,0.009304728867798012,
0.025885286783042395,9.229015574140683e-05,
0.02593516209476309,-0.0009315319490681602,
0.02598503740648379,-0.001133122264900736,
0.02603491271820449,0.009015155808224031,
0.02608478802992519,-0.006176413275874147,
0.026134663341645884,-0.01081822523227824,
0.026184538653366583,0.015399832052617659,
0.026234413965087282,-0.006768400362150245,
0.02628428927680798,-0.0023624913377017377,
0.026334164588528677,0.0006119024852293717,
0.026384039900249377,0.0030484374838010515,
0.026433915211970076,0.01771205811013591,
0.02648379052369077,-0.007401930256803798,
0.02653366583541147,-0.012489483832981107,
0.02658354114713217,-0.005499671299491608,
0.02663341645885287,0.021461065633638126,
0.026683291770573565,-0.012945695948271172,
0.026733167082294264,0.020015526664125385,
0.026783042394014963,0.01920223805656728,
0.026832917705735662,0.0024956642609007254,
0.026882793017456358,0.006830450229691833,
0.026932668329177057,-0.0058403405198973555,
0.026982543640897756,-0.027813329978796816,
0.027032418952618455,-0.036712501139889636,
0.02708229426433915,0.019847390162305138,
0.02713216957605985,0.006460586686856691,
0.02718204488778055,-0.028417109576867088,
0.02723192019950125,-0.0054384253957178805,
0.027281795511221944,-0.010348349201885553,
0.027331670822942643,-0.0012150405679497477,
0.027381546134663343,-0.005236813282991223,
0.02743142144638404,-0.017912407730266297,
0.027481296758104738,-0.010187840851659576,
0.027531172069825437,-0.005056149782119079,
0.027581047381546136,0.005849001668834949,
0.02763092269326683,0.007534324784148606,
0.02768079800498753,0.014161239319565809,
0.02773067331670823,-0.006595672540329503,
0.02778054862842893,-0.01544228002834523,
0.027830423940149625,0.02395109421694883,
0.027880299251870324,-0.010866487186994263,
0.027930174563591023,-0.0013338162011731457,
0.027980049875311722,-0.0034125416769552556,
0.028029925187032418,-0.02809083036007788,
0.028079800498753117,0.007292640996267079,
0.028129675810473816,-0.03304082932881329,
0.028179551122194512,-0.013569365588621483,
0.02822942643391521,0.011733534138424085,
0.02827930174563591,-0.000714176351068416,
0.02832917705735661,-0.01357415390150222,
0.028379052369077305,0.008465746211064681,
0.028428927680798004,-0.019605747058359768,
0.028478802992518704,-0.028845855202701078,
0.028528678304239403,0.0037813545973263765,
0.0285785536159601,-0.029505431863221937,
0.028628428927680798,-0.03321569892372136,
0.028678304239401497,-0.020795547611046884,
0.028728179551122196,-0.018458398919020538,
0.02877805486284289,-0.008354016253980601,
0.02882793017456359,-0.031858202326014,
0.02887780548628429,-0.030072809111155424,
0.02892768079800499,-0.01851077904295676,
0.028977556109725685,-0.007886879606963713,
0.029027431421446384,-0.003812890945213726,
0.029077306733167083,-0.022723787863449824,
0.02912718204488778,-0.007200663368075349,
0.029177057356608478,-0.00036742760111597647,
0.029226932668329177,-0.021807128125774778,
0.029276807980049877,-0.006391130230007128,
0.029326683291770572,-0.004525553100700311,
0.02937655860349127,-0.026959203604093606,
0.02942643391521197,-0.022462036951687945,
0.02947630922693267,0.005448349465125369,
0.029526184538653365,0.006164640222586552,
0.029576059850374065,-0.029326670287307614,
0.029625935162094764,0.008826259649889905,
0.029675810473815463,-0.017686686407254976,
0.02972568578553616,-0.017787791661350215,
0.029775561097256858,-0.014400523373684448,
0.029825436408977557,-0.02329604782163017,
0.029875311720698253,-0.011027044029133879,
0.029925187032418952,-0.027762330661433892,
0.02997506234413965,0.005785596156988128,
0.03002493765586035,0.0017010816372128,
0.030074812967581046,-0.013837823998638329,
0.030124688279301745,-0.03268931949574351,
0.030174563591022444,0.010959740086566017,
0.030224438902743143,-0.02988554403031099,
0.03027431421446384,-0.0069952547224165235,
0.03032418952618454,-0.0017511355967111154,
0.030374064837905237,-0.017206229552892655,
0.030423940149625937,-0.011267734092675149,
0.030473815461346632,-0.01706486726457713,
0.03052369077306733,0.0023191846699308974,
0.03057356608478803,-0.027749212351427473,
0.03062344139650873,-0.029676194975452652,
0.030673316708229426,-0.018967126743189844,
0.030723192019950125,-0.00420189918300677,
0.030773067331670824,-0.02780647440099372,
0.03082294264339152,-0.022788369723889326,
0.03087281795511222,-0.026088863949832668,
0.030922693266832918,-0.0026882849548887037,
0.030972568578553617,-0.006461991176620035,
0.031022443890274313,0.0004753599088032183,
0.031072319201995012,-0.0034413227847217443,
0.03112219451371571,0.008208684036494888,
0.03117206982543641,-0.0011756563073147715,
0.031221945137157106,-0.021161219762260212,
0.03127182044887781,-0.015132338033856876,
0.031321695760598504,-0.028211427745835363,
0.0313715710723192,-0.010217666513336134,
0.0314214463840399,-0.021188200058215107,
0.0314713216957606,-0.015542925168389874,
0.031521197007481294,-0.03454838621117927,
0.031571072319202,-0.007988973906481948,
0.03162094763092269,-0.05987601254998588,
0.03167082294264339,-0.018677160774559155,
0.03172069825436409,-0.012179653325607033,
0.03177057356608479,-0.011680872270503085,
0.03182044887780549,-0.03766382669116669,
0.031870324189526185,-0.002917989872756186,
0.03192019950124688,0.004480024624620407,
0.03197007481296758,0.004769161496158806,
0.03201995012468828,-0.006986906211387927,
0.032069825436408975,-0.013014504798766901,
0.03211970074812968,-0.01891618536591809,
0.03216957605985037,-0.0023118674645553807,
0.032219451371571076,0.014836839528332715,
0.03226932668329177,-0.008225619562075901,
0.03231920199501247,-0.02536999530297877,
0.03236907730673317,0.0036699317691739203,
0.032418952618453865,-0.030221976550482976,
0.03246882793017456,-0.0260413644147465,
0.032518703241895264,-0.024728760614327713,
0.03256857855361596,-0.0003808404159277058,
0.032618453865336655,0.0131127706844616,
0.03266832917705736,-0.00627962564838265,
0.032718204488778053,-0.01994544033099278,
0.032768079800498756,-0.0020999825069029764,
0.03281795511221945,-0.02463001011311411,
0.03286783042394015,-0.026648938231034276,
0.03291770573566085,-0.03969609345963749,
0.032967581047381546,-0.01739227475627978,
0.03301745635910224,-0.009177838081419344,
0.033067331670822944,-0.010752855852517371,
0.03311720698254364,0.005707180856825894,
0.03316708229426434,0.0010605383481617266,
0.03321695760598504,-0.0007862183628224387,
0.033266832917705734,-0.016248814302459016,
0.03331670822942644,-0.034938397744090396,
0.03336658354114713,-0.011602154632625785,
0.03341645885286783,-0.006574206773395796,
0.03346633416458853,-0.016691867462704207,
0.033516209476309226,0.009655923901706864,
0.03356608478802992,0.002778533127100245,
0.033615960099750625,0.0014165312998451612,
0.03366583541147132,-0.025370269619978483,
0.03371571072319202,-0.024949118143234007,
0.03376558603491272,-0.009960987221645949,
0.033815461346633414,-0.032362922387388804,
0.03386533665835412,0.008781402380183078,
0.03391521197007481,-0.013600277049445178,
0.03396508728179551,7.931371950547529e-05,
0.03401496259351621,-0.009625247965702072,
0.03406483790523691,0.010824360628624151,
0.0341147132169576,-0.038895032391327876,
0.034164588528678305,-0.028597948984319527,
0.034214463840399,-0.01839638911134233,
0.034264339152119704,0.010532942493262575,
0.0343142144638404,-0.0072280851511993234,
0.034364089775561095,-0.022039654133541347,
0.0344139650872818,-0.03211864085463492,
0.03446384039900249,-0.0005657344897394166,
0.03451371571072319,-0.01309275074610986,
0.03456359102244389,-0.025630426848319197,
0.03461346633416459,-0.005279085002491814,
0.03466334164588529,0.0011462516922619648,
0.034713216957605986,-0.011841942270064923,
0.03476309226932668,0.010278910375794328,
0.034812967581047384,-0.023129292568557495,
0.03486284289276808,-0.009114914396306704,
0.034912718204488775,-0.004784670548706462,
0.03496259351620948,-0.013630535023600303,
0.035012468827930174,-0.013582885899744206,
0.03506234413965087,0.024124851646305845,
0.03511221945137157,0.02311568204448,
0.03516209476309227,0.007938465095869766,
0.03521197007481297,-0.0013167603049525506,
0.035261845386533666,0.012565959960311858,
0.03531172069825436,-0.019862826709134605,
0.035361596009975065,-0.009103531010585615,
0.03541147132169576,0.0027753426672013385,
0.035461346633416456,0.004673039803531769,
0.03551122194513716,-0.021084001498436047,
0.035561097256857854,-0.02036083495727229,
0.03561097256857856,-0.014696121083008494,
0.03566084788029925,-0.003072429435934869,
0.03571072319201995,-0.004499262179174647,
0.03576059850374065,-0.012794605505684216,
0.03581047381546135,0.008984853582244056,
0.03586034912718204,-0.017476207061135715,
0.035910224438902745,-0.02300823554944485,
0.03596009975062344,0.00803069790967205,
0.036009975062344136,0.008036344427524912,
0.03605985037406484,-0.005339397877624807,
0.036109725685785535,0.0047544493377609425,
0.03615960099750624,-0.020298253854246565,
0.03620947630922693,-0.020920977186636824,
0.03625935162094763,0.0019485687364927209,
0.03630922693266833,0.005776608907749327,
0.03635910224438903,0.0009324901503405276,
0.03640897755610972,0.02791463175612625,
0.036458852867830426,-0.006263454056498432,
0.03650872817955112,-0.007448431264380503,
0.036558603491271824,0.026129358007850385,
0.03660847880299252,0.015972223820989527,
0.036658354114713215,0.007929641324061858,
0.03670822942643392,-0.0084031277512283,
0.036758104738154614,-0.005388715446038668,
0.03680798004987531,0.0028602616906917636,
0.03685785536159601,0.001241283884353718,
0.03690773067331671,0.005486654013340015,
0.0369576059850374,0.014095494009059548,
0.037007481296758106,0.026738876271103114,
0.0370573566084788,-0.003309671607755091,
0.037107231920199504,0.006623126419607519,
0.0371571072319202,0.0031759819330434624,
0.037206982543640896,0.010441855943362005,
0.0372568578553616,0.01682778820278031,
0.037306733167082294,0.019111023257699897,
0.03735660847880299,0.019375278792188345,
0.03740648379052369,0.04105936987034971,
0.03745635910224439,0.009611124021529577,
0.037506234413965084,0.020357908343270635,
0.037556109725685786,0.002154363189635189,
0.03760598503740648,0.008883317585355752,
0.037655860349127185,0.025088960698098545,
0.03770573566084788,-0.005531806475182359,
0.037755610972568576,0.0064195521899325664,
0.03780548628428928,0.03755501797666607,
0.037855361596009975,0.021696194402396993,
0.03790523690773067,0.020134273560135633,
0.03795511221945137,0.014851698973909698,
0.03800498753117207,0.026067138545042428,
0.03805486284289277,0.0064904793768438395,
0.03810473815461347,0.009143071120004339,
0.03815461346633416,0.02041180826035524,
0.038204488778054865,0.024695139568330096,
0.03825436408977556,0.018806603651008356,
0.03830423940149626,0.011311959063008262,
0.03835411471321696,0.037389602489925414,
0.038403990024937655,0.010143910994194913,
0.03845386533665835,0.05988532125423899,
0.03850374064837905,0.018134910036619083,
0.03855361596009975,-0.002689927270123467,
0.03860349127182045,0.031719641820435004,
0.03865336658354115,0.015236537871889822,
0.03870324189526184,0.036612288890935436,
0.038753117206982546,0.022346139370259182,
0.03880299251870324,0.004316783654918317,
0.03885286783042394,0.0015293694151877514,
0.03890274314214464,-0.019151763925854322,
0.038952618453865336,0.02702267173099654,
0.03900249376558604,0.04648663776424695,
0.039052369077306734,0.021977913015448585,
0.03910224438902743,0.01498268734315186,
0.03915211970074813,0.02541933266129249,
0.03920199501246883,0.031189372124565715,
0.039251870324189524,0.009026980378639114,
0.039301745635910226,-0.0019442581270769504,
0.03935162094763092,-0.005418681115901457,
0.03940149625935162,0.02407475243250986,
0.03945137157107232,-0.02952160145113008,
0.039501246882793016,0.03357044016750307,
0.03955112219451372,0.03541661688411523,
0.039600997506234414,0.007853345909915885,
0.03965087281795511,0.009108042591026256,
0.03970074812967581,0.01687877182984679,
0.03975062344139651,0.036785799513990115,
0.039800498753117204,0.05734807913169867,
0.03985037406483791,-0.004562903108115791,
0.0399002493765586,0.022832535155467463,
0.039950124688279305,0.025465289598005446,
0.04,0.03136029606700157,
0.0400498753117207,0.00986276773667468,
0.0400997506234414,0.030766660487935207,
0.040149625935162095,0.00630367818741405,
0.04019950124688279,0.011620551190728337,
0.04024937655860349,0.04332889516483922,
0.04029925187032419,0.04339350752190928,
0.040349127182044885,0.005243481307136057,
0.04039900249376559,0.030994949811748752,
0.04044887780548628,0.024064566408126133,
0.040498753117206986,-0.002177862670259722,
0.04054862842892768,0.04291046759536398,
0.04059850374064838,0.02745113832438793,
0.04064837905236908,0.06293714478630286,
0.040698254364089775,0.007273470708644342,
0.04074812967581047,0.000786519919469892,
0.040798004987531174,0.05128067321202814,
0.04084788029925187,0.047394449163485494,
0.040897755610972565,0.049577758261321284,
0.04094763092269327,0.03881776650915853,
0.04099750623441396,0.04897377408242733,
0.041047381546134666,0.02100261267917576,
0.04109725685785536,0.035841723109344546,
0.04114713216957606,0.009983501037883775,
0.04119700748129676,0.036505509218602995,
0.041246882793017456,-0.011523396766293822,
0.04129675810473815,0.010898019639152956,
0.041346633416458854,0.0016677271539696642,
0.04139650872817955,0.02804904831979138,
0.04144638403990025,0.029541230422758608,
0.04149625935162095,0.027446008815830963,
0.041546134663341644,0.021771707072660507,
0.04159600997506235,0.0227716808159105,
0.04164588528678304,0.028391077338897886,
0.04169576059850374,0.016805034386269572,
0.04174563591022444,0.013364337282687112,
0.041795511221945136,-0.000558638122057007,
0.04184538653366583,0.03012307015654505,
0.041895261845386535,0.032190820773590756,
0.04194513715710723,0.016872245232815553,
0.04199501246882793,0.03676259616236654,
0.04204488778054863,0.019060776720683716,
0.042094763092269324,0.009219244329954909,
0.04214463840399003,0.02423635761342134,
0.04219451371571072,0.02366548061299818,
0.04224438902743142,0.03002626870018254,
0.04229426433915212,0.0008586832864290427,
0.04234413965087282,0.021067472189078534,
0.04239401496259352,0.029163951740220087,
0.042443890274314215,0.025687306728321688,
0.04249376558603491,0.013773479221562345,
0.042543640897755614,0.019521563289426783,
0.04259351620947631,0.016579596240042092,
0.042643391521197005,-0.022578902812555285,
0.04269326683291771,0.03144152952936896,
0.0427431421446384,0.01150877996679828,
0.0427930174563591,0.04720828755507689,
0.0428428927680798,0.024670937035952266,
0.0428927680798005,0.01841080004348365,
0.0429426433915212,0.01654956515683967,
0.042992518703241896,0.018997664502398592,
0.04304239401496259,0.03475214170706091,
0.043092269326683294,-0.0067413499802536775,
0.04314214463840399,0.026395599089073418,
0.043192019950124685,0.02496281035156393,
0.04324189526184539,0.02544172062853798,
0.043291770573566084,0.04030142570684929,
0.043341645885286786,0.009487191905633525,
0.04339152119700748,0.025619150148492482,
0.04344139650872818,0.027771846488772213,
0.04349127182044888,-0.015695709560581507,
0.043541147132169576,0.01967930676629887,
0.04359102244389027,0.010325366488170992,
0.043640897755610975,0.028620795390828943,
0.04369077306733167,0.011619920841278494,
0.043740648379052366,0.019797307709294033,
0.04379052369077307,0.037416642313936405,
0.043840399002493764,0.015817995039306445,
0.04389027431421447,0.035850437407905486,
0.04394014962593516,0.010811484683181482,
0.04399002493765586,0.0020452506381276915,
0.04403990024937656,-0.0005226103595053835,
0.04408977556109726,-0.005947648417298003,
0.04413965087281795,0.005550439088331936,
0.044189526184538655,0.04541912725232551,
0.04423940149625935,0.02842150451888232,
0.04428927680798005,0.029974967212952446,
0.04433915211970075,0.0012457224974806672,
0.044389027431421445,0.017468684582136858,
0.04443890274314215,0.021814961274604076,
0.04448877805486284,0.04128700759643165,
0.04453865336658354,0.0033537280447367788,
0.04458852867830424,0.040479827694219185,
0.04463840399002494,-0.007631653216424131,
0.04468827930174563,0.02570766275863295,
0.044738154613466335,0.03626798007749634,
0.04478802992518703,0.008805930933372388,
0.044837905236907734,0.018328618691818663,
0.04488778054862843,-0.015648530247909267,
0.044937655860349125,0.007284882127581453,
0.04498753117206983,0.010548390443887029,
0.045037406483790524,-0.029196015424944294,
0.04508728179551122,-0.00985085233679223,
0.04513715710723192,0.007863213733290063,
0.04518703241895262,0.004135458923666211,
0.04523690773067331,0.004235026612216938,
0.045286783042394016,0.008819324362378117,
0.04533665835411471,-0.009882560910927207,
0.045386533665835414,0.01704790168643059,
0.04543640897755611,0.025012070001505536,
0.045486284289276806,0.024472666357446687,
0.04553615960099751,0.027276603969279938,
0.045586034912718204,0.026316323809492767,
0.0456359102244389,0.007721095505287821,
0.0456857855361596,-0.005244292006201169,
0.0457356608478803,0.013372296076526192,
0.045785536159601,0.006140458714648889,
0.045835411471321696,-0.022916671212135097,
0.04588528678304239,0.0016423919037205957,
0.045935162094763095,0.001106299391679297,
0.04598503740648379,0.007526278099403058,
0.046034912718204486,-0.012053622837112025,
0.04608478802992519,-0.007406320278567996,
0.046134663341645885,-0.018575430041720437,
0.04618453865336658,0.0036928601493272377,
0.04623441396508728,0.013913708481824182,
0.04628428927680798,0.023744909885861823,
0.04633416458852868,0.0001510108494765267,
0.04638403990024938,0.028139469097779243,
0.04643391521197007,0.002543642952665786,
0.046483790523690775,-0.006014707304911779,
0.04653366583541147,-0.000986851538516254,
0.04658354114713217,-0.004678201823151724,
0.04663341645885287,-0.007324244699258731,
0.046683291770573565,0.0017450062249974806,
0.04673316708229427,0.0068782844168531355,
0.04678304239401496,-0.012298453396465146,
0.04683291770573566,0.007560031258298701,
0.04688279301745636,-0.006630583314568247,
0.04693266832917706,0.0036676382044574024,
0.04698254364089775,-0.0013018561880694104,
0.047032418952618456,-0.0007735604782238186,
0.04708229426433915,-0.0027076441516736996,
0.04713216957605985,-0.00018635483541410433,
0.04718204488778055,0.008917052573265409,
0.047231920199501246,-0.014251851107341389,
0.04728179551122195,-0.0020008134039547557,
0.047331670822942644,0.011939284317641224,
0.04738154613466334,-0.02916832865016588,
0.04743142144638404,0.003907080784930302,
0.04748129675810474,-0.014454356204938595,
0.047531172069825434,-0.011611162631193082,
0.047581047381546136,0.011446415845261956,
0.04763092269326683,0.017924688475148214,
0.047680798004987535,-0.027637715919955612,
0.04773067331670823,0.0005958397203032215,
0.047780548628428926,-0.009321246644360098,
0.04783042394014963,-0.02497032083735863,
0.047880299251870324,0.028638970425641036,
0.04793017456359102,-0.030747268018992455,
0.04798004987531172,-0.005902644504711514,
0.04802992518703242,-0.006024217912897591,
0.048079800498753114,0.0008272625318657169,
0.04812967581047382,-0.012019088339525407,
0.04817955112219451,0.023726612353877734,
0.048229426433915215,-0.008564459158828032,
0.04827930174563591,-0.027805360387831192,
0.048329177057356607,-0.02648529661105851,
0.04837905236907731,-0.016626337108151812,
0.048428927680798005,-0.02639162485867101,
0.0484788029925187,-0.008333627182641693,
0.0485286783042394,-0.02521770942704695,
0.0485785536159601,-0.008802887893539934,
0.048628428927680795,-0.004934401220751556,
0.0486783042394015,-0.008094085452065553,
0.04872817955112219,-0.02798647140860175,
0.048778054862842896,-0.0021575026509713345,
0.04882793017456359,0.010742207104524998,
0.04887780548628429,-0.002986246848716869,
0.04892768079800499,-0.023428760029224158,
0.048977556109725685,-0.0007031797676640451,
0.04902743142144638,-0.0030494185064841514,
0.049077306733167084,0.0058018238453373255,
0.04912718204488778,-0.0036602475494497255,
0.04917705735660848,-0.0021955538220993272,
0.04922693266832918,-0.025762001933744977,
0.04927680798004987,-0.00571234691721774,
0.049326683291770576,-0.015093189361424912,
0.04937655860349127,-0.0022495894680991703,
0.04942643391521197,-0.03591218258864227,
0.04947630922693267,-0.014839009385601353,
0.049526184538653366,-0.020443916726577506,
0.04957605985037406,-0.009194695491496485,
0.049625935162094764,-0.005678204627280536,
0.04967581047381546,-0.008821766142200574,
0.04972568578553616,-0.008518476283230231,
0.04977556109725686,-0.015662906562340734,
0.049825436408977554,-0.019253503939162437,
0.04987531172069826,-0.005147514421558787,
0.04992518703241895,-0.03256833675739598,
0.04997506234413965,-0.011662225528063808,
0.05002493765586035,-0.029723295588083617,
0.050074812967581046,0.01001604102098291,
0.05012468827930175,-0.01387779541475603,
0.050174563591022445,-0.012602342352474556,
0.05022443890274314,-0.0049456644157828585,
0.05027431421446384,-0.01929174068797841,
0.05032418952618454,-0.0234627206318935,
0.050374064837905234,-0.010534888913639769,
0.05042394014962594,0.008953337397907282,
0.05047381546134663,-0.0023958288377593784,
0.05052369077306733,-0.014099557144345388,
0.05057356608478803,-0.012431380175692447,
0.05062344139650873,-0.023937320693281194,
0.05067331670822943,-0.010242934497537631,
0.050723192019950125,-0.02055513226021432,
0.05077306733167082,-0.031343556109750564,
0.050822942643391524,-0.020703773875390158,
0.05087281795511222,-0.0076888699346294755,
0.050922693266832915,-0.004578360127500755,
0.05097256857855362,-0.022228438885396558,
0.05102244389027431,-0.006423553229389985,
0.051072319201995016,-0.016475929400943938,
0.05112219451371571,-0.014284803772205078,
0.05117206982543641,-0.016364269778443317,
0.05122194513715711,-0.037198821210345026,
0.051271820448877806,0.0024328773351074175,
0.0513216957605985,-0.02095732670206412,
0.051371571072319204,-0.008786894940086493,
0.0514214463840399,0.002418882763421816,
0.051471321695760595,-0.021985798775473898,
0.0515211970074813,-0.024316561175324478,
0.051571072319201994,-0.017611588053562083,
0.051620947630922696,-0.0054498695738088975,
0.05167082294264339,-0.028451908308344223,
0.05172069825436409,-0.024384795771959414,
0.05177057356608479,-0.01875924144627785,
0.051820448877805486,-0.0033559058787633062,
0.05187032418952618,-0.011298305046860444,
0.051920199501246884,-0.021103355377856327,
0.05197007481296758,-0.02589232483934576,
0.052019950124688276,-0.006642272133899861,
0.05206982543640898,-0.03616848787932174,
0.052119700748129674,-0.022219919584340588,
0.05216957605985038,-0.03133470740089457,
0.05221945137157107,-0.047098047341215435,
0.05226932668329177,-0.023724478766663015,
0.05231920199501247,-0.031218328870858236,
0.05236907730673317,-0.010107595364787312,
0.05241895261845386,-0.0030166689748308915,
0.052468827930174565,-0.0385048287564607,
0.05251870324189526,-0.037753678205554295,
0.05256857855361596,-0.025404812756678212,
0.05261845386533666,-0.026627000784915544,
0.052668329177057355,-0.008011445467634912,
0.05271820448877806,0.006480596369175168,
0.05276807980049875,-0.015324946753662274,
0.05281795511221945,-0.028104757432865793,
0.05286783042394015,-0.01837985186571045,
0.05291770573566085,0.010782832114867844,
0.05296758104738154,-0.011229853174403536,
0.053017456359102245,0.007916280790227603,
0.05306733167082294,0.00489945127402441,
0.053117206982543644,-0.03833193553156179,
0.05316708229426434,0.004621418823116362,
0.053216957605985035,-0.029249010443163595,
0.05326683291770574,-0.02248216901003877,
0.053316708229426434,0.005650160667799428,
0.05336658354114713,0.009468010217060785,
0.05341645885286783,0.0040300851244434496,
0.05346633416458853,0.016343473454886022,
0.05351620947630923,-0.01124671715896576,
0.053566084788029926,0.015223084210224105,
0.05361596009975062,0.0011450555842758836,
0.053665835411471324,-0.025256925602491192,
0.05371571072319202,-0.0032993586800863913,
0.053765586034912716,-0.021472925911146717,
0.05381546134663342,0.014214471208396381,
0.053865336658354114,-0.010880257848292597,
0.05391521197007481,0.014690203203541426,
0.05396508728179551,-0.004981741070183053,
0.05401496259351621,-0.032490720662757586,
0.05406483790523691,0.0250610287898752,
0.054114713216957606,-0.02267399817282187,
0.0541645885286783,-0.023735132496221858,
0.054214463840399005,-0.003370222003201908,
0.0542643391521197,-0.01530959567197094,
0.054314214463840396,-0.011855798109750081,
0.0543640897755611,-0.012442333251787757,
0.054413965087281795,-0.017104467589618737,
0.0544638403990025,-0.02808793923682995,
0.05451371571072319,0.013083105373405849,
0.05456359102244389,0.009597040412315122,
0.05461346633416459,-0.0019175184968434865,
0.05466334164588529,0.004847011056303147,
0.05471321695760598,-0.014156076248820381,
0.054763092269326685,-0.009343894204166273,
0.05481296758104738,-0.00034913832117463347,
0.05486284289276808,-0.02213131123082144,
0.05491271820448878,-0.00433118456544675,
0.054962593516209475,0.014432623485923689,
0.05501246882793018,-0.020256380557336546,
0.05506234413965087,0.007673193611450544,
0.05511221945137157,0.00998299754330461,
0.05516209476309227,0.006291698299087442,
0.05521197007481297,-0.026986960631300082,
0.05526184538653366,0.02322782952529558,
0.055311720698254366,0.02124061216139086,
0.05536159600997506,0.03490954952097723,
0.05541147132169576,-0.01333747254877372,
0.05546134663341646,-0.018672520980000055,
0.055511221945137156,0.004812965469597106,
0.05556109725685786,0.0050685180450883854,
0.055610972568578554,0.024384951591672834,
0.05566084788029925,0.023637315236266596,
0.05571072319201995,-0.008103200048273286,
0.05576059850374065,-0.013602088993622648,
0.055810473815461344,-0.0001851943206250201,
0.055860349127182046,-0.00717342781068973,
0.05591022443890274,0.023461189603739593,
0.055960099750623445,0.048078826989665174,
0.05600997506234414,0.01926609937647,
0.056059850374064836,0.008898047226596652,
0.05610972568578554,-0.010825535683198984,
0.056159600997506234,-0.02213431819247166,
0.05620947630922693,0.0031208328018873213,
0.05625935162094763,0.008455240642446394,
0.05630922693266833,-0.0150209163157962,
0.056359102244389024,0.01607080602818447,
0.05640897755610973,0.006983479645943065,
0.05645885286783042,-0.015389711781383094,
0.056508728179551125,-0.001089034349491683,
0.05655860349127182,-0.008530490727249545,
0.056608478802992516,0.027588537601353928,
0.05665835411471322,0.014118291202937856,
0.056708229426433915,0.02099445317293206,
0.05675810473815461,0.007937530533815525,
0.05680798004987531,-0.044226383117567714,
0.05685785536159601,0.019717107831852335,
0.05690773067331671,-0.0037400705826650376,
0.05695760598503741,-0.00695148956186206,
0.0570074812967581,-0.02003720777331395,
0.057057356608478806,0.02390473120182251,
0.0571072319201995,-0.011031769341405494,
0.0571571072319202,0.020476389569078487,
0.0572069825436409,0.004027762827430316,
0.057256857855361595,-0.007581769343002172,
0.05730673316708229,0.02450864351565393,
0.057356608478802994,0.012728637318762318,
0.05740648379052369,0.0085196911572737,
0.05745635910224439,-0.02158223054121206,
0.05750623441396509,0.004234115361375005,
0.05755610972568578,0.03042483279042918,
0.057605985037406486,0.013338805118440666,
0.05765586034912718,0.00041989362799883974,
0.05770573566084788,0.01426129650546727,
0.05775561097256858,0.0038053772405345077,
0.057805486284289276,0.026216741707468592,
0.05785536159600998,-0.0017100758804257776,
0.057905236907730674,0.019892075512462914,
0.05795511221945137,0.011210055209381902,
0.05800498753117207,0.010219159124182677,
0.05805486284289277,0.0060193410114134285,
0.058104738154613464,0.030201770000805962,
0.05815461346633417,0.01571192483194805,
0.05820448877805486,0.014014197954095566,
0.05825436408977556,-0.0002476208436132249,
0.05830423940149626,0.0032006295594330676,
0.058354114713216956,0.020506021353529517,
0.05840399002493766,0.029848313127354018,
0.058453865336658355,0.02864417000276097,
0.05850374064837905,0.002671891901088297,
0.05855361596009975,0.035563257924886196,
0.05860349127182045,0.022637392156857398,
0.058653366583541144,-0.002849046469015404,
0.05870324189526185,0.006412456560782603,
0.05875311720698254,0.013022758536446952,
0.05880299251870324,0.0158090477411496,
0.05885286783042394,-0.004344961878819893,
0.05890274314214464,0.01282881830050997,
0.05895261845386534,0.0016361531103930953,
0.059002493765586035,-0.015596644457807153,
0.05905236907730673,0.017238722121799856,
0.059102244389027433,0.03798623577376594,
0.05915211970074813,0.014547494948703409,
0.059201995012468825,0.028577023836137742,
0.05925187032418953,0.010457105102579805,
0.05930174563591022,-0.008824811814637384,
0.059351620947630926,0.024016325133190203,
0.05940149625935162,0.03937054691214327,
0.05945137157107232,0.004362506207173971,
0.05950124688279302,0.021474676775901928,
0.059551122194513716,0.02943359678760579,
0.05960099750623441,0.03051928504090631,
0.059650872817955114,0.021219290380973057,
0.05970074812967581,0.02297554703170769,
0.059750623441396505,-0.003211521244180709,
0.05980049875311721,0.03157655252072068,
0.059850374064837904,0.03176831652109418,
0.059900249376558606,0.027733457427872064,
0.0599501246882793,0.018047449474650715,
0.06,-0.0012300610140410506,
0.0600498753117207,0.025006062162058446,
0.060099750623441396,0.013284764223323746,
0.06014962593516209,0.006003321476381503,
0.060199501246882794,0.019793801560887572,
0.06024937655860349,0.03541062909543447,
0.06029925187032419,0.002649957788070211,
0.06034912718204489,0.025491362898327187,
0.060399002493765584,0.024633299978912285,
0.06044887780548629,0.036782287929278255,
0.06049875311720698,0.01467398109768323,
0.06054862842892768,0.0008815989259921206,
0.06059850374064838,0.04724070387095166,
0.06064837905236908,0.03351278189582213,
0.06069825436408977,0.018987370077004923,
0.060748129675810475,0.04518692736532252,
0.06079800498753117,0.014198695300930105,
0.06084788029925187,0.030108145362106344,
0.06089775561097257,0.015496939857380014,
0.060947630922693265,0.019482227571098156,
0.06099750623441397,0.025291994653788893,
0.06104738154613466,0.04394934473419133,
0.06109725685785536,0.023240007753236567,
0.06114713216957606,0.03739584115127745,
0.06119700748129676,0.00572987999202498,
0.06124688279301746,0.033775326271396094,
0.061296758104738155,0.03000957514843057,
0.06134663341645885,0.030225948466526417,
0.061396508728179554,0.013614059877993955,
0.06144638403990025,0.03645722691364808,
0.061496259351620945,0.04295171690523519,
0.06154613466334165,0.018242799103541967,
0.061596009975062344,0.0028383540112990498,
0.06164588528678304,0.034048693129501026,
0.06169576059850374,-0.004499560561522942,
0.06174563591022444,0.007635079856960325,
0.06179551122194514,0.008203761207835981,
0.061845386533665836,-0.0045439223465088725,
0.06189526184538653,0.036701859641381576,
0.061945137157107234,0.028418885187554314,
0.06199501246882793,0.005076309475247495,
0.062044887780548626,0.04663351005963852,
0.06209476309226933,0.037441270223764055,
0.062144638403990024,0.0266512663838957,
0.06219451371571072,0.005590042205132848,
0.06224438902743142,0.03021141364516845,
0.06229426433915212,0.018468103875927254,
0.06234413965087282,0.01782730868177169,
0.062394014962593516,0.020582787400720354,
0.06244389027431421,0.016199121409134487,
0.062493765586034915,0.02161885474249351,
0.06254364089775562,0.02427143143167695,
0.06259351620947631,0.029120025173307897,
0.06264339152119701,0.03460830053328676,
0.0626932668329177,0.014989838173531568,
0.0627431421446384,-0.00039165818744909403,
0.0627930174563591,-0.0031576285479826723,
0.0628428927680798,0.029445537966455302,
0.0628927680798005,0.0385322871132992,
0.0629426433915212,0.032844563712422864,
0.06299251870324189,0.027797735262795165,
0.06304239401496259,0.021239058733115112,
0.0630922693266833,0.025076330208356413,
0.063142144638404,-0.001856629930403083,
0.06319201995012469,0.03655821948536554,
0.06324189526184539,0.026299841723152455,
0.06329177057356608,0.0033895678022839056,
0.06334164588528678,0.004971727006072176,
0.06339152119700749,0.008188208096186237,
0.06344139650872818,0.03247731836619404,
0.06349127182044888,0.03213067014008213,
0.06354114713216957,0.003097136376120019,
0.06359102244389027,0.007526942978470447,
0.06364089775561098,-0.011899773454271064,
0.06369077306733167,0.004388418200374415,
0.06374064837905237,0.021612105313213274,
0.06379052369077307,0.027478169479680237,
0.06384039900249376,0.05684972869655246,
0.06389027431421446,0.010738421467226011,
0.06394014962593517,0.01729742937705802,
0.06399002493765586,-0.005278495079833766,
0.06403990024937656,0.010267053311249986,
0.06408977556109725,0.02580228623310666,
0.06413965087281795,-0.003367753962091078,
0.06418952618453866,0.03518290106271647,
0.06423940149625935,0.026166198933829404,
0.06428927680798005,0.006081320066350081,
0.06433915211970075,0.05091429165309279,
0.06438902743142144,0.01596865276508702,
0.06443890274314215,0.005761709051640062,
0.06448877805486285,-0.015185830435455534,
0.06453865336658354,0.03163741119385831,
0.06458852867830424,0.008739170544658514,
0.06463840399002493,0.012472032830604668,
0.06468827930174563,-0.0028212577285134897,
0.06473815461346634,0.031989000929033284,
0.06478802992518704,-0.01928782880132386,
0.06483790523690773,0.030756699789896105,
0.06488778054862843,0.016985899701948425,
0.06493765586034912,0.010062088965377795,
0.06498753117206983,-0.015947831677344055,
0.06503740648379053,0.00943557492309428,
0.06508728179551122,-0.005497373136504781,
0.06513715710723192,0.02953165577046557,
0.06518703241895261,0.011000458137449466,
0.06523690773067331,0.003186197169866344,
0.06528678304239402,0.0016284343828922524,
0.06533665835411472,0.006907877866511364,
0.06538653366583541,0.008238015082837962,
0.06543640897755611,-0.008695338772351012,
0.0654862842892768,0.029776127555241377,
0.06553615960099751,0.0001388189230263001,
0.06558603491271821,0.00034011264158435514,
0.0656359102244389,0.010057062949636245,
0.0656857855361596,0.024422348634408887,
0.0657356608478803,-0.003070537996042953,
0.06578553615960099,-0.0006361926994866585,
0.0658354114713217,0.013551236463538289,
0.0658852867830424,-0.0031425149933199375,
0.06593516209476309,0.003318671589823888,
0.06598503740648379,0.018088610947365878,
0.06603491271820448,0.02922961791148696,
0.06608478802992519,-0.011347168443951103,
0.06613466334164589,-0.009144329095852718,
0.06618453865336658,0.018377151382289188,
0.06623441396508728,0.013100565066565024,
0.06628428927680798,-0.004956563363573212,
0.06633416458852869,-0.02249773559599887,
0.06638403990024938,0.013166005155743704,
0.06643391521197008,0.02112022114548841,
0.06648379052369077,0.002222499190433121,
0.06653366583541147,-0.010334055115013015,
0.06658354114713216,0.01234491210526393,
0.06663341645885287,0.004201111053333033,
0.06668329177057357,0.01137727446288637,
0.06673316708229426,-0.00824362222037283,
0.06678304239401496,0.030022461666558694,
0.06683291770573566,0.0010227563480244442,
0.06688279301745637,0.0015832673816534555,
0.06693266832917706,0.02479314659591904,
0.06698254364089776,0.02188091530726921,
0.06703241895261845,-0.021872189845783513,
0.06708229426433915,0.011586638242727678,
0.06713216957605984,-0.00889001217736975,
0.06718204488778055,-0.0005460965740833386,
0.06723192019950125,-0.016848491164122258,
0.06728179551122195,-0.002154367205769751,
0.06733167082294264,-0.009960631753632819,
0.06738154613466334,-0.008388986057703364,
0.06743142144638405,-0.009923653368354117,
0.06748129675810474,0.02355410765125383,
0.06753117206982544,0.000280275696948459,
0.06758104738154613,-0.00564064494742398,
0.06763092269326683,0.01808730672932074,
0.06768079800498752,-0.03276003784704334,
0.06773067331670823,-0.007626666103301551,
0.06778054862842893,-0.016209547928305763,
0.06783042394014963,-0.022542357743777493,
0.06788029925187032,0.004952384824401943,
0.06793017456359102,0.0034354449811034053,
0.06798004987531173,-0.011548814072947356,
0.06802992518703242,0.007950743925405727,
0.06807980049875312,0.010390922540307036,
0.06812967581047381,-0.013038731680143446,
0.06817955112219451,0.001618489632712672,
0.0682294264339152,-0.030332910364735833,
0.06827930174563591,-0.021125023815238723,
0.06832917705735661,-0.003618618692862486,
0.0683790523690773,-0.025379168057419504,
0.068428927680798,0.015496800193332886,
0.0684788029925187,-0.04746063272110125,
0.06852867830423941,-0.013986697493441561,
0.0685785536159601,-0.00019001529263395524,
0.0686284289276808,-0.010963342541147128,
0.0686783042394015,0.003984440567229283,
0.06872817955112219,-0.015427098131881093,
0.0687780548628429,0.002379682511843473,
0.0688279301745636,-0.02419035940865318,
0.06887780548628429,-0.004331386408345951,
0.06892768079800499,0.01054119863826139,
0.06897755610972568,-0.0024200703768151224,
0.06902743142144638,-0.009741563540308123,
0.06907730673316709,-0.009158571676845582,
0.06912718204488778,-0.01356319076121354,
0.06917705735660848,-0.02148728642313586,
0.06922693266832917,-0.023681214976256793,
0.06927680798004987,0.011793437902278008,
0.06932668329177058,-0.00465715575522753,
0.06937655860349128,-0.013816520516140263,
0.06942643391521197,-0.036908855267618085,
0.06947630922693267,0.007993131691043168,
0.06952618453865336,-0.00720267989540519,
0.06957605985037406,0.0026281631279022003,
0.06962593516209477,-0.011311323876446261,
0.06967581047381546,-0.001553138780884658,
0.06972568578553616,0.011672562663132421,
0.06977556109725686,-0.008139714210795953,
0.06982543640897755,0.008739867711068165,
0.06987531172069826,-0.007413236102986719,
0.06992518703241896,-0.024490739378757218,
0.06997506234413965,-0.02598870113117673,
0.07002493765586035,-0.020897804031066,
0.07007481296758104,-0.011384607103519299,
0.07012468827930174,-0.011171437886812602,
0.07017456359102245,-0.027406971147883152,
0.07022443890274314,-0.0394958695752855,
0.07027431421446384,-0.03002252516008643,
0.07032418952618454,-0.027291225564161893,
0.07037406483790523,-0.010463423467994056,
0.07042394014962594,-0.018123189146002437,
0.07047381546134664,0.0004014405092583259,
0.07052369077306733,-0.03089667525417507,
0.07057356608478803,-0.024303181626492944,
0.07062344139650872,-0.014989280755032742,
0.07067331670822943,-0.03940986028542041,
0.07072319201995013,0.016858422617921875,
0.07077306733167082,-0.003950306875199252,
0.07082294264339152,-0.018149504400601254,
0.07087281795511222,-0.01575944042984552,
0.07092269326683291,-0.018201592950644815,
0.07097256857855362,-0.017147128808814888,
0.07102244389027432,-0.006679813096258334,
0.07107231920199501,0.012936017577994691,
0.07112219451371571,-0.003155922774064889,
0.0711720698254364,-0.024251229273005808,
0.07122194513715711,-0.016644275407381608,
0.07127182044887781,-0.023438012379215736,
0.0713216957605985,-0.03048876653181197,
0.0713715710723192,-0.0083953915195962,
0.0714214463840399,-0.011510046610473565,
0.07147132169576059,-0.018149414873868834,
0.0715211970074813,-0.016836330423295943,
0.071571072319202,0.003103108592014986,
0.0716209476309227,-0.03559754369173105,
0.07167082294264339,-0.01121494375614317,
0.07172069825436408,-0.0020248704641457616,
0.0717705735660848,-0.02611449258042877,
0.07182044887780549,0.004749751151438235,
0.07187032418952619,-0.023218357276739723,
0.07192019950124688,-0.02682595476267577,
0.07197007481296758,-0.03697241782454479,
0.07201995012468827,-0.03642383960801332,
0.07206982543640898,-0.032921484342148796,
0.07211970074812968,-0.037033608990180406,
0.07216957605985037,-0.03669509564759192,
0.07221945137157107,0.010611961021460418,
0.07226932668329177,-0.008576989760280852,
0.07231920199501247,-0.017404553156849245,
0.07236907730673317,-0.011293957129581962,
0.07241895261845387,-0.023160181337847932,
0.07246882793017456,0.0009036970907990976,
0.07251870324189526,0.01388078107252156,
0.07256857855361595,-0.02894390331734704,
0.07261845386533666,-0.0029830933091057315,
0.07266832917705736,-0.00984727383108802,
0.07271820448877805,-0.014222542124686039,
0.07276807980049875,0.0009500794098953567,
0.07281795511221945,0.0026420694161367365,
0.07286783042394016,-0.004045685295410916,
0.07291770573566085,-0.027310245702214086,
0.07296758104738155,-0.011318765754737897,
0.07301745635910224,-0.004641363548916839,
0.07306733167082294,-0.0072835267046674765,
0.07311720698254365,-0.010460400308685665,
0.07316708229426434,-0.0050140475507436605,
0.07321695760598504,-0.01586986336657876,
0.07326683291770573,-0.016378380312458522,
0.07331670822942643,0.026812618620446555,
0.07336658354114713,-0.01371020269914025,
0.07341645885286784,-0.029463810653145985,
0.07346633416458853,0.008829863507624132,
0.07351620947630923,-0.01839655548849472,
0.07356608478802992,0.0012448511886438193,
0.07361596009975062,-0.013414975567116027,
0.07366583541147133,-0.007340982673457482,
0.07371571072319202,-0.01850564651427972,
0.07376558603491272,0.008755425598103182,
0.07381546134663342,0.005264911355355021,
0.07386533665835411,-0.02486009957541595,
0.0739152119700748,-0.00445790339640479,
0.07396508728179552,0.0006481351988620598,
0.07401496259351621,-0.03467701416116389,
0.07406483790523691,0.016280663954315374,
0.0741147132169576,-0.028028267345772486,
0.0741645885286783,0.013389719371589885,
0.07421446384039901,0.0016734912005328386,
0.0742643391521197,-0.008329991345913413,
0.0743142144638404,0.008807146339285758,
0.0743640897755611,-0.02944922894926353,
0.07441396508728179,-0.006057690789428624,
0.07446384039900249,-0.013511971663437376,
0.0745137157107232,0.0031663387867432594,
0.07456359102244389,-0.01388958557752783,
0.07461346633416459,-0.010383032396136062,
0.07466334164588528,0.0018515342806283688,
0.07471321695760598,-0.030483921218918446,
0.07476309226932669,-0.0037601091963817487,
0.07481296758104738,-0.007205153533482292,
0.07486284289276808,-0.013034771517656649,
0.07491271820448878,0.005685986052264929,
0.07496259351620947,0.016321413611272297,
0.07501246882793017,0.0036140412082669975,
0.07506234413965088,-0.0034770204079847865,
0.07511221945137157,-0.017272568889797103,
0.07516209476309227,-0.0016010265201970258,
0.07521197007481296,-0.006086869547355962,
0.07526184538653366,0.03661755988561746,
0.07531172069825437,0.007438161475688688,
0.07536159600997507,0.002330041469835392,
0.07541147132169576,0.0008061505053050394,
0.07546134663341646,0.011183275485056134,
0.07551122194513715,0.013322695632532897,
0.07556109725685786,0.0027036624765055294,
0.07561097256857856,0.007789247779613633,
0.07566084788029925,-0.021965922391226998,
0.07571072319201995,-0.011392586629549777,
0.07576059850374064,0.012288383010531393,
0.07581047381546134,0.0041984258205042336,
0.07586034912718205,-0.004165452321625184,
0.07591022443890275,0.009423802887749504,
0.07596009975062344,0.004016904359351938,
0.07600997506234414,0.021242956262580905,
0.07605985037406483,-0.0013710373944214004,
0.07610972568578554,-0.011631324986195922,
0.07615960099750624,0.003041871588918949,
0.07620947630922693,-0.009542334702182416,
0.07625935162094763,0.003916231533711586,
0.07630922693266833,0.020906381946779483,
0.07635910224438902,0.0045016304335738465,
0.07640897755610973,0.005227674450699004,
0.07645885286783043,0.0015092744651960446,
0.07650872817955112,0.008808069581581694,
0.07655860349127182,0.010755937010017395,
0.07660847880299251,0.015653697777871983,
0.07665835411471322,0.014957355157614621,
0.07670822942643392,0.00910658736024348,
0.07675810473815461,0.01820148882692334,
0.07680798004987531,0.020794508868287848,
0.076857855361596,-0.014823190922053572,
0.0769077306733167,0.02137178525953845,
0.07695760598503741,0.02798569646222027,
0.0770074812967581,0.023166602725305005,
0.0770573566084788,0.00880147601573131,
0.0771072319201995,0.024304956010843315,
0.0771571072319202,0.03600569553865986,
0.0772069825436409,-0.0013519196557174491,
0.0772568578553616,0.01697244452770112,
0.0773067331670823,0.007560614011233694,
0.07735660847880299,0.003584336237218478,
0.07740648379052369,0.017457364464157143,
0.0774563591022444,0.03324070253591413,
0.07750623441396509,0.02064894948632906,
0.07755610972568579,0.015925088136263733,
0.07760598503740648,-0.0033173701733249517,
0.07765586034912718,0.04540283793116762,
0.07770573566084787,0.00271834603342966,
0.07775561097256858,0.003202093882952943,
0.07780548628428928,0.00865567454405456,
0.07785536159600998,0.010850426747704065,
0.07790523690773067,-0.006847974387905697,
0.07795511221945137,-0.0010699587404955774,
0.07800498753117208,0.036707747383383955,
0.07805486284289277,0.03134507964659762,
0.07810473815461347,0.016921824112075302,
0.07815461346633416,0.027374194186699258,
0.07820448877805486,0.02329023154463825,
0.07825436408977555,0.03962956882360237,
0.07830423940149626,0.017652392310389287,
0.07835411471321696,0.010706151467401252,
0.07840399002493766,0.038377453594492815,
0.07845386533665835,-0.005643221340428228,
0.07850374064837905,0.0399347257721112,
0.07855361596009976,0.010525146591236646,
0.07860349127182045,0.016819621620674748,
0.07865336658354115,0.012645001219115392,
0.07870324189526184,0.008785223352191257,
0.07875311720698254,0.029236194440056318,
0.07880299251870324,0.0270416545249835,
0.07885286783042394,0.008788251741549239,
0.07890274314214464,-0.032543628846737005,
0.07895261845386534,0.013405490071376557,
0.07900249376558603,0.005078864793168856,
0.07905236907730673,0.05655272846134485,
0.07910224438902744,0.0036678782835989944,
0.07915211970074813,0.04365114492783385,
0.07920199501246883,0.014692539289532496,
0.07925187032418952,-0.0021388856530348936,
0.07930174563591022,0.005583944504904802,
0.07935162094763092,0.03898379649448431,
0.07940149625935163,-0.00413423004978963,
0.07945137157107232,0.044915872263959156,
0.07950124688279302,-0.016132757019072554,
0.07955112219451371,0.023623619524187484,
0.07960099750623441,0.004326478373841258,
0.07965087281795512,-0.020221206315414048,
0.07970074812967581,0.04142868268615474,
0.07975062344139651,0.013786533254926172,
0.0798004987531172,0.012861232981587594,
0.0798503740648379,0.016200124124094856,
0.07990024937655861,0.00489404362940855,
0.0799501246882793,0.0397642269229383,
0.08,0.007106794093862712,
0.0800498753117207,0.016057797287579275,
0.0800997506234414,0.009846544356104684,
0.08014962593516209,0.04301454117451896,
0.0801995012468828,0.021454774917602244,
0.0802493765586035,0.02068949852395626,
0.08029925187032419,0.02953118378571124,
0.08034912718204489,0.017275804488829007,
0.08039900249376558,0.025772510481785728,
0.08044887780548629,0.053567188620796194,
0.08049875311720699,0.024748319872413237,
0.08054862842892768,0.016877621696589788,
0.08059850374064838,0.03102211358985309,
0.08064837905236907,0.003473223931244711,
0.08069825436408977,0.03752588272213221,
0.08074812967581048,0.00761105247307254,
0.08079800498753117,0.03422230921849432,
0.08084788029925187,0.01236680516303591,
0.08089775561097257,0.036307761834189066,
0.08094763092269326,0.05073206631515631,
0.08099750623441397,0.02256835452884247,
0.08104738154613467,0.0232330051839671,
0.08109725685785536,0.025652865511687765,
0.08114713216957606,0.04511242585185461,
0.08119700748129675,0.021749444110106347,
0.08124688279301745,0.03316297051684323,
0.08129675810473816,0.021900206545707165,
0.08134663341645886,0.04792217714217957,
0.08139650872817955,0.033029357655263755,
0.08144638403990025,0.02516725203390515,
0.08149625935162094,0.017488526823233486,
0.08154613466334165,0.012755202867638166,
0.08159600997506235,0.01046858738615086,
0.08164588528678304,0.021239982078066766,
0.08169576059850374,0.013185325466149915,
0.08174563591022443,0.005314232901577582,
0.08179551122194513,0.044842679661076676,
0.08184538653366584,0.007556430775014104,
0.08189526184538654,0.04458054824869241,
0.08194513715710723,0.034475783336113626,
0.08199501246882793,0.030136593098781344,
0.08204488778054862,0.01224676488271928,
0.08209476309226933,0.012276737459528154,
0.08214463840399003,0.01820389112826375,
0.08219451371571072,0.011636266227735989,
0.08224438902743142,0.03951505261326965,
0.08229426433915212,0.013823681231282638,
0.08234413965087282,0.02320338502119574,
0.08239401496259352,0.014065945252379775,
0.08244389027431422,0.03817458032274136,
0.08249376558603491,0.037561357433074136,
0.08254364089775561,0.01951496270443472,
0.0825935162094763,0.02653323421839971,
0.08264339152119701,0.02853951841228557,
0.08269326683291771,0.028299689510859906,
0.0827431421446384,0.03899780954414975,
0.0827930174563591,0.061407107006808626,
0.0828428927680798,0.0021996318406425144,
0.0828927680798005,0.022324720119875824,
0.0829426433915212,0.0389610615580917,
0.0829925187032419,0.018109079054806118,
0.08304239401496259,0.0491378828887086,
0.08309226932668329,0.012883423064262049,
0.08314214463840398,0.0368033575671583,
0.0831920199501247,-0.002852244306589452,
0.08324189526184539,0.034982754807128175,
0.08329177057356608,0.008500546914418362,
0.08334164588528678,0.012402978205701918,
0.08339152119700748,0.015951250608985047,
0.08344139650872819,0.023693139091279777,
0.08349127182044888,0.021376692374303945,
0.08354114713216958,0.016132788884971515,
0.08359102244389027,0.000433927422300983,
0.08364089775561097,0.004554079545574467,
0.08369077306733166,0.01902366650821995,
0.08374064837905237,0.011016998041462509,
0.08379052369077307,-0.005529874615871681,
0.08384039900249377,0.03240433032759044,
0.08389027431421446,0.01587227282619909,
0.08394014962593516,0.05376894575951448,
0.08399002493765587,0.02514914774392439,
0.08403990024937656,0.010490574655167322,
0.08408977556109726,0.04617983836216928,
0.08413965087281795,-0.00773687761856626,
0.08418952618453865,0.03745651431398608,
0.08423940149625936,-0.0005307598686267838,
0.08428927680798005,0.017584923166675502,
0.08433915211970075,0.02101722726339814,
0.08438902743142145,0.028611733117630267,
0.08443890274314214,0.02535938334123791,
0.08448877805486284,-0.0025903558630293397,
0.08453865336658355,0.005982266481249502,
0.08458852867830424,0.015775822261912934,
0.08463840399002494,0.010389555327189489,
0.08468827930174563,-0.015138810207066495,
0.08473815461346633,0.0358729331818844,
0.08478802992518704,-0.0019361481553334357,
0.08483790523690773,0.009873051801538957,
0.08488778054862843,0.01059780812639208,
0.08493765586034913,0.012167342893818031,
0.08498753117206982,0.02004278828932407,
0.08503740648379052,-0.015677185763492866,
0.08508728179551123,0.000907737257197656,
0.08513715710723192,0.025501828245070225,
0.08518703241895262,0.007271967464459941,
0.08523690773067331,-0.004045376230441097,
0.08528678304239401,-0.019700502784303436,
0.08533665835411472,0.013907742145707995,
0.08538653366583542,0.023217890062857682,
0.08543640897755611,-0.004714027339096373,
0.0854862842892768,0.0029320774246773453,
0.0855361596009975,-0.0012671358526938816,
0.0855860349127182,0.005129900177123048,
0.08563591022443891,-0.009743047075371138,
0.0856857855361596,0.017568000602547783,
0.0857356608478803,0.022912398046986963,
0.085785536159601,0.012193517530855746,
0.08583541147132169,0.008431663597479423,
0.0858852867830424,0.003851321855156046,
0.0859351620947631,0.03790094570572551,
0.08598503740648379,0.039423474947821044,
0.08603491271820449,0.0011021733967228756,
0.08608478802992518,0.01406240069750214,
0.08613466334164588,0.024235249824601186,
0.08618453865336659,0.012083047152555204,
0.08623441396508728,-0.025100626507392986,
0.08628428927680798,-0.015141692916413967,
0.08633416458852868,-0.002198742729238248,
0.08638403990024937,0.005513643128791161,
0.08643391521197008,0.04032736165476544,
0.08648379052369078,-0.031449020657001774,
0.08653366583541147,0.014186617504270721,
0.08658354114713217,0.0033364133264921925,
0.08663341645885286,0.014345998537564821,
0.08668329177057357,0.006239918734316391,
0.08673316708229427,-0.013432913044402188,
0.08678304239401496,0.0036959703523552915,
0.08683291770573566,-0.0020359593545629046,
0.08688279301745636,-0.015317538200294281,
0.08693266832917705,-0.007728363692887519,
0.08698254364089776,0.016877081856649136,
0.08703241895261846,-0.0032797671099383274,
0.08708229426433915,0.015237082384623655,
0.08713216957605985,-0.000532215505436768,
0.08718204488778054,0.02092571575084478,
0.08723192019950125,-0.02722441090698165,
0.08728179551122195,-0.012378752855639817,
0.08733167082294264,0.002779733304547576,
0.08738154613466334,0.003653661182591008,
0.08743142144638404,-0.008128999305732049,
0.08748129675810473,-0.020145531103751897,
0.08753117206982544,0.0023901955269072604,
0.08758104738154614,0.017921853513300102,
0.08763092269326683,-0.014429716004777613,
0.08768079800498753,-0.02188523475124212,
0.08773067331670822,-0.020734830736265218,
0.08778054862842893,0.007321402316974797,
0.08783042394014963,0.014686720657071814,
0.08788029925187033,0.01392724112259101,
0.08793017456359102,0.0023934499608676317,
0.08798004987531172,-0.004743731332861677,
0.08802992518703241,0.01646489272957989,
0.08807980049875312,-0.009667129012528933,
0.08812967581047382,-0.00650539989912863,
0.08817955112219451,-0.0033972272394747712,
0.08822942643391521,-0.023998974623587098,
0.0882793017456359,-0.0006234689764341092,
0.08832917705735661,-0.017815303424208905,
0.08837905236907731,0.019227876232918432,
0.088428927680798,0.0005268574322554558,
0.0884788029925187,-0.010319795504197034,
0.0885286783042394,-0.021246224183920203,
0.0885785536159601,-0.017697260153668508,
0.0886284289276808,-0.004991629975137097,
0.0886783042394015,-0.009632573857172307,
0.0887281795511222,-0.02947148450251344,
0.08877805486284289,-0.011893605704981861,
0.08882793017456359,-0.00041983562361282666,
0.0888778054862843,0.002881076025899343,
0.08892768079800499,-0.014996345382304908,
0.08897755610972569,-0.004288914683356232,
0.08902743142144638,-0.021977057041896314,
0.08907730673316708,-0.024871442263254728,
0.08912718204488779,-0.021353675561545236,
0.08917705735660848,-0.004696367158840936,
0.08922693266832918,-0.027090265178354295,
0.08927680798004987,-0.006067525990734203,
0.08932668329177057,0.013080493670648388,
0.08937655860349127,-0.00971748909243685,
0.08942643391521198,-0.01455744692695745,
0.08947630922693267,-0.007889935240016707,
0.08952618453865337,-0.0120126292553937,
0.08957605985037406,-0.006210423769267674,
0.08962593516209476,-0.028804056580340097,
0.08967581047381547,0.01039668653329293,
0.08972568578553616,-0.04002069925613749,
0.08977556109725686,-0.005369086911891542,
0.08982543640897755,-0.006469940183492471,
0.08987531172069825,-0.02953216093497854,
0.08992518703241895,-0.048012891164223935,
0.08997506234413966,-0.02784349892691539,
0.09002493765586035,-0.0027565756966189577,
0.09007481296758105,-0.014118501797940292,
0.09012468827930174,-0.013950953433904466,
0.09017456359102244,0.0041743329111282364,
0.09022443890274315,-0.016013885027273793,
0.09027431421446384,-0.038480697268630404,
0.09032418952618454,-0.03178097224933439,
0.09037406483790524,-0.027965517823179867,
0.09042394014962593,-0.025566165706553054,
0.09047381546134663,-0.030600569626954628,
0.09052369077306734,-0.030003954175843353,
0.09057356608478803,-0.010598910463754285,
0.09062344139650873,-0.03958785606850747,
0.09067331670822942,-0.02035457916715142,
0.09072319201995012,-0.003788037867757303,
0.09077306733167083,-0.007451639826694,
0.09082294264339152,-0.0021933849332565966,
0.09087281795511222,-0.04435035048623877,
0.09092269326683292,-0.010140560831475102,
0.09097256857855361,-0.024227007602085484,
0.09102244389027432,-0.01464019118347101,
0.09107231920199502,-0.0029506313991117476,
0.09112219451371571,-0.01142869795911015,
0.09117206982543641,0.0010520581082245802,
0.0912219451371571,-0.037958590612314186,
0.0912718204488778,-0.009912711965004966,
0.09132169576059851,0.016459385758215487,
0.0913715710723192,-0.013385726922820067,
0.0914214463840399,-0.044320711535123514,
0.0914713216957606,-0.02362523142842821,
0.09152119700748129,-0.0142392376042558,
0.091571072319202,-0.013915055097591644,
0.0916209476309227,0.01693958938240788,
0.09167082294264339,0.02349649568852757,
0.09172069825436409,-0.02060379161519043,
0.09177057356608478,-0.009979255990595556,
0.09182044887780548,-0.016646226393115325,
0.09187032418952619,-0.01315776998623074,
0.09192019950124689,-0.028610107626045465,
0.09197007481296758,-0.01672948911699857,
0.09201995012468828,-0.009083033353881156,
0.09206982543640897,-0.0016590826070295873,
0.09211970074812968,-0.023551186438783615,
0.09216957605985038,-0.013816942319104443,
0.09221945137157107,-0.021482518424681324,
0.09226932668329177,-0.014692504100155943,
0.09231920199501246,0.015394193849693268,
0.09236907730673316,-0.0026738298467733537,
0.09241895261845387,-0.017904126065710516,
0.09246882793017457,-0.025564949277494246,
0.09251870324189526,-0.03167412599871638,
0.09256857855361596,0.002711430878963257,
0.09261845386533665,-0.004460341910616666,
0.09266832917705736,-0.0006269638429853286,
0.09271820448877806,-0.036440560102382585,
0.09276807980049875,-0.029828150208619997,
0.09281795511221945,-0.013793596174213758,
0.09286783042394015,-0.0020134635942073943,
0.09291770573566084,-0.012513027577914145,
0.09296758104738155,-0.029695936410388417,
0.09301745635910225,-0.02836454518547092,
0.09306733167082294,1.1567542552904167e-05,
0.09311720698254364,-0.024785481184051855,
0.09316708229426433,0.002291474246708062,
0.09321695760598504,-0.018652609944331128,
0.09326683291770574,-0.008331262946443985,
0.09331670822942643,-0.005605503902924634,
0.09336658354114713,-0.0020957218469876077,
0.09341645885286783,0.007747246209897832,
0.09346633416458854,0.018901383420749804,
0.09351620947630923,-0.01655763737437592,
0.09356608478802993,-0.010362243048738356,
0.09361596009975062,0.0009184520634384517,
0.09366583541147132,0.017975395853801916,
0.09371571072319201,0.010127336159780242,
0.09376558603491272,-0.0012718596111223656,
0.09381546134663342,0.005643116395552018,
0.09386533665835411,0.000948006798700371,
0.09391521197007481,-0.01813452241930492,
0.0939650872817955,0.004870295204853641,
0.09401496259351622,-0.005236393676647275,
0.09406483790523691,-0.005273443007731725,
0.09411471321695761,0.0009897541891354198,
0.0941645885286783,-0.010329277935600931,
0.094214463840399,-0.0017309443542277384,
0.0942643391521197,-0.0122225578325149,
0.0943142144638404,-0.02209872590932395,
0.0943640897755611,-0.020716227168073514,
0.0944139650872818,-0.012651122914977858,
0.09446384039900249,-0.008795599873024487,
0.09451371571072319,-0.0016481107746956585,
0.0945635910224439,-0.007111969011087373,
0.09461346633416459,-0.006539255651782772,
0.09466334164588529,0.006521595183430654,
0.09471321695760598,0.000559707006489396,
0.09476309226932668,-0.0019235637390119234,
0.09481296758104737,0.007935884345183213,
0.09486284289276808,-0.015554700130151148,
0.09491271820448878,0.0030818035355687366,
0.09496259351620948,-0.02527557521951882,
0.09501246882793017,0.011769930470675125,
0.09506234413965087,-0.02222726043654813,
0.09511221945137158,-0.005898691609378033,
0.09516209476309227,-0.017743339559534076,
0.09521197007481297,0.014489202443670376,
0.09526184538653366,9.138207675229689e-05,
0.09531172069825436,-0.008614600299245836,
0.09536159600997507,-0.0069848825393954645,
0.09541147132169576,0.01719373452291088,
0.09546134663341646,0.003147571951132388,
0.09551122194513716,0.00469281832291242,
0.09556109725685785,0.01450162652402589,
0.09561097256857855,0.003544227052810701,
0.09566084788029926,0.00996136413221746,
0.09571072319201995,0.009412030767091132,
0.09576059850374065,0.0008493427995170683,
0.09581047381546134,0.0024870670172090583,
0.09586034912718204,-0.017250024427819595,
0.09591022443890275,0.03881616650721767,
0.09596009975062345,-0.003178868779265093,
0.09600997506234414,0.003615157967702093,
0.09605985037406484,0.02132219759694463,
0.09610972568578553,0.004795448235506103,
0.09615960099750623,0.0171587111320898,
0.09620947630922694,-0.005898505906295192,
0.09625935162094763,0.013882613523679359,
0.09630922693266833,-0.007989699381438528,
0.09635910224438902,0.013599909138726368,
0.09640897755610972,0.027421139716106574,
0.09645885286783043,0.017542735888739065,
0.09650872817955113,-0.01637694624953401,
0.09655860349127182,0.013879266035014305,
0.09660847880299252,0.02054955438676615,
0.09665835411471321,0.005300857871830176,
0.09670822942643391,0.03989923968426408,
0.09675810473815462,0.025111932209309247,
0.09680798004987531,-0.0011328886958811586,
0.09685785536159601,0.011072110713859433,
0.0969077306733167,0.010203367871051087,
0.0969576059850374,0.011041499817228751,
0.09700748129675811,0.01954614043790132,
0.0970573566084788,0.019938792234033522,
0.0971072319201995,0.042650850809440546,
0.0971571072319202,0.019831023484976253,
0.0972069825436409,0.0173352922273641,
0.09725685785536159,0.03534779486926549,
0.0973067331670823,0.04928989662711714,
0.097356608478803,0.005351183754910709,
0.09740648379052369,0.016575030387021083,
0.09745635910224439,0.003977516997437544,
0.09750623441396508,0.021762206463673356,
0.09755610972568579,0.02418623465694253,
0.09760598503740649,0.02192141013867665,
0.09765586034912718,0.010903922771730613,
0.09770573566084788,0.02421072275717621,
0.09775561097256857,0.02451897355794637,
0.09780548628428928,0.01115603514460212,
0.09785536159600998,0.03624877412162393,
0.09790523690773068,0.01788487411265485,
0.09795511221945137,0.012200272585144124,
0.09800498753117207,0.021894683315172976,
0.09805486284289276,0.02941929617118401,
0.09810473815461347,0.007301770024310079,
0.09815461346633417,0.036338850684807154,
0.09820448877805486,0.022027919778062663,
0.09825436408977556,0.006621189130618144,
0.09830423940149625,0.005510981085437306,
0.09835411471321696,0.006650158998551545,
0.09840399002493766,0.011340297658907563,
0.09845386533665836,0.01763209669715958,
0.09850374064837905,0.020384499689674727,
0.09855361596009975,0.04303766328649425,
0.09860349127182044,0.046205245325611044,
0.09865336658354115,0.018434112976168756,
0.09870324189526185,0.033914742534030665,
0.09875311720698254,0.01826784665238732,
0.09880299251870324,0.006943417133316792,
0.09885286783042393,0.03297537470980771,
0.09890274314214464,-3.8130862768707974e-05,
0.09895261845386534,0.03170928310152079,
0.09900249376558604,0.026108162871118046,
0.09905236907730673,0.05094179847124153,
0.09910224438902743,0.018969365314720373,
0.09915211970074812,0.014237971208200119,
0.09920199501246883,0.0074379253615065415,
0.09925187032418953,0.030832567020880358,
0.09930174563591022,0.04184629463370327,
0.09935162094763092,0.0030400154502381906,
0.09940149625935162,0.032636617113647605,
0.09945137157107233,0.025725867436108957,
0.09950124688279302,0.034975216642971055,
0.09955112219451372,0.020648440297487747,
0.09960099750623441,0.02171403084860921,
0.09965087281795511,0.036682873056331666,
0.0997007481296758,0.021513559437548548,
0.09975062344139651,0.022592530724157272,
0.09980049875311721,0.0345373117001081,
0.0998503740648379,0.017950125406010327,
0.0999002493765586,0.023724002441447456,
0.0999501246882793,-0.0068253510203530425,
0.1,0.03075202113069374,
0.1000498753117207,0.03595685184761329,
0.1000997506234414,0.04097003142758633,
0.10014962593516209,0.039232624224550414,
0.10019950124688279,0.02844723793915334,
0.1002493765586035,0.053325269274589554,
0.1002992518703242,0.044664009156436674,
0.10034912718204489,0.02096589036578321,
0.10039900249376559,0.01191025851381599,
0.10044887780548628,0.01623439478031306,
0.10049875311720698,0.045998253634777,
0.10054862842892769,0.04119375794251021,
0.10059850374064838,-0.0028530098796140206,
0.10064837905236908,0.028730521988439395,
0.10069825436408977,0.05254743012427841,
0.10074812967581047,0.034835989422585055,
0.10079800498753118,0.009292490900016496,
0.10084788029925187,0.03908551866886653,
0.10089775561097257,0.017064309009400085,
0.10094763092269327,0.037171258843153115,
0.10099750623441396,0.0415423058048348,
0.10104738154613466,0.017677734108453264,
0.10109725685785537,0.03571310728019987,
0.10114713216957606,0.03781646870177328,
0.10119700748129676,0.023424712211707395,
0.10124688279301745,0.044380416795341146,
0.10129675810473815,0.03753092610066651,
0.10134663341645886,0.02592774768679931,
0.10139650872817955,0.04026019820332299,
0.10144638403990025,0.018865530165230522,
0.10149625935162095,0.040244440787385406,
0.10154613466334164,0.03659726056034326,
0.10159600997506234,0.019825852098367392,
0.10164588528678305,0.03715855567405345,
0.10169576059850374,0.029506676608535093,
0.10174563591022444,0.017352107148029337,
0.10179551122194513,0.001810716567305224,
0.10184538653366583,0.036688327570497184,
0.10189526184538654,0.03641443682436793,
0.10194513715710724,0.01209991395384826,
0.10199501246882793,0.02983411189639958,
0.10204488778054863,0.008549967042895623,
0.10209476309226932,0.05175266646649676,
0.10214463840399003,0.045319193233881144,
0.10219451371571073,0.042533566621920524,
0.10224438902743142,0.01560792831469483,
0.10229426433915212,0.03830121898987465,
0.10234413965087281,0.017751991819469445,
0.10239401496259351,0.03283491069733867,
0.10244389027431422,0.020559052819636797,
0.10249376558603492,0.034776195992153695,
0.10254364089775561,-0.005028555963957196,
0.10259351620947631,0.0005858449134901432,
0.102643391521197,0.005601769289350543,
0.10269326683291771,0.050150530854644416,
0.10274314214463841,0.03238047019959242,
0.1027930174563591,-0.005941994214271159,
0.1028428927680798,0.01034116275975596,
0.1028927680798005,0.019065518616995215,
0.10294264339152119,0.010369260699526973,
0.1029925187032419,0.026493647316245053,
0.1030423940149626,0.048572543044557624,
0.10309226932668329,-0.00975034606873916,
0.10314214463840399,0.027112811874175736,
0.10319201995012468,0.008914688578221874,
0.10324189526184539,0.02369607155156345,
0.10329177057356609,0.026593440225641706,
0.10334164588528678,0.029091530641118805,
0.10339152119700748,0.03468094528897192,
0.10344139650872818,0.02949750834961838,
0.10349127182044887,0.031471144315231195,
0.10354114713216958,0.01911174619667212,
0.10359102244389028,0.01781440216692421,
0.10364089775561097,0.02836475305435686,
0.10369077306733167,0.024456873779557173,
0.10374064837905236,0.006852760158521678,
0.10379052369077307,0.019930780777852028,
0.10384039900249377,0.023236472771633952,
0.10389027431421446,0.037149910425306985,
0.10394014962593516,0.036163358944867274,
0.10399002493765586,0.03687690459440853,
0.10403990024937655,0.0026576719060170118,
0.10408977556109726,-0.00543378513851097,
0.10413965087281796,0.030352994244412956,
0.10418952618453865,0.026081061953420442,
0.10423940149625935,-0.020099435323618405,
0.10428927680798004,0.03136941268905348,
0.10433915211970075,0.014893603561761653,
0.10438902743142145,0.027303462348209562,
0.10443890274314215,0.03710437302012286,
0.10448877805486284,0.02310819166159454,
0.10453865336658354,0.026733923385637237,
0.10458852867830425,0.003952127411517674,
0.10463840399002494,-0.017207543306453382,
0.10468827930174564,0.043932421241345554,
0.10473815461346633,0.008207893541178984,
0.10478802992518703,0.009784671437947992,
0.10483790523690772,0.014681965644921045,
0.10488778054862843,0.019278542896994433,
0.10493765586034913,0.014523105405281046,
0.10498753117206983,0.0030851575487489333,
0.10503740648379052,0.04810087099780444,
0.10508728179551122,0.02222282590526889,
0.10513715710723193,0.021705588945698247,
0.10518703241895262,0.035362853347370465,
0.10523690773067332,0.014730755625056807,
0.10528678304239401,0.035443105557529705,
0.10533665835411471,0.0027868990447660856,
0.1053865336658354,0.0033435651116237013,
0.10543640897755611,0.020140219556647354,
0.10548628428927681,-0.00040955246217827534,
0.1055361596009975,0.0130957583338733,
0.1055860349127182,0.005743359657439923,
0.1056359102244389,0.007605476872268711,
0.10568578553615961,0.0007213998338101088,
0.1057356608478803,-0.00393456630726134,
0.105785536159601,0.006443283799078183,
0.1058354114713217,0.021061477456564937,
0.10588528678304239,0.017316574568500095,
0.10593516209476309,-0.007997286293271863,
0.1059850374064838,0.015577019855482892,
0.10603491271820449,-0.009435805583039525,
0.10608478802992519,0.02279166416951136,
0.10613466334164588,0.025627871426807607,
0.10618453865336658,0.0011475890421166974,
0.10623441396508729,0.0075229846637877235,
0.10628428927680798,-0.002626824885578565,
0.10633416458852868,-0.0003587337981556934,
0.10638403990024937,0.009823520150013424,
0.10643391521197007,-0.02115796983373233,
0.10648379052369077,-0.004272300726835678,
0.10653366583541148,-0.00862198373070584,
0.10658354114713217,0.005946199579627196,
0.10663341645885287,-0.007591800182289273,
0.10668329177057356,0.0037397947493425657,
0.10673316708229426,0.0302139875682613,
0.10678304239401497,-0.003519609712503094,
0.10683291770573566,0.03739189199493238,
0.10688279301745636,0.011482140728467144,
0.10693266832917706,-0.007545320097852305,
0.10698254364089775,0.004540170267575852,
0.10703241895261846,-0.010503725333531711,
0.10708229426433916,-0.0066322445059420615,
0.10713216957605985,0.00017108184287646915,
0.10718204488778055,0.0034992253509742695,
0.10723192019950124,0.0006048729649319635,
0.10728179551122194,-0.03258147141132382,
0.10733167082294265,0.008039842355459802,
0.10738154613466334,0.005508802194962617,
0.10743142144638404,-0.02122627597426577,
0.10748129675810474,-0.019861694804064935,
0.10753117206982543,0.0037539423290124455,
0.10758104738154614,0.020242212638463042,
0.10763092269326684,-0.0032377044723753464,
0.10768079800498753,-0.00591854382733884,
0.10773067331670823,-0.006820416656436913,
0.10778054862842892,0.006869735684168338,
0.10783042394014962,0.02471359022478618,
0.10788029925187033,0.0011062363040593827,
0.10793017456359102,0.012315658284030119,
0.10798004987531172,-0.026932453352231732,
0.10802992518703242,0.01289004849570193,
0.10807980049875311,-8.89370995754632e-05,
0.10812967581047382,0.021542725508528614,
0.10817955112219452,0.019439260854952994,
0.10822942643391521,0.0021560545539539558,
0.10827930174563591,-0.02319674252914304,
0.1083291770573566,-0.008469587177828744,
0.1083790523690773,-0.013159458398264485,
0.10842892768079801,0.0023895151751433044,
0.1084788029925187,-0.0072310458634911295,
0.1085286783042394,-0.01132314370612945,
0.1085785536159601,0.01054403342147188,
0.10862842892768079,-0.012821077844202843,
0.1086783042394015,-0.013669369928871886,
0.1087281795511222,-0.020578348211414493,
0.1087780548628429,-0.011428617962615451,
0.10882793017456359,-0.0024553078368018547,
0.10887780548628428,-0.00039263849388510973,
0.108927680798005,-0.02822983436220371,
0.10897755610972569,-0.017292728753977575,
0.10902743142144639,-0.015081577954836238,
0.10907730673316708,-0.033282374542412285,
0.10912718204488778,-0.013411778412105007,
0.10917705735660847,-0.015530547957026516,
0.10922693266832918,-0.017567250846010518,
0.10927680798004988,-0.022584825810733997,
0.10932668329177057,-0.015250587112889903,
0.10937655860349127,-0.011596051514157619,
0.10942643391521197,0.0025048664558214497,
0.10947630922693267,0.01573787829722191,
0.10952618453865337,-0.0032396196580750146,
0.10957605985037407,-0.018133124196710326,
0.10962593516209476,0.004267493625373021,
0.10967581047381546,-0.020730472730113934,
0.10972568578553615,0.00972649733814098,
0.10977556109725686,0.0033589624815180425,
0.10982543640897756,-0.030420708084137306,
0.10987531172069825,0.022115319718750772,
0.10992518703241895,-0.0026715694094642424,
0.10997506234413965,0.01605657988410862,
0.11002493765586036,-0.001186869680221584,
0.11007481296758105,0.004412536430784195,
0.11012468827930175,0.011792615942549808,
0.11017456359102244,-0.005743961709171224,
0.11022443890274314,-0.0019278720045019238,
0.11027431421446383,0.01366266884437561,
0.11032418952618454,-0.009316282961783686,
0.11037406483790524,-0.007221545586874374,
0.11042394014962593,-0.010642694389261013,
0.11047381546134663,-0.01337964826566493,
0.11052369077306733,-0.016854343121021843,
0.11057356608478804,0.022388700951843192,
0.11062344139650873,-0.01627131726931575,
0.11067331670822943,0.004927161261738455,
0.11072319201995012,0.003982337977880376,
0.11077306733167082,-0.008826000756121522,
0.11082294264339151,-0.002799835677128267,
0.11087281795511222,-2.4400560959307593e-05,
0.11092269326683292,-0.042398723208010095,
0.11097256857855362,-0.011737840330227269,
0.11102244389027431,-0.0007075226118675466,
0.111072319201995,-0.0010976886964517343,
0.11112219451371572,-0.008769526872048308,
0.11117206982543641,-0.03119521726738201,
0.11122194513715711,-0.021480601781862712,
0.1112718204488778,-0.037730326829306826,
0.1113216957605985,0.0015756403440457308,
0.11137157107231921,0.013329417657607137,
0.1114214463840399,-0.01839119877616968,
0.1114713216957606,-0.009825099924114877,
0.1115211970074813,-0.04910179592237394,
0.11157107231920199,-0.008527974756150134,
0.11162094763092269,-0.016220569579335698,
0.1116708229426434,-0.0034812783510663903,
0.11172069825436409,0.0155454307091099,
0.11177057356608479,0.0006649910845335956,
0.11182044887780548,-0.023342756593558847,
0.11187032418952618,-0.031792234072815444,
0.11192019950124689,-0.03237571891278199,
0.11197007481296758,-0.043920633209946935,
0.11201995012468828,-0.019131330508559717,
0.11206982543640898,0.0016072526512129568,
0.11211970074812967,0.01817561024632889,
0.11216957605985037,0.0216111287173604,
0.11221945137157108,0.015624562681111762,
0.11226932668329177,-0.022361108351051855,
0.11231920199501247,-0.019364300025036252,
0.11236907730673316,-0.011392522918702772,
0.11241895261845386,-0.0005612514918102458,
0.11246882793017457,-0.017675707180699718,
0.11251870324189527,-0.0008627456323523561,
0.11256857855361596,-0.013670751852266197,
0.11261845386533666,-0.02321917184987367,
0.11266832917705735,0.014823285631210157,
0.11271820448877805,-0.0390233022111572,
0.11276807980049876,-0.002127975147835172,
0.11281795511221945,0.0079467194428886,
0.11286783042394015,0.006842370526573608,
0.11291770573566084,0.013224440734838803,
0.11296758104738154,-0.02503053273670019,
0.11301745635910225,-0.014428252926942036,
0.11306733167082295,-0.011432985411200655,
0.11311720698254364,0.007324829820806591,
0.11316708229426434,-0.019013023617083943,
0.11321695760598503,-0.02601185777474408,
0.11326683291770574,-0.02831042015469931,
0.11331670822942644,-0.03628794796023922,
0.11336658354114713,0.009832049636969275,
0.11341645885286783,-0.01275864184224372,
0.11346633416458853,-0.009773533764233754,
0.11351620947630922,0.0023655671977331934,
0.11356608478802993,-0.016466597548011837,
0.11361596009975063,-0.011700596401530507,
0.11366583541147132,0.003419643717368897,
0.11371571072319202,-0.00607795905559403,
0.11376558603491271,0.019328989950831668,
0.11381546134663342,-0.006567080920534549,
0.11386533665835412,-0.0038795452544288012,
0.11391521197007481,-0.009245121652838344,
0.11396508728179551,-0.014425975474118034,
0.1140149625935162,0.0006981340023553485,
0.1140648379052369,0.020500444103883332,
0.11411471321695761,0.015710787820687837,
0.1141645885286783,-0.001167486123103998,
0.114214463840399,-0.013169114703082276,
0.1142643391521197,0.0039429073598593375,
0.1143142144638404,0.014932905616156981,
0.1143640897755611,-0.020596972002240782,
0.1144139650872818,0.018890064652691576,
0.1144638403990025,-0.019257939709141518,
0.11451371571072319,-0.0017138447240975575,
0.11456359102244389,0.0015202480231265982,
0.11461346633416458,0.03205435277197677,
0.11466334164588529,-0.004255505889180601,
0.11471321695760599,-0.0011566187368162004,
0.11476309226932668,-0.0045205118535649735,
0.11481296758104738,-0.008134036750239753,
0.11486284289276807,-0.01358100628219763,
0.11491271820448878,0.012673089100584806,
0.11496259351620948,0.0003553893735143243,
0.11501246882793018,0.0019123352357005548,
0.11506234413965087,-0.014568013919083096,
0.11511221945137157,-0.011100652450194313,
0.11516209476309226,-0.03197963330567376,
0.11521197007481297,0.017055349582540093,
0.11526184538653367,-0.0005748866385975578,
0.11531172069825436,0.025214805424637922,
0.11536159600997506,0.02902182722800723,
0.11541147132169575,-0.013977958134503135,
0.11546134663341646,0.02393310226227598,
0.11551122194513716,0.0005507003954857061,
0.11556109725685786,-0.01169219654357293,
0.11561097256857855,-0.02215224385731508,
0.11566084788029925,0.01886462561289199,
0.11571072319201996,0.004913062105918541,
0.11576059850374065,-0.007832526598067668,
0.11581047381546135,0.01459569299242574,
0.11586034912718204,0.012195733736620615,
0.11591022443890274,-0.01004995785254505,
0.11596009975062344,-0.013739538039968456,
0.11600997506234415,0.019301057289430025,
0.11605985037406484,0.009710041857465938,
0.11610972568578554,-0.016412282236990143,
0.11615960099750623,0.0067876131320979164,
0.11620947630922693,0.023543548361522018,
0.11625935162094764,0.049911812205510706,
0.11630922693266833,0.014370519840326168,
0.11635910224438903,0.017254883049603514,
0.11640897755610972,0.019921394466809704,
0.11645885286783042,0.020154528237817583,
0.11650872817955112,0.009552126119554574,
0.11655860349127183,0.004636717047666673,
0.11660847880299252,0.01655724147177872,
0.11665835411471322,0.020179405361464533,
0.11670822942643391,0.014154537121553694,
0.11675810473815461,0.013764578452594907,
0.11680798004987532,-0.012906325571589009,
0.11685785536159601,-0.00191276612189566,
0.11690773067331671,0.010306957661357224,
0.1169576059850374,0.02259775151197918,
0.1170074812967581,-0.0012043732741688074,
0.1170573566084788,0.05999642148064264,
0.1171072319201995,0.016166234918518787,
0.1171571072319202,0.007845997224043059,
0.1172069825436409,0.001281111312788295,
0.1172568578553616,0.0037026152024291874,
0.11730673316708229,0.006660019397151846,
0.117356608478803,0.02004206446961528,
0.1174064837905237,0.015526349839094098,
0.11745635910224439,0.002831385406077292,
0.11750623441396509,0.0347221429294641,
0.11755610972568578,0.026643306496945934,
0.11760598503740648,0.022198593622105356,
0.11765586034912719,0.010162903381514227,
0.11770573566084788,0.03758364716355726,
0.11775561097256858,0.019839120258874098,
0.11780548628428927,-0.0004779594679863719,
0.11785536159600997,0.0195202558554556,
0.11790523690773068,0.02853981828246835,
0.11795511221945137,0.03485674036686095,
0.11800498753117207,0.03907721678800373,
0.11805486284289277,0.010200439633061501,
0.11810473815461346,0.04342042166951878,
0.11815461346633417,0.062209049588795036,
0.11820448877805487,-0.005003093672813794,
0.11825436408977556,0.02632238765271919,
0.11830423940149626,0.015233644418729654,
0.11835411471321695,0.03829667389344138,
0.11840399002493765,0.003355859355011769,
0.11845386533665836,-0.0021231459327917222,
0.11850374064837906,0.028485774220096932,
0.11855361596009975,0.00040297513656339587,
0.11860349127182045,0.008797982466443203,
0.11865336658354114,0.029985312007955116,
0.11870324189526185,0.03244142088235759,
0.11875311720698255,0.037126973220941134,
0.11880299251870324,-0.011377902656806164,
0.11885286783042394,0.02131672565184016,
0.11890274314214463,0.05290037092385511,
0.11895261845386533,0.0045460181804749256,
0.11900249376558604,0.021313703173777895,
0.11905236907730674,0.005738754925284022,
0.11910224438902743,0.017005189060757517,
0.11915211970074813,0.031905635396015306,
0.11920199501246882,0.006015593539466721,
0.11925187032418953,0.011007172151200909,
0.11930174563591023,0.0362968841372105,
0.11935162094763092,0.036940947115076894,
0.11940149625935162,0.046262182148454976,
0.11945137157107232,0.04386453174920682,
0.11950124688279301,0.010547557284659503,
0.11955112219451372,0.00495582336025633,
0.11960099750623442,0.0195063424479311,
0.11965087281795511,0.01088304209488021,
0.11970074812967581,0.03999132791949721,
0.1197506234413965,0.0103629345550914,
0.11980049875311721,0.022625796996554228,
0.11985037406483791,0.04528954070113371,
0.1199002493765586,-0.004383128606968888,
0.1199501246882793,0.018951890289370908,
0.12,0.03677374317564873,
0.1200498753117207,0.030250408736498816,
0.1200997506234414,0.028450772496771467,
0.1201496259351621,0.044560306595121765,
0.12019950124688279,0.03433847104734075,
0.12024937655860349,0.038463002609278506,
0.12029925187032418,0.02866112275038583,
0.1203491271820449,0.03307716532261045,
0.12039900249376559,0.030666004162021938,
0.12044887780548628,-0.000393947796223839,
0.12049875311720698,0.05171608003305297,
0.12054862842892768,0.007835830702114733,
0.12059850374064839,0.024831081318579667,
0.12064837905236908,0.028392771931891537,
0.12069825436408978,0.02029438928536753,
0.12074812967581047,0.03672486884632076,
0.12079800498753117,0.03513864872066931,
0.12084788029925186,0.025272230686892376,
0.12089775561097257,0.026770540607274518,
0.12094763092269327,0.00044691270395184196,
0.12099750623441397,0.042888430567505076,
0.12104738154613466,0.003987429076094659,
0.12109725685785536,0.0376170434956759,
0.12114713216957607,0.03716742647334138,
0.12119700748129676,0.037118634601973545,
0.12124688279301746,0.0353646831854094,
0.12129675810473815,-0.004121963074681836,
0.12134663341645885,0.03440380057066901,
0.12139650872817954,0.0001280360006948797,
0.12144638403990025,0.03132791284106751,
0.12149625935162095,0.028142828616742423,
0.12154613466334165,0.021943472118218753,
0.12159600997506234,0.028139855564617896,
0.12164588528678304,0.03397816039246283,
0.12169576059850375,0.006787900696006346,
0.12174563591022444,0.030076422822704976,
0.12179551122194514,0.0549841733328644,
0.12184538653366583,0.03400195634064209,
0.12189526184538653,0.04295616578174568,
0.12194513715710723,0.02385116136103131,
0.12199501246882793,0.01793505838167804,
0.12204488778054863,0.030823777813925427,
0.12209476309226933,0.02360567830304386,
0.12214463840399002,0.037919167771040874,
0.12219451371571072,0.042239847413259174,
0.12224438902743143,0.00863955061919481,
0.12229426433915212,0.008274698915467376,
0.12234413965087282,0.01191527002053156,
0.12239401496259351,0.03258519219227094,
0.12244389027431421,0.006712196543843751,
0.12249376558603492,-0.015760969969847216,
0.12254364089775562,0.020599446161926143,
0.12259351620947631,0.03445018138418569,
0.122643391521197,0.02684881994593115,
0.1226932668329177,0.02888662100151988,
0.1227431421446384,0.03432874426583596,
0.12279301745635911,0.007884446722458985,
0.1228428927680798,0.0497538121866457,
0.1228927680798005,0.025034124987324612,
0.1229426433915212,0.025301062661726718,
0.12299251870324189,0.046527830193769736,
0.1230423940149626,0.035758764595743175,
0.1230922693266833,0.045832721465382864,
0.12314214463840399,0.019753382818669007,
0.12319201995012469,0.03414615716735181,
0.12324189526184538,0.021902531824927716,
0.12329177057356608,0.01196841467168982,
0.12334164588528679,0.010029596168541249,
0.12339152119700748,0.034478070778626094,
0.12344139650872818,0.015565428505319242,
0.12349127182044888,0.03248934152200815,
0.12354114713216957,0.023573839766072233,
0.12359102244389028,0.01434446015146531,
0.12364089775561098,-0.009094397957166267,
0.12369077306733167,0.0029190502115588116,
0.12374064837905237,0.0016104023818477864,
0.12379052369077306,0.045276512622222216,
0.12384039900249376,0.001968825374487372,
0.12389027431421447,0.028262380794514576,
0.12394014962593516,0.005114975116498048,
0.12399002493765586,0.012988989928456146,
0.12403990024937656,0.041434392130311616,
0.12408977556109725,-0.0024638042455339716,
0.12413965087281796,0.0007347865953242702,
0.12418952618453866,0.004514274309350261,
0.12423940149625935,0.01686447382745,
0.12428927680798005,0.037838356233721934,
0.12433915211970074,0.01339304718741056,
0.12438902743142144,0.014477378136556921,
0.12443890274314215,0.017918120275144063,
0.12448877805486284,0.03871178128767662,
0.12453865336658354,0.004205091924337653,
0.12458852867830424,0.001863119642715582,
0.12463840399002493,0.013384759969945594,
0.12468827930174564,-0.0008610517840006993,
0.12473815461346634,0.03233258542431464,
0.12478802992518703,0.018538515394842175,
0.12483790523690773,-0.0002492620357638642,
0.12488778054862842,0.03320497008473439,
0.12493765586034913,0.02666897855706237,
0.12498753117206983,0.006715241257530374,
0.12503740648379053,0.03474995157840309,
0.12508728179551123,0.03352455961027139,
0.12513715710723192,0.041013644211303504,
0.12518703241895263,0.012252993836179272,
0.1252369077306733,-0.009338525738423524,
0.12528678304239402,0.011907839526618377,
0.1253366583541147,0.025988593822497484,
0.1253865336658354,0.007339630446350783,
0.12543640897755612,0.021590124501536183,
0.1254862842892768,0.029073900701211828,
0.1255361596009975,-0.0026336820722883594,
0.1255860349127182,0.025922977018339354,
0.1256359102244389,0.017620988875163432,
0.1256857855361596,-0.01298171152635099,
0.1257356608478803,0.018680565374667616,
0.125785536159601,0.009349602161442691,
0.12583541147132168,0.03350447299408012,
0.1258852867830424,-0.01230372584415487,
0.1259351620947631,0.004751161070158147,
0.12598503740648379,0.015591180450632357,
0.1260349127182045,-0.006829162501150173,
0.12608478802992518,0.005141205458950457,
0.1261346633416459,0.006730381458134401,
0.1261845386533666,0.006845346936287636,
0.12623441396508728,0.011996864536798931,
0.126284289276808,0.006040406737613562,
0.12633416458852867,0.0015718798482503415,
0.12638403990024938,0.018880012263885776,
0.1264339152119701,0.015387819861385175,
0.12648379052369077,-0.01142486321714102,
0.12653366583541148,0.004919256013503003,
0.12658354114713216,-0.018385256294571828,
0.12663341645885287,0.0025707509343192722,
0.12668329177057355,0.018830573323911824,
0.12673316708229426,-0.010862101715323674,
0.12678304239401497,0.010492735434583612,
0.12683291770573565,0.015958259513200273,
0.12688279301745636,0.002593976150845348,
0.12693266832917705,0.028661334998965553,
0.12698254364089775,0.0067224787414274945,
0.12703241895261846,0.005227864344171686,
0.12708229426433915,0.015229553903357122,
0.12713216957605986,0.009421093286490802,
0.12718204488778054,0.016471183381497792,
0.12723192019950125,0.01146783209148524,
0.12728179551122196,0.002623428843724627,
0.12733167082294264,0.0014740764887128594,
0.12738154613466335,-0.029756557740839795,
0.12743142144638403,0.01777628333040574,
0.12748129675810474,0.0048946576454141745,
0.12753117206982545,0.012493036579326171,
0.12758104738154613,0.005388898308444966,
0.12763092269326684,-0.010391888595433413,
0.12768079800498752,0.043800950114856074,
0.12773067331670823,-0.031217808633975348,
0.1277805486284289,-0.029382099208743837,
0.12783042394014962,-0.004736702201504306,
0.12788029925187033,0.01628522283894357,
0.12793017456359101,-0.00019574859489314964,
0.12798004987531172,-0.037252276430677835,
0.1280299251870324,0.021680436777031846,
0.12807980049875312,0.020485426001653873,
0.12812967581047383,0.015962246904865265,
0.1281795511221945,-0.012731130806042627,
0.12822942643391522,0.019225273801957952,
0.1282793017456359,0.015765091118364938,
0.1283291770573566,-0.019976184279192226,
0.12837905236907732,-0.0037362336361775384,
0.128428927680798,0.00948488544975961,
0.1284788029925187,0.003042456371850147,
0.1285286783042394,-0.006151488188576108,
0.1285785536159601,-0.05119989336716453,
0.1286284289276808,-0.002284517208317911,
0.1286783042394015,0.018601519701602308,
0.1287281795511222,-0.013779716346953307,
0.12877805486284288,-0.02299191968871041,
0.1288279301745636,-0.008023970170950065,
0.1288778054862843,0.013362500226848182,
0.12892768079800498,-0.014588134535424317,
0.1289775561097257,0.009089270017006332,
0.12902743142144638,0.031056601239832664,
0.12907730673316709,-0.008159036239055895,
0.12912718204488777,-0.02505358647862778,
0.12917705735660848,0.01140952633976341,
0.1292269326683292,-0.011438607865574223,
0.12927680798004987,0.0008692869232852975,
0.12932668329177058,0.009687335805522074,
0.12937655860349126,-0.008257637927368158,
0.12942643391521197,-0.02471095498429854,
0.12947630922693268,-0.02808707576463238,
0.12952618453865336,-0.04271998046331239,
0.12957605985037407,-0.02745617174100851,
0.12962593516209475,-0.02180946307224107,
0.12967581047381546,-0.020594414504406473,
0.12972568578553617,0.01620632498172083,
0.12977556109725685,0.0026116818983562395,
0.12982543640897756,-0.017676386907382574,
0.12987531172069824,-0.021036612348735464,
0.12992518703241895,-0.008151560632621084,
0.12997506234413966,-0.013662829545149809,
0.13002493765586035,-0.0067596709684618434,
0.13007481296758105,-0.01278572919156349,
0.13012468827930174,-0.015067241211080485,
0.13017456359102245,0.010655324146373144,
0.13022443890274316,-0.01691421988939762,
0.13027431421446384,0.0016695069214744066,
0.13032418952618455,-0.010835846438887001,
0.13037406483790523,-0.011322076944730124,
0.13042394014962594,-0.021832858519180813,
0.13047381546134662,-0.0070396274164913975,
0.13052369077306733,0.009306645983671985,
0.13057356608478804,-0.010717851021903878,
0.13062344139650872,-0.027939230637689612,
0.13067331670822943,-0.04043678039353635,
0.1307231920199501,0.007195258711816458,
0.13077306733167082,-0.014651897399479266,
0.13082294264339153,-0.015721751345128675,
0.13087281795511221,-0.004598475858288512,
0.13092269326683292,-0.03156448114388046,
0.1309725685785536,-0.004130489159922253,
0.13102244389027431,-0.0013628609917566096,
0.13107231920199502,-0.01974344461541713,
0.1311221945137157,-0.006706937621716777,
0.13117206982543642,0.033751887010069724,
0.1312219451371571,0.0053663475488662325,
0.1312718204488778,-0.02751218875377197,
0.13132169576059852,0.0012558778901584113,
0.1313715710723192,-0.0006450621088488814,
0.1314214463840399,-0.007917447332129056,
0.1314713216957606,-0.002762448252010205,
0.1315211970074813,-0.009327713620614433,
0.13157107231920198,0.005802279329255719,
0.1316209476309227,-0.02257549995558844,
0.1316708229426434,-0.0005871237059628682,
0.13172069825436408,0.002934637453850003,
0.1317705735660848,-0.0024392142954766842,
0.13182044887780547,-0.002437352814079298,
0.13187032418952618,-0.015185713641950968,
0.1319201995012469,0.008450326123621685,
0.13197007481296757,-0.003940577042894576,
0.13201995012468828,0.010525722136602304,
0.13206982543640897,-0.012470904539523387,
0.13211970074812968,-0.004753848195617259,
0.13216957605985039,0.023207630710876347,
0.13221945137157107,0.004194023838743276,
0.13226932668329178,0.003730012445901593,
0.13231920199501246,-0.013896590373331977,
0.13236907730673317,-0.0003783067703740147,
0.13241895261845388,-0.0004889873012446757,
0.13246882793017456,0.017369954600695042,
0.13251870324189527,-0.0040588748617531685,
0.13256857855361595,0.01043622519520283,
0.13261845386533666,-0.02030790078407218,
0.13266832917705737,-0.024640996663618808,
0.13271820448877805,-0.028246631681505825,
0.13276807980049876,-0.003972002715989063,
0.13281795511221944,-0.028005216282645642,
0.13286783042394015,-0.00838512176571853,
0.13291770573566083,-0.019312177647449004,
0.13296758104738154,-0.009815211855643827,
0.13301745635910225,0.00032526838686202167,
0.13306733167082294,-0.011902111470825216,
0.13311720698254365,0.009302230225303507,
0.13316708229426433,-0.0231708080893165,
0.13321695760598504,0.0034504680148391143,
0.13326683291770575,-0.014273927884546253,
0.13331670822942643,-0.017023178502350036,
0.13336658354114714,-0.015033546701387837,
0.13341645885286782,0.010686939652022531,
0.13346633416458853,0.014927867043866797,
0.13351620947630924,0.028007933075554495,
0.13356608478802992,-0.010869090429083867,
0.13361596009975063,0.0026619039180894154,
0.1336658354114713,-0.011007343661512441,
0.13371571072319202,-0.013036239873118681,
0.13376558603491273,0.0010142414037721359,
0.1338154613466334,0.008520062379093921,
0.13386533665835412,-0.005980375692659778,
0.1339152119700748,-0.01686003913137578,
0.13396508728179551,-0.018633552842934005,
0.1340149625935162,0.025188579835446576,
0.1340648379052369,-0.006319581674990981,
0.13411471321695762,-0.002813243104906862,
0.1341645885286783,0.009141006773578386,
0.134214463840399,0.007099955885630098,
0.1342643391521197,-0.024960930285786644,
0.1343142144638404,-0.008484467093451506,
0.1343640897755611,-0.010191378381825131,
0.1344139650872818,0.018216554428833943,
0.1344638403990025,0.0010252033026546046,
0.13451371571072318,0.014746405844994192,
0.1345635910224439,-0.029419053705425392,
0.1346134663341646,-0.008592732156883004,
0.13466334164588528,-0.02284271924339975,
0.134713216957606,0.019375930893791127,
0.13476309226932667,-0.004875467570508906,
0.13481296758104738,-0.005768015719975084,
0.1348628428927681,-0.0042796995952356035,
0.13491271820448877,-0.00942640500328944,
0.13496259351620948,0.0003272630380482637,
0.13501246882793017,0.011952489600167438,
0.13506234413965088,-0.015066922154521328,
0.13511221945137158,-0.004854205942827942,
0.13516209476309227,-0.02161484501903157,
0.13521197007481298,0.013471435714792306,
0.13526184538653366,0.015235720886120342,
0.13531172069825437,0.013031436616311752,
0.13536159600997505,0.021469231224387413,
0.13541147132169576,-0.01134060925899715,
0.13546134663341647,-0.0027953478513812356,
0.13551122194513715,0.010195548871363404,
0.13556109725685786,0.027219773949740914,
0.13561097256857854,-0.003070208316334767,
0.13566084788029925,-0.013752688293478988,
0.13571072319201996,-0.01066154546800994,
0.13576059850374064,0.01465191227525773,
0.13581047381546135,0.009043502352959214,
0.13586034912718203,0.011105509587907913,
0.13591022443890274,-0.011743539748963711,
0.13596009975062345,0.005660671178244813,
0.13600997506234414,0.02597738862018855,
0.13605985037406484,-0.01736149047034792,
0.13610972568578553,-0.000386809211404035,
0.13615960099750624,0.02757986244803933,
0.13620947630922695,0.015492099476438665,
0.13625935162094763,0.01805983613905661,
0.13630922693266834,0.014111690673347296,
0.13635910224438902,0.003193000620310197,
0.13640897755610973,0.009211081076708066,
0.1364588528678304,-0.008002416781628273,
0.13650872817955112,-0.013164095857119081,
0.13655860349127183,-0.005236298590310636,
0.1366084788029925,0.007031902004347142,
0.13665835411471322,0.006150482090344784,
0.1367082294264339,0.0047011455339132455,
0.1367581047381546,0.0264162957480579,
0.13680798004987532,0.009156336729686188,
0.136857855361596,0.03768988994266674,
0.1369077306733167,0.012515052125703544,
0.1369576059850374,0.01247812265008889,
0.1370074812967581,-0.00694570377829392,
0.13705735660847881,0.0016073728324124941,
0.1371072319201995,0.009915357668041413,
0.1371571072319202,-0.009108660294154889,
0.1372069825436409,0.018824628629000584,
0.1372568578553616,0.006064696565906412,
0.1373067331670823,0.016048448622780903,
0.137356608478803,-0.000959348727357371,
0.1374064837905237,0.031593198989033205,
0.13745635910224438,0.029154163743908324,
0.1375062344139651,0.007623960579846505,
0.1375561097256858,0.04216267860387624,
0.13760598503740648,0.03969292896131353,
0.1376558603491272,0.04659199387081188,
0.13770573566084787,0.023353243006994828,
0.13775561097256858,0.013445526280823794,
0.13780548628428926,0.03501198163971666,
0.13785536159600997,0.038991665284879434,
0.13790523690773068,0.029370996102599432,
0.13795511221945136,0.003109425541295001,
0.13800498753117207,0.027427625621681016,
0.13805486284289276,0.042109307595567615,
0.13810473815461347,0.01310856028698949,
0.13815461346633418,0.04484647802315701,
0.13820448877805486,0.03321802485031966,
0.13825436408977557,0.02337187461304749,
0.13830423940149625,0.02072405037938424,
0.13835411471321696,0.020741196292135396,
0.13840399002493767,-0.0042973280803367785,
0.13845386533665835,0.005491374826306811,
0.13850374064837906,0.016902587219275338,
0.13855361596009974,0.010520286855557516,
0.13860349127182045,0.02132302318889572,
0.13865336658354116,0.012484076635798131,
0.13870324189526184,0.03906812285340458,
0.13875311720698255,0.0238918738989556,
0.13880299251870323,0.021301749312641494,
0.13885286783042394,0.02094432788901226,
0.13890274314214462,0.02154990403278754,
0.13895261845386533,0.0013357759968310942,
0.13900249376558604,0.043498106775754955,
0.13905236907730673,-0.00534120963068695,
0.13910224438902744,0.03335233181534232,
0.13915211970074812,0.03252226634254599,
0.13920199501246883,0.025599497714514145,
0.13925187032418954,0.02464559683820411,
0.13930174563591022,0.012608226404619144,
0.13935162094763093,0.02263128840622673,
0.1394014962593516,0.027822160608439145,
0.13945137157107232,0.06045542713002025,
0.13950124688279303,0.03661901628255082,
0.1395511221945137,0.03788445518636729,
0.13960099750623442,0.03895992443575178,
0.1396508728179551,0.051576644788122475,
0.1397007481296758,0.016372332092591757,
0.13975062344139652,0.0026943669550859584,
0.1398004987531172,0.05288128220105885,
0.1398503740648379,0.025835062720446805,
0.1399002493765586,0.011623741379120957,
0.1399501246882793,0.040427011631244715,
0.14,0.04269666980782956,
0.1400498753117207,0.020780310279057766,
0.1400997506234414,0.023773956684827926,
0.1401496259351621,0.02513212814287128,
0.1401995012468828,0.05533361177027285,
0.14024937655860348,0.015151838119088091,
0.1402992518703242,0.03358213078335157,
0.1403491271820449,0.020998838642355296,
0.14039900249376558,0.017856928586786478,
0.1404488778054863,0.02368839921428945,
0.14049875311720697,0.04285156746614596,
0.14054862842892768,-0.003623184581383738,
0.1405985037406484,0.009185670428936445,
0.14064837905236907,0.024545846235257743,
0.14069825436408978,0.0035321232536455853,
0.14074812967581046,0.03695243935153296,
0.14079800498753117,0.030862612902119918,
0.14084788029925188,0.02983795745144046,
0.14089775561097256,0.05643597536465007,
0.14094763092269327,0.030579667956716797,
0.14099750623441396,0.03376364816638,
0.14104738154613466,0.03192283253991404,
0.14109725685785537,0.035261639439969426,
0.14114713216957606,0.0372639569815238,
0.14119700748129677,0.012343536087626162,
0.14124688279301745,0.03687016499701747,
0.14129675810473816,0.03057318986665426,
