time,amplitude,label
0.0,-0.00870059190658076,
4.987531172069826e-05,-0.024546119410027933,
9.975062344139652e-05,0.014174773492415207,
0.00014962593516209475,-0.007596727734348055,
0.00019950124688279303,-0.00042169096603927175,
0.00024937655860349125,-0.009924910055220977,
0.0002992518703241895,-0.003001144386193491,
0.00034912718204488776,-0.02688908151016063,
0.00039900249376558606,-0.008612284553431845,
0.0004488778054862843,0.012587363771822959,
0.0004987531172069825,-0.014546934896836913,
0.0005486284289276808,0.0016726398271692759,
0.000598503740648379,-0.006940539612035864,
0.0006483790523690773,-0.03200731950350419,
0.0006982543640897755,-0.013029702879925695,
0.0007481296758104738,0.005958239507942139,
0.0007980049875311721,0.0007780706052459129,
0.0008478802992518703,-0.008602134228419381,
0.0008977556109725686,-0.03364763845753303,
0.0009476309226932668,-0.020794740066379783,
0.000997506234413965,-0.017823787239579576,
0.0010473815461346633,-0.005917963169884494,
0.0010972568578553616,-0.03178486339802349,
0.00114713216957606,-0.002088216376647368,
0.001197007481296758,-0.0293758119939851,
0.0012468827930174563,-0.02043833849372301,
0.0012967581047381546,-0.020011697317589124,
0.001346633416458853,-0.031486079433688946,
0.001396508728179551,-0.007283254808768522,
0.0014463840399002493,-0.005671112504984022,
0.0014962593516209476,-0.003197059867583025,
0.001546134663341646,-0.026280728962028703,
0.0015960099750623442,-0.016906165256399007,
0.0016458852867830423,-0.01216244518769826,
0.0016957605985037406,-0.004582105372247904,
0.001745635910224439,0.010474927054418666,
0.0017955112219451373,-0.010663016317013652,
0.0018453865336658353,0.006120040945609959,
0.0018952618453865336,-0.034394715389573255,
0.001945137157107232,-0.03627385178468414,
0.00199501246882793,-0.016683528076771856,
0.0020448877805486283,-0.03060845115004947,
0.0020947630922693266,-0.03969504882076676,
0.002144638403990025,-0.014279035286578298,
0.0021945137157107233,-0.022609152242657325,
0.0022443890274314216,-0.049240746840560304,
0.00229426433915212,-0.016481385266497842,
0.0023441396508728177,-0.009122475686342767,
0.002394014962593516,-0.0073242836110106475,
0.0024438902743142144,-0.02855571121293233,
0.0024937655860349127,-0.025949428123760734,
0.002543640897755611,-0.021248031602755575,
0.0025935162094763093,-0.007744310137103883,
0.0026433915211970076,-0.017147816858497453,
0.002693266832917706,-0.006389108079997466,
0.002743142144638404,-0.011260797921432216,
0.002793017456359102,-0.01715260357179256,
0.0028428927680798004,-0.0026170807209192244,
0.0028927680798004987,-0.005531650513985633,
0.002942643391521197,-0.008741832120336924,
0.0029925187032418953,-0.036323586177208315,
0.0030423940149625936,-0.041053945519950535,
0.003092269326683292,-0.003358820279902572,
0.00314214463840399,-0.014146794975721844,
0.0031920199501246885,-0.04294480975883286,
0.0032418952618453864,-0.0200011881063474,
0.0032917705735660847,-0.03544319991001259,
0.003341645885286783,-0.02120025651349882,
0.0033915211970074813,-0.005099094843558192,
0.0034413965087281796,-0.024586093541730608,
0.003491271820448878,-0.020587382990017312,
0.003541147132169576,-0.03873935917842955,
0.0035910224438902745,-0.020622986165432365,
0.0036408977556109724,-0.013802518228764885,
0.0036907730673316707,-0.029351501378833394,
0.003740648379052369,-0.028805174061807794,
0.0037905236907730673,-0.01832220378783507,
0.0038403990024937656,-0.020504128841825776,
0.003890274314214464,0.020241977831129295,
0.003940149625935162,-0.03322237332324379,
0.00399002493765586,-0.0405937316844661,
0.004039900249376558,0.003124910069035324,
0.004089775561097257,-0.027867647907641055,
0.004139650872817955,-0.016694602533791285,
0.004189526184538653,0.013675913929926297,
0.004239401496259352,-0.04612196327501719,
0.00428927680798005,-0.026747619313128305,
0.004339152119700748,-0.03311426793797766,
0.0043890274314214465,-0.015488618069639661,
0.004438902743142145,-0.02340110205736997,
0.004488778054862843,-0.009922809156697639,
0.004538653366583541,-0.03124806756849191,
0.00458852867830424,-0.043814189445949864,
0.004638403990024938,-0.017473643917147813,
0.0046882793017456355,-0.028042232143349943,
0.004738154613466334,-0.027470224952598474,
0.004788029925187032,-0.020476602536585488,
0.00483790523690773,-0.023130493151751894,
0.004887780548628429,-0.025225096273526555,
0.004937655860349127,-0.013224011147146119,
0.004987531172069825,0.020520752740397726,
0.005037406483790524,-0.0314478284815694,
0.005087281795511222,-0.016277065654920653,
0.00513715710723192,0.0011400467706338714,
0.0051870324189526185,-0.0070463822987149195,
0.005236907730673317,-0.019753443013283745,
0.005286783042394015,-0.02967095983617852,
0.0053366583541147134,-0.004007890804486713,
0.005386533665835412,-0.03378273223219509,
0.00543640897755611,-0.0012024030818314872,
0.005486284289276808,-0.004170215634023405,
0.005536159600997507,0.0077208121450609984,
0.005586034912718204,-0.03267127214173886,
0.005635910224438902,-0.016215461865231547,
0.005685785536159601,-0.011513363626951345,
0.005735660847880299,-0.022115650173125913,
0.005785536159600997,-0.04175956730149836,
0.005835411471321696,-0.024414423817401117,
0.005885286783042394,0.004036816833515198,
0.005935162094763092,-0.03749761018386624,
0.0059850374064837905,0.002739162095664254,
0.006034912718204489,-0.02195026950779052,
0.006084788029925187,0.022229590603714378,
0.0061346633416458855,-0.008611472654342074,
0.006184538653366584,-0.014420340686199731,
0.006234413965087282,-0.014515684047499663,
0.00628428927680798,-0.027194719271208395,
0.006334164588528679,-0.009870025079735074,
0.006384039900249377,0.011378394385934297,
0.006433915211970074,0.00492906216575471,
0.006483790523690773,0.0006812400552310676,
0.006533665835411471,-0.008537295305520862,
0.006583541147132169,-0.009377371765662402,
0.006633416458852868,-0.006613778416159487,
0.006683291770573566,0.010644464797782869,
0.006733167082294264,0.00891275481669334,
0.0067830423940149626,0.0017059476109082244,
0.006832917705735661,-0.010990829004509433,
0.006882793017456359,-0.0388537219269422,
0.0069326683291770575,-0.01852812164339114,
0.006982543640897756,-0.019373037235388264,
0.007032418952618454,-0.0054491689429963875,
0.007082294264339152,-0.0023989687667768196,
0.007132169576059851,0.010626799212150225,
0.007182044887780549,-0.007602515548076005,
0.007231920199501247,-0.01759392556198626,
0.007281795511221945,-0.012790397233293801,
0.007331670822942643,-0.011365708199589066,
0.007381546134663341,0.004398494919641547,
0.00743142144638404,-0.012980649854840553,
0.007481296758104738,0.01230703308949958,
0.007531172069825436,-0.02335682526215575,
0.007581047381546135,-0.017005596313668266,
0.007630922693266833,-0.020580954821475796,
0.007680798004987531,0.016960247543837497,
0.0077306733167082295,-0.0024378809962295944,
0.007780548628428928,0.0004985885233275353,
0.007830423940149626,0.004690581997202036,
0.007880299251870324,-0.009690066287758271,
0.007930174563591023,-0.028170738506601428,
0.00798004987531172,0.021343480302403094,
0.00802992518703242,-0.02530441612860433,
0.008079800498753117,0.006866682888181357,
0.008129675810473816,-0.022355882331629315,
0.008179551122194513,-0.0026610458054558035,
0.008229426433915213,-0.0059677596729669595,
0.00827930174563591,-0.013450384902730846,
0.00832917705735661,-0.003478852914471611,
0.008379052369077307,0.008582015045612677,
0.008428927680798006,-0.0008175223881747923,
0.008478802992518703,0.01954810531640118,
0.0085286783042394,-0.007604752028010402,
0.0085785536159601,-0.01650272239116741,
0.008628428927680797,-0.008959143976504661,
0.008678304239401496,0.013671077391063083,
0.008728179551122194,-0.0135951177528154,
0.008778054862842893,-0.0243556699590508,
0.00882793017456359,0.012181651607278809,
0.00887780548628429,0.0022475782042196066,
0.008927680798004987,0.01801194309996496,
0.008977556109725686,-0.021076163287583757,
0.009027431421446384,0.017341457030319148,
0.009077306733167083,-0.006047735877504227,
0.00912718204488778,-0.0005749297963076137,
0.00917705735660848,-0.010952499226840854,
0.009226932668329177,-0.008639314142058135,
0.009276807980049876,0.02934500458653279,
0.009326683291770574,0.0220902114342567,
0.009376558603491271,0.004810739107389746,
0.00942643391521197,0.00956150138009802,
0.009476309226932668,0.01393390900806768,
0.009526184538653367,-0.02765135069469922,
0.009576059850374064,0.024612475156736487,
0.009625935162094763,0.01526140969340399,
0.00967581047381546,0.0276000295358257,
0.00972568578553616,0.007255048745759227,
0.009775561097256857,0.0073980276085799605,
0.009825436408977557,-0.0009685228326072378,
0.009875311720698254,0.0390179152481717,
0.009925187032418953,0.01036477321169647,
0.00997506234413965,0.007838431829702133,
0.01002493765586035,0.021100606195761443,
0.010074812967581047,0.01976525067453587,
0.010124688279301746,0.008658836848069562,
0.010174563591022444,0.01529575024607623,
0.010224438902743141,0.030231450452855184,
0.01027431421446384,0.012798426280549061,
0.010324189526184538,0.0009570954712015915,
0.010374064837905237,0.00882532702934937,
0.010423940149625935,0.004347619951432378,
0.010473815461346634,0.030107480440086664,
0.010523690773067331,0.02456576813551499,
0.01057356608478803,0.030484180705522917,
0.010623441396508728,0.03563147097132512,
0.010673316708229427,0.05052186516675981,
0.010723192019950124,0.017164298486091335,
0.010773067331670824,0.006471849794362105,
0.010822942643391521,0.05748258561082692,
0.01087281795511222,0.015230273662340026,
0.010922693266832918,0.04422683194681966,
0.010972568578553617,0.04255294449836233,
0.011022443890274314,0.03698160404147962,
0.011072319201995013,0.005949085185481066,
0.01112219451371571,0.018786840022769105,
0.011172069825436408,0.000590897159621134,
0.011221945137157107,0.022737577521167753,
0.011271820448877805,0.023665268733153395,
0.011321695760598504,0.013654754370358076,
0.011371571072319201,0.024287601979785106,
0.0114214463840399,0.016969233188916053,
0.011471321695760598,0.01894796133845701,
0.011521197007481297,0.04226834143646829,
0.011571072319201995,0.00921946482741048,
0.011620947630922694,0.029737585728841758,
0.011670822942643391,0.01994762971635119,
0.01172069825436409,0.042767144039047286,
0.011770573566084788,0.021338529960653514,
0.011820448877805487,0.02490235742021069,
0.011870324189526184,0.03757530688388958,
0.011920199501246884,0.02720970497653174,
0.011970074812967581,0.02103078328756573,
0.012019950124688279,0.03793335284347567,
0.012069825436408978,0.009394984437969758,
0.012119700748129675,-0.008156601805988734,
0.012169576059850374,0.0347527426616675,
0.012219451371571072,0.037170689192839404,
0.012269326683291771,0.016106123673130874,
0.012319201995012468,0.01955454018036224,
0.012369077306733168,-0.0037412095154104007,
0.012418952618453865,0.020913388254167685,
0.012468827930174564,0.0365119910787437,
0.012518703241895262,0.024028715956142428,
0.01256857855361596,0.000794983983778523,
0.012618453865336658,0.01108933284186762,
0.012668329177057357,0.029921173507504666,
0.012718204488778055,0.0072445327488353094,
0.012768079800498754,0.026735396271883243,
0.012817955112219451,0.00628333296226055,
0.012867830423940149,0.015699496178416587,
0.012917705735660848,-0.0032264026444203397,
0.012967581047381545,-0.005481372406711552,
0.013017456359102245,0.05719418987606992,
0.013067331670822942,-0.0013543075454578724,
0.013117206982543641,0.026774412690325516,
0.013167082294264339,-0.018293808222995134,
0.013216957605985038,0.035739359024476,
0.013266832917705735,0.02370467672204533,
0.013316708229426434,0.022853060544771625,
0.013366583541147132,0.05002566191087335,
0.013416458852867831,0.0038930298684939253,
0.013466334164588529,0.018993048113374614,
0.013516209476309228,0.00900025780499365,
0.013566084788029925,0.04572939421356435,
0.013615960099750624,0.029155640739106793,
0.013665835411471322,0.031714801092509445,
0.01371571072319202,0.019762741915047274,
0.013765586034912718,-0.019563978879796773,
0.013815461346633416,0.021800980346121945,
0.013865336658354115,0.03204567441169458,
0.013915211970074812,0.029911039264498132,
0.013965087281795512,0.014982171281037121,
0.014014962593516209,0.015283189488969135,
0.014064837905236908,0.017563477708647343,
0.014114713216957606,0.02764458435423739,
0.014164588528678305,0.025740311474579267,
0.014214463840399002,-0.006729056820324021,
0.014264339152119701,0.02719971921928399,
0.014314214463840399,0.011966058080931152,
0.014364089775561098,0.012466740830766593,
0.014413965087281795,0.03446456028781289,
0.014463840399002495,0.03510117588705068,
0.014513715710723192,0.03691993299603545,
0.01456359102244389,0.0006121135312557383,
0.014613466334164589,0.010815324463061474,
0.014663341645885286,0.014887994387987406,
0.014713216957605985,0.010705150288496458,
0.014763092269326683,0.0007678424795547756,
0.014812967581047382,0.01084153195739567,
0.01486284289276808,0.031042342426906885,
0.014912718204488778,0.026676015861289846,
0.014962593516209476,0.011430441486515602,
0.015012468827930175,-0.0006278156753829166,
0.015062344139650873,0.056270933019225686,
0.015112219451371572,-0.0037524536092523077,
0.01516209476309227,0.027651407209588242,
0.015211970074812968,0.01510804224401156,
0.015261845386533666,0.01966871105382922,
0.015311720698254365,0.03608571783421115,
0.015361596009975062,0.05613472588461069,
0.01541147132169576,0.04363644847396707,
0.015461346633416459,0.02943213498541468,
0.015511221945137156,0.009415923100456695,
0.015561097256857856,0.01406743467696113,
0.015610972568578553,0.005727141045982254,
0.015660847880299252,0.007107824205506822,
0.01571072319201995,0.03319157913888629,
0.015760598503740647,-0.0010132121658396054,
0.015810473815461346,0.01599193588053576,
0.015860349127182045,0.027957831503639282,
0.015910224438902745,0.023946072531708877,
0.01596009975062344,-0.013409921284621915,
0.01600997506234414,-0.0007108119218024456,
0.01605985037406484,0.002412669304451106,
0.016109725685785538,-0.01796745209372648,
0.016159600997506234,0.020195563415626755,
0.016209476309226933,0.0011514768871383925,
0.016259351620947632,0.00720157434742124,
0.016309226932668328,-0.0018823095480587203,
0.016359102244389027,-0.002523702844780101,
0.016408977556109726,0.00804570922691938,
0.016458852867830425,-0.0023008201809580665,
0.01650872817955112,0.037207669787566254,
0.01655860349127182,0.03566132823826851,
0.01660847880299252,0.01798767952183117,
0.01665835411471322,-0.006451470146599974,
0.016708229426433914,0.01178070584275125,
0.016758104738154613,0.03324040638039406,
0.016807980049875312,0.011433127488247997,
0.01685785536159601,0.02953862449896765,
0.016907730673316707,0.011201276967973127,
0.016957605985037406,0.0006452595488802386,
0.017007481296758106,0.0017881437920816354,
0.0170573566084788,0.015634732115355335,
0.0171072319201995,-0.006362821888711876,
0.0171571072319202,0.008780292734070574,
0.0172069825436409,-0.011419651674368966,
0.017256857855361595,-0.006872625413893382,
0.017306733167082294,0.026281533768912797,
0.017356608478802993,-0.0031000447272238555,
0.017406483790523692,0.004203847177982873,
0.017456359102244388,0.012310080279811533,
0.017506234413965087,-0.003338716879075873,
0.017556109725685786,0.0040935786674074146,
0.017605985037406485,-0.032623753383262816,
0.01765586034912718,-0.009818724780674632,
0.01770573566084788,-0.003942190928504607,
0.01775561097256858,0.006247217856505606,
0.01780548628428928,-0.015854688493657707,
0.017855361596009974,-0.008735182167504994,
0.017905236907730673,0.0010215066016226976,
0.017955112219451373,0.03222731464202796,
0.018004987531172068,-0.005587136555526496,
0.018054862842892767,0.015911150736061343,
0.018104738154613467,0.007762110294453976,
0.018154613466334166,0.004790689529529577,
0.01820448877805486,-0.002128640608663454,
0.01825436408977556,-0.0021146828554762832,
0.01830423940149626,0.01980444018419708,
0.01835411471321696,0.025190862791666588,
0.018403990024937655,-0.008386190463156598,
0.018453865336658354,0.017221754076150113,
0.018503740648379053,0.00032907954509547844,
0.018553615960099752,0.002726989479453442,
0.018603491271820448,0.020730732778403094,
0.018653366583541147,0.006630679088653976,
0.018703241895261846,0.007089327096050032,
0.018753117206982542,0.02074732682561055,
0.01880299251870324,0.02272863436593028,
0.01885286783042394,-0.011945814521584979,
0.01890274314214464,0.004201823564804963,
0.018952618453865335,-0.004370022290325786,
0.019002493765586034,-0.03026250043866315,
0.019052369077306733,0.025069026393648722,
0.019102244389027433,0.01524762176847625,
0.01915211970074813,-0.03464975155769968,
0.019201995012468828,-0.015911268991566547,
0.019251870324189527,0.004223280686230682,
0.019301745635910226,-0.015849032963235574,
0.01935162094763092,-0.014555512040470609,
0.01940149625935162,-0.01527378845642319,
0.01945137157107232,-0.008556609541072919,
0.01950124688279302,-0.012185964150944362,
0.019551122194513715,0.010777723206549334,
0.019600997506234414,-0.01990501610637572,
0.019650872817955113,0.020752938603915045,
0.01970074812967581,-0.01852646378333518,
0.019750623441396508,0.01651852969530843,
0.019800498753117207,-0.009851482246033442,
0.019850374064837906,0.005716851727526783,
0.019900249376558602,-0.0012199614000531853,
0.0199501246882793,-0.010542335654427144,
0.02,-0.017522140777650436,
0.0200498753117207,-0.000560809183676997,
0.020099750623441395,-4.20314520594503e-05,
0.020149625935162094,-0.005138901942181607,
0.020199501246882794,-0.014675143805710111,
0.020249376558603493,0.007180787366502902,
0.02029925187032419,-0.0018422698742023456,
0.020349127182044888,0.02134663961291595,
0.020399002493765587,0.011034185982328339,
0.020448877805486283,0.02291984668515405,
0.02049875311720698,0.0025837371009081195,
0.02054862842892768,-0.02970007001882322,
0.02059850374064838,-0.0011485161895357261,
0.020648379052369076,-0.020896164874784476,
0.020698254364089775,-0.016019821361717403,
0.020748129675810474,-0.013715852006757482,
0.020798004987531173,-0.021997284893905057,
0.02084788029925187,-0.010629505026560276,
0.020897755610972568,-0.017049438081156824,
0.020947630922693267,-0.01816756512026297,
0.020997506234413967,-0.019641312690284237,
0.021047381546134662,-0.018895238091795018,
0.02109725685785536,-0.031887150288700906,
0.02114713216957606,-0.008023710693369115,
0.02119700748129676,-0.013302947397736775,
0.021246882793017455,0.003573490918478847,
0.021296758104738155,-0.029133751828365754,
0.021346633416458854,-0.011006097118416578,
0.02139650872817955,-0.008814445705970047,
0.02144638403990025,-0.018084447195384455,
0.021496259351620948,-0.028430025360723706,
0.021546134663341647,-0.029515147388058716,
0.021596009975062343,-0.006226202015274051,
0.021645885286783042,-0.013503564211473168,
0.02169576059850374,-0.025362374379548466,
0.02174563591022444,0.001999515324991886,
0.021795511221945136,0.0004373445056840182,
0.021845386533665835,-0.01821973161027877,
0.021895261845386534,-0.008205393291204425,
0.021945137157107233,-0.009319085673712256,
0.02199501246882793,-0.03237262009610803,
0.02204488778054863,-0.008481247284635307,
0.022094763092269327,0.010242289054551514,
0.022144638403990027,-0.01619241942212847,
0.022194513715710722,-0.006258937761911318,
0.02224438902743142,-0.03541643280387338,
0.02229426433915212,-0.012562148755849475,
0.022344139650872816,-0.015900240312545822,
0.022394014962593516,-0.02301602558092668,
0.022443890274314215,-0.0248525665794028,
0.022493765586034914,-0.02280043830703935,
0.02254364089775561,-0.003967200257066893,
0.02259351620947631,-0.023483424271877808,
0.022643391521197008,-0.008903086116655447,
0.022693266832917707,-0.024331795330241088,
0.022743142144638403,-0.0005446864363847712,
0.022793017456359102,-0.01614740345041804,
0.0228428927680798,-0.019951320938527497,
0.0228927680798005,-0.023188202936526583,
0.022942643391521196,-0.0208093939857008,
0.022992518703241895,-0.02982805093777176,
0.023042394014962594,-0.018308793353356383,
0.02309226932668329,-0.014901885247017422,
0.02314214463840399,-0.022267201732461626,
0.02319201995012469,-0.03192426443096291,
0.023241895261845388,-0.050601637577725234,
0.023291770573566083,-0.012143896205762415,
0.023341645885286783,-0.04394237669276245,
0.02339152119700748,-0.02796195571029197,
0.02344139650872818,-0.03507936483821656,
0.023491271820448877,-0.028717612889850037,
0.023541147132169576,-0.011839958939833993,
0.023591022443890275,-0.003951646794741567,
0.023640897755610974,-0.018776835318338504,
0.02369077306733167,-0.021091892779604195,
0.02374064837905237,-0.022235326555621077,
0.023790523690773068,-0.027028460687057325,
0.023840399002493767,-0.025488344274114668,
0.023890274314214463,-0.020292738265556144,
0.023940149625935162,-0.007153539326155204,
0.02399002493765586,0.01157139412244989,
0.024039900249376557,-0.021810061386181356,
0.024089775561097256,-0.016702867858007637,
0.024139650872817955,-0.018486140734964428,
0.024189526184538655,0.008866845722264115,
0.02423940149625935,-0.021963136213402738,
0.02428927680798005,-0.05062890968373622,
0.02433915211970075,-0.029169145234569035,
0.024389027431421448,-0.014923104931396666,
0.024438902743142144,-0.010672316409826414,
0.024488778054862843,-0.020921343291284318,
0.024538653366583542,-0.018206984522832235,
0.02458852867830424,-0.012730439359136352,
0.024638403990024937,-0.005422252652387521,
0.024688279301745636,-0.013465165160819262,
0.024738154613466335,-0.0030624259521863546,
0.02478802992518703,-0.008950181591008452,
0.02483790523690773,0.00946208824436728,
0.02488778054862843,0.01425532908594123,
0.02493765586034913,-0.014259250013689988,
0.024987531172069824,-0.03851256492814649,
0.025037406483790523,-0.016810155594229534,
0.025087281795511222,-0.013790463874705451,
0.02513715710723192,-0.02401686947109736,
0.025187032418952617,-0.017684932923483443,
0.025236907730673316,-0.005710032927722817,
0.025286783042394016,-0.02544783921173229,
0.025336658354114715,-0.011093349137780047,
0.02538653366583541,-0.04538689972548941,
0.02543640897755611,-0.012720947548702045,
0.02548628428927681,-0.021427411727537954,
0.025536159600997508,-0.016181807696137432,
0.025586034912718204,-0.016186176172589908,
0.025635910224438903,0.004609390141626098,
0.025685785536159602,-0.029314642256766027,
0.025735660847880298,0.010070784916918513,
0.025785536159600997,-0.014233336771131252,
0.025835411471321696,-0.011721210329303306,
0.025885286783042395,-0.007204890472808382,
0.02593516209476309,-0.03332676715439461,
0.02598503740648379,-0.013360545359233101,
0.02603491271820449,-0.015111175894306335,
0.02608478802992519,-0.028467675106028524,
0.026134663341645884,-0.019729726851001085,
0.026184538653366583,-0.0016321794140603425,
0.026234413965087282,0.0002224974814284096,
0.02628428927680798,0.01386990263274243,
0.026334164588528677,-0.00832416106459944,
0.026384039900249377,-0.030381525025705042,
0.026433915211970076,0.0061373848668314045,
0.02648379052369077,0.015829048172190288,
0.02653366583541147,0.0074895350556022835,
0.02658354114713217,-0.0014704529497449274,
0.02663341645885287,-0.010049358543554964,
0.026683291770573565,-0.018707507929010735,
0.026733167082294264,0.0047807631999956315,
0.026783042394014963,0.0007179560733391304,
0.026832917705735662,-0.004464189870073941,
0.026882793017456358,0.026604611226669635,
0.026932668329177057,-0.01141546537037198,
0.026982543640897756,-0.009677161914483345,
0.027032418952618455,-0.03395237787541816,
0.02708229426433915,-0.003000859016945573,
0.02713216957605985,-0.018231273769988926,
0.02718204488778055,-0.00412173761738891,
0.02723192019950125,0.007868805073038202,
0.027281795511221944,0.0008431460785836929,
0.027331670822942643,-0.01129771343861253,
0.027381546134663343,-0.041706790464541836,
0.02743142144638404,-0.012622115688787062,
0.027481296758104738,0.011826241470671522,
0.027531172069825437,-0.012979365986439641,
0.027581047381546136,0.006025024175422701,
0.02763092269326683,-0.025080777699578408,
0.02768079800498753,-0.0032387764613911523,
0.02773067331670823,-0.030598590459076563,
0.02778054862842893,0.000943105764034391,
0.027830423940149625,-0.008403384760515987,
0.027880299251870324,0.0025968039120433007,
0.027930174563591023,-0.01386105761079067,
0.027980049875311722,0.00735333737624161,
0.028029925187032418,-0.00851274224484565,
0.028079800498753117,0.0010175371271406543,
0.028129675810473816,-0.0005659801056881863,
0.028179551122194512,0.016926907947932373,
0.02822942643391521,-0.036959039501544236,
0.02827930174563591,-0.0006144751665289369,
0.02832917705735661,-0.007159923347270538,
0.028379052369077305,0.01134358243505674,
0.028428927680798004,0.028118860317988544,
0.028478802992518704,0.024436626673793475,
0.028528678304239403,0.001129970542896315,
0.0285785536159601,0.017025377357349263,
0.028628428927680798,0.00022956119539657314,
0.028678304239401497,0.013516759820885463,
0.028728179551122196,0.014213244180380506,
0.02877805486284289,-0.000582685836474809,
0.02882793017456359,0.012785517243229644,
0.02887780548628429,-0.0014350883535627548,
0.02892768079800499,0.018583564807932558,
0.028977556109725685,0.009606406733352378,
0.029027431421446384,-0.011887673839480398,
0.029077306733167083,0.020113579226957997,
0.02912718204488778,0.0006282739376864636,
0.029177057356608478,-0.02143948405341357,
0.029226932668329177,0.02441213084860685,
0.029276807980049877,-0.021184324940465897,
0.029326683291770572,0.02459203351397564,
0.02937655860349127,0.0011920021804820036,
0.02942643391521197,0.018370985618168995,
0.02947630922693267,0.01824307118255435,
0.029526184538653365,0.001696506085864068,
0.029576059850374065,-0.012063034333715092,
0.029625935162094764,0.009228434209897636,
0.029675810473815463,-0.02738199616268598,
0.02972568578553616,-0.006461851564671743,
0.029775561097256858,0.016546040309058735,
0.029825436408977557,0.025007687074072832,
0.029875311720698253,0.010160679246323457,
0.029925187032418952,-0.015539774241298786,
0.02997506234413965,-0.008052412738621431,
0.03002493765586035,0.025939120180395264,
0.030074812967581046,0.0022525053151935,
0.030124688279301745,-0.008722709842854753,
0.030174563591022444,0.025403960723116653,
0.030224438902743143,0.013637330963599058,
0.03027431421446384,0.019211241899399312,
0.03032418952618454,0.027799182824773585,
0.030374064837905237,0.0003896248572153767,
0.030423940149625937,8.997050684092858e-05,
0.030473815461346632,0.027193826619236364,
0.03052369077306733,0.00535116168503812,
0.03057356608478803,0.03142019212352753,
0.03062344139650873,0.016217175774892477,
0.030673316708229426,0.003353890015635184,
0.030723192019950125,0.015785097024762638,
0.030773067331670824,0.014588918818674017,
0.03082294264339152,0.02332903148045749,
0.03087281795511222,0.008022009315860536,
0.030922693266832918,-0.024222481238096644,
0.030972568578553617,0.011040267926522664,
0.031022443890274313,0.006379851008063974,
0.031072319201995012,0.03608686040042046,
0.03112219451371571,0.02678633911828692,
0.03117206982543641,0.010589437187482828,
0.031221945137157106,0.007865607962958477,
0.03127182044887781,0.021229205653646704,
0.031321695760598504,0.03635766267114686,
0.0313715710723192,0.013126415383102188,
0.0314214463840399,0.007277622408095812,
0.0314713216957606,0.017898206052309115,
0.031521197007481294,0.020003328314174347,
0.031571072319202,0.039342508946568294,
0.03162094763092269,0.024428724108726575,
0.03167082294264339,0.021767426074048916,
0.03172069825436409,0.012519680229114906,
0.03177057356608479,0.03233733715076464,
0.03182044887780549,0.024262771797289875,
0.031870324189526185,0.012468633619939825,
0.03192019950124688,0.021525988877105884,
0.03197007481296758,0.013422052960508437,
0.03201995012468828,0.0356157601501817,
0.032069825436408975,0.00951359886956925,
0.03211970074812968,0.01330946490350311,
0.03216957605985037,0.015324083359096876,
0.032219451371571076,0.006766255941797165,
0.03226932668329177,0.020546171721596992,
0.03231920199501247,0.0024281335253052913,
0.03236907730673317,0.03192283686449224,
0.032418952618453865,0.012381639605770236,
0.03246882793017456,0.047078059586213736,
0.032518703241895264,0.003080812327726879,
0.03256857855361596,0.026386883977456234,
0.032618453865336655,0.027144441763798398,
0.03266832917705736,0.020799599347265184,
0.032718204488778053,0.04474519626311112,
0.032768079800498756,0.04129180460847283,
0.03281795511221945,0.006540747594739608,
0.03286783042394015,0.03769117474027608,
0.03291770573566085,0.029889749547188486,
0.032967581047381546,0.013982213991446517,
0.03301745635910224,0.04189555658333209,
0.033067331670822944,0.03993599048416569,
0.03311720698254364,0.010134310691020687,
0.03316708229426434,0.00609882869902606,
0.03321695760598504,0.02687579994385622,
0.033266832917705734,0.028097691397998822,
0.03331670822942644,0.001980075296156413,
0.03336658354114713,0.06590496828804578,
0.03341645885286783,0.028763615880678647,
0.03346633416458853,0.019241459871192225,
0.033516209476309226,0.0258856985177735,
0.03356608478802992,0.022911794324898187,
0.033615960099750625,0.014293460246989778,
0.03366583541147132,0.028737786182005447,
0.03371571072319202,0.02123170300677511,
0.03376558603491272,0.011521968793978325,
0.033815461346633414,0.014030770890056941,
0.03386533665835412,0.034355691364888204,
0.03391521197007481,0.018865986046943617,
0.03396508728179551,0.0005660953456806256,
0.03401496259351621,0.021915891743784364,
0.03406483790523691,-0.0032629530718265853,
0.0341147132169576,-0.011497644485479009,
0.034164588528678305,0.014218277010064806,
0.034214463840399,0.013914448152722006,
0.034264339152119704,0.01464885103916424,
0.0343142144638404,0.01755005154603142,
0.034364089775561095,0.018153510872594536,
0.0344139650872818,0.01837203422152148,
0.03446384039900249,0.03439919631439879,
0.03451371571072319,0.015028844781341578,
0.03456359102244389,-0.0012233987339595326,
0.03461346633416459,0.03496312879615619,
0.03466334164588529,-0.008758578191439988,
0.034713216957605986,0.027601671224820826,
0.03476309226932668,0.0293145525124745,
0.034812967581047384,0.018155922366856092,
0.03486284289276808,0.004967134030049423,
0.034912718204488775,0.025383610663909963,
0.03496259351620948,0.02083921507024529,
0.035012468827930174,0.02529846887360069,
0.03506234413965087,0.01727151780245524,
0.03511221945137157,0.007952457362328877,
0.03516209476309227,0.027360200848888332,
0.03521197007481297,0.033627655333677384,
0.035261845386533666,0.018797761572437375,
0.03531172069825436,0.03147057784118847,
0.035361596009975065,0.012684559531103451,
0.03541147132169576,0.012140510683016118,
0.035461346633416456,0.026071663701110477,
0.03551122194513716,0.013506580292195206,
0.035561097256857854,-0.004567881331756122,
0.03561097256857856,0.04127157481308097,
0.03566084788029925,0.02451553803510855,
0.03571072319201995,0.029654170933001003,
0.03576059850374065,0.04243655531808991,
0.03581047381546135,0.018276741623511773,
0.03586034912718204,0.01938625279255135,
0.035910224438902745,-0.020537022520910535,
0.03596009975062344,0.015125757231502193,
0.036009975062344136,0.025586904501612433,
0.03605985037406484,0.05781633191544169,
0.036109725685785535,0.032616867445229375,
0.03615960099750624,0.02691571280929382,
0.03620947630922693,0.022137448086883,
0.03625935162094763,0.001996806643855471,
0.03630922693266833,0.000535922089044719,
0.03635910224438903,0.03858767185382088,
0.03640897755610972,-0.002014017474932482,
0.036458852867830426,0.008472194834920429,
0.03650872817955112,0.012963205934878251,
0.036558603491271824,0.009005459502617889,
0.03660847880299252,0.01107132850329306,
0.036658354114713215,0.01238996092039057,
0.03670822942643392,0.0027279806663148432,
0.036758104738154614,0.011165499274262641,
0.03680798004987531,0.011720104009665852,
0.03685785536159601,0.01436712537479452,
0.03690773067331671,0.02015865357044031,
0.0369576059850374,-0.019270196372334177,
0.037007481296758106,0.004822666572832326,
0.0370573566084788,0.02259337351773713,
0.037107231920199504,-0.006520757155245202,
0.0371571072319202,0.0071316390378837625,
0.037206982543640896,0.020355417341601525,
0.0372568578553616,0.016205481775138038,
0.037306733167082294,0.015164327636985601,
0.03735660847880299,0.012468032803246022,
0.03740648379052369,0.016434960522219252,
0.03745635910224439,0.024028077632703905,
0.037506234413965084,0.030939067731583534,
0.037556109725685786,0.016442720846966997,
0.03760598503740648,0.002624345942221628,
0.037655860349127185,-0.016458261375113466,
0.03770573566084788,-0.009911540741970898,
0.037755610972568576,0.016659726295170346,
0.03780548628428928,0.010133452033212063,
0.037855361596009975,0.054669261733210066,
0.03790523690773067,-0.0027155179502561747,
0.03795511221945137,-0.01596589417267434,
0.03800498753117207,0.013925315707398453,
0.03805486284289277,-0.020143403641972448,
0.03810473815461347,0.016853417109543616,
0.03815461346633416,-0.0007526511369010096,
0.038204488778054865,-0.012955396511157478,
0.03825436408977556,-0.003941249279935045,
0.03830423940149626,-0.014225481517755684,
0.03835411471321696,0.007562357326221805,
0.038403990024937655,-0.01107758084592561,
0.03845386533665835,-0.042248025141476755,
0.03850374064837905,0.0036546578570047965,
0.03855361596009975,0.009584875710784715,
0.03860349127182045,0.013734102933032373,
0.03865336658354115,0.023218977758012377,
0.03870324189526184,-0.0032702398469128904,
0.038753117206982546,0.016508059951280744,
0.03880299251870324,-0.016550612327085892,
0.03885286783042394,0.018214091078271183,
0.03890274314214464,0.015058841864787403,
0.038952618453865336,-0.015235775829791178,
0.03900249376558604,0.013592551445781323,
0.039052369077306734,-0.01686964634710504,
0.03910224438902743,0.005270755598427044,
0.03915211970074813,-0.008513146058745171,
0.03920199501246883,-0.006782323142629361,
0.039251870324189524,-0.009325774208624616,
0.039301745635910226,-0.017368800250709922,
0.03935162094763092,0.011689035643862674,
0.03940149625935162,-0.009736619050399851,
0.03945137157107232,-0.009211040344958682,
0.039501246882793016,0.03054888578745705,
0.03955112219451372,-0.01152659199548476,
0.039600997506234414,-0.0029679845767941796,
0.03965087281795511,0.000891993258830168,
0.03970074812967581,-0.015413326507440572,
0.03975062344139651,-0.0005455442896530769,
0.039800498753117204,0.0006199023132983069,
0.03985037406483791,0.011619429048490434,
0.0399002493765586,-0.03384991294929773,
0.039950124688279305,-0.00041006636128331983,
0.04,-0.025123661459516382,
0.0400498753117207,-0.010242894985031621,
0.0400997506234414,-0.015327519697150852,
0.040149625935162095,-0.03002693925516559,
0.04019950124688279,-0.027542464172101662,
0.04024937655860349,-0.027866079954207208,
0.04029925187032419,-0.012342352077273085,
0.040349127182044885,-0.013435708161625832,
0.04039900249376559,0.004091980801752109,
0.04044887780548628,0.0006300740673320683,
0.040498753117206986,-0.017752307544326155,
0.04054862842892768,-0.014762662450744856,
0.04059850374064838,-0.01527667763506332,
0.04064837905236908,-0.006675936998474954,
0.040698254364089775,-0.0010937238492153018,
0.04074812967581047,-0.004943396520652439,
0.040798004987531174,-0.0049760207354003815,
0.04084788029925187,-0.013161740649215648,
0.040897755610972565,-0.030424686380957494,
0.04094763092269327,-0.019137674568354815,
0.04099750623441396,-0.02577319204821662,
0.041047381546134666,-0.00834637011756345,
0.04109725685785536,-0.021812636925489536,
0.04114713216957606,-0.019724572252904395,
0.04119700748129676,0.006900662358787491,
0.041246882793017456,-0.006292178458647751,
0.04129675810473815,-0.03054386779188239,
0.041346633416458854,-0.020488565702708683,
0.04139650872817955,-0.02503180274858377,
0.04144638403990025,-0.013134417889891722,
0.04149625935162095,-0.022003889468512644,
0.041546134663341644,0.013372134299180709,
0.04159600997506235,-0.015460371634317542,
0.04164588528678304,0.005146446707424221,
0.04169576059850374,-0.029306170797830818,
0.04174563591022444,-0.041553328852247176,
0.041795511221945136,-0.02082421288850143,
0.04184538653366583,-0.031570654252343074,
0.041895261845386535,-0.008790451396512355,
0.04194513715710723,-0.01435916019232477,
0.04199501246882793,0.008226221021291868,
0.04204488778054863,-0.036614087700698926,
0.042094763092269324,0.001343461270723113,
0.04214463840399003,0.0018109088083668491,
0.04219451371571072,-0.0067214930709959455,
0.04224438902743142,-0.005334038065483394,
0.04229426433915212,0.018845416498781152,
0.04234413965087282,-0.005790857091504979,
0.04239401496259352,-0.015282411722472772,
0.042443890274314215,-0.010666888881521399,
0.04249376558603491,0.0004711929470384152,
0.042543640897755614,-0.02021299678001786,
0.04259351620947631,-0.04032240582940694,
0.042643391521197005,-0.007764902355415378,
0.04269326683291771,-0.015078831083038527,
0.0427431421446384,-0.025670435620975214,
0.0427930174563591,0.001962225681445662,
0.0428428927680798,-0.0031383053596989764,
0.0428927680798005,-0.02070964604135764,
0.0429426433915212,-0.015466058593837562,
0.042992518703241896,-0.01734352436331659,
0.04304239401496259,-0.02996027978840746,
0.043092269326683294,-0.02121774404807071,
0.04314214463840399,0.0002726166580130085,
0.043192019950124685,0.0027871293201767455,
0.04324189526184539,-0.024550955898374974,
0.043291770573566084,-0.024693945797527247,
0.043341645885286786,-0.027156908449320026,
0.04339152119700748,0.004100118792119488,
0.04344139650872818,0.011568155506508929,
0.04349127182044888,-0.008682365833543624,
0.043541147132169576,-0.04115683371454488,
0.04359102244389027,-0.010585934901705403,
0.043640897755610975,-0.028581860749275427,
0.04369077306733167,-0.00853174198578944,
0.043740648379052366,-0.02203452235296638,
0.04379052369077307,-0.025167530689146414,
0.043840399002493764,-0.017061155230568788,
0.04389027431421447,0.0024665963441157825,
0.04394014962593516,-0.0032041540710768725,
0.04399002493765586,-0.010972300956079345,
0.04403990024937656,-0.004552983258953055,
0.04408977556109726,-0.0077557926307521945,
0.04413965087281795,-0.003999178541596487,
0.044189526184538655,-0.02556881155034435,
0.04423940149625935,-0.04800280994814054,
0.04428927680798005,-0.03970571987188452,
0.04433915211970075,-0.050092022448687934,
0.044389027431421445,-0.00030827841054095403,
0.04443890274314215,-0.013178945785421307,
0.04448877805486284,-0.05069972371198871,
0.04453865336658354,-0.011772779296262057,
0.04458852867830424,-0.04012438392400354,
0.04463840399002494,-0.03460927127563432,
0.04468827930174563,-0.011932872005724519,
0.044738154613466335,-0.021850662918409626,
0.04478802992518703,-0.0192110240740446,
0.044837905236907734,-0.020123058976555426,
0.04488778054862843,-0.0005901487905554618,
0.044937655860349125,0.0010992800456177433,
0.04498753117206983,-0.002345419793118567,
0.045037406483790524,0.0035495566637393002,
0.04508728179551122,0.002754740687562934,
0.04513715710723192,-0.012390372599122648,
0.04518703241895262,-0.03368737313581132,
0.04523690773067331,0.01811717388619515,
0.045286783042394016,0.003703933532323834,
0.04533665835411471,0.021422628024995748,
0.045386533665835414,-0.03892359539151228,
0.04543640897755611,-0.004385541838728356,
0.045486284289276806,-0.003682920542830311,
0.04553615960099751,-0.0127689760321933,
0.045586034912718204,-0.023670864816598382,
0.0456359102244389,0.010043241358428922,
0.0456857855361596,-0.001899418411507675,
0.0457356608478803,0.008068710174102855,
0.045785536159601,-0.026539042674460014,
0.045835411471321696,-0.005023763282828656,
0.04588528678304239,-0.01651807118119182,
0.045935162094763095,0.0008017411315080405,
0.04598503740648379,-0.025617180116345017,
0.046034912718204486,-0.01566341649189476,
0.04608478802992519,-0.026459148931714183,
0.046134663341645885,-0.020152787045642558,
0.04618453865336658,-0.019931021345599126,
0.04623441396508728,-0.014244015232384739,
0.04628428927680798,-0.005910671718758561,
0.04633416458852868,-0.002210703495973388,
0.04638403990024938,-0.010267574590349594,
0.04643391521197007,0.025824708789846912,
0.046483790523690775,-0.03380089873201205,
0.04653366583541147,-0.015817307159705703,
0.04658354114713217,-0.010644367095551208,
0.04663341645885287,0.002013760533047292,
0.046683291770573565,0.00495947192856739,
0.04673316708229427,-0.02495612491902579,
0.04678304239401496,-0.004849930892459569,
0.04683291770573566,0.02123302695526667,
0.04688279301745636,-0.006049299346329999,
0.04693266832917706,-0.001762220213773235,
0.04698254364089775,0.018939979033172086,
0.047032418952618456,0.011619574500690627,
0.04708229426433915,-0.02968572028088072,
0.04713216957605985,0.004785096947690611,
0.04718204488778055,-0.0045910894872552045,
0.047231920199501246,-0.019548400825002685,
0.04728179551122195,-0.00010947612122436546,
0.047331670822942644,-0.02023897603523279,
0.04738154613466334,0.008426096008844119,
0.04743142144638404,-0.002494928568055343,
0.04748129675810474,0.024838998766415786,
0.047531172069825434,-0.028443883972238227,
0.047581047381546136,-0.0038293205249240975,
0.04763092269326683,0.018189623626355123,
0.047680798004987535,-0.004723718087972725,
0.04773067331670823,0.006188216883643777,
0.047780548628428926,0.015266808008630586,
0.04783042394014963,-0.005779367760600624,
0.047880299251870324,0.007835350612269637,
0.04793017456359102,-0.017821673472845582,
0.04798004987531172,-0.0036546546941222924,
0.04802992518703242,0.005807083200301033,
0.048079800498753114,0.012833094928024917,
0.04812967581047382,-0.006664975063424554,
0.04817955112219451,-0.006500976950084096,
0.048229426433915215,0.01758782817579659,
0.04827930174563591,0.012248951898476818,
0.048329177057356607,0.018718470455730562,
0.04837905236907731,0.00507562414494413,
0.048428927680798005,-0.02550502106622653,
0.0484788029925187,-0.005706867458546468,
0.0485286783042394,-0.005034841819446333,
0.0485785536159601,0.025933039468588368,
0.048628428927680795,-0.016628347583208983,
0.0486783042394015,-0.0027458546962209297,
0.04872817955112219,0.011449388660536311,
0.048778054862842896,0.0033603946753405617,
0.04882793017456359,0.01399271527972101,
0.04887780548628429,0.007018316969256109,
0.04892768079800499,0.01872140630185802,
0.048977556109725685,-0.002594788558676504,
0.04902743142144638,0.009194438800670515,
0.049077306733167084,0.00485573638733826,
0.04912718204488778,0.019943033214714072,
0.04917705735660848,0.01778858458740082,
0.04922693266832918,0.02012893223239802,
0.04927680798004987,-0.01378070671625213,
0.049326683291770576,0.031489532596476105,
0.04937655860349127,-0.0009504808114756454,
0.04942643391521197,-0.0023402616624837065,
0.04947630922693267,-0.02667555286197207,
0.049526184538653366,-0.010677886515608349,
0.04957605985037406,0.031514964098727616,
0.049625935162094764,0.008740644290977363,
0.04967581047381546,0.03615278391163092,
0.04972568578553616,0.008251761931867618,
0.04977556109725686,0.03102649757120906,
0.049825436408977554,0.001986310696336431,
0.04987531172069826,0.015542941513015046,
0.04992518703241895,-0.008068086179210284,
0.04997506234413965,0.006528435881129937,
0.05002493765586035,0.008213192491718712,
0.050074812967581046,0.017828655577510646,
0.05012468827930175,0.015680568384737782,
0.050174563591022445,6.345323882106513e-05,
0.05022443890274314,0.0030039605169774747,
0.05027431421446384,-0.0073592091641742526,
0.05032418952618454,0.005598541801236187,
0.050374064837905234,-0.003405988679647292,
0.05042394014962594,0.02998057586185085,
0.05047381546134663,0.012253229603202454,
0.05052369077306733,-0.0035477633730351087,
0.05057356608478803,0.01987006040453503,
0.05062344139650873,0.023168687194580276,
0.05067331670822943,0.005044208292759606,
0.050723192019950125,0.026144568948272152,
0.05077306733167082,0.013086193073585613,
0.050822942643391524,0.031191690136643545,
0.05087281795511222,0.01031528672039609,
0.050922693266832915,0.03468031157759996,
0.05097256857855362,0.05021720567568872,
0.05102244389027431,0.01586860984196947,
0.051072319201995016,0.008488312340511612,
0.05112219451371571,0.014680616067293394,
0.05117206982543641,0.02125205402049844,
0.05122194513715711,0.007483080117197959,
0.051271820448877806,0.02368050422186114,
0.0513216957605985,0.0349350660945171,
0.051371571072319204,0.03313594882417335,
0.0514214463840399,-0.007567684885801115,
0.051471321695760595,0.017873484373909544,
0.0515211970074813,0.020993223633314836,
0.051571072319201994,0.012035617859303283,
0.051620947630922696,0.015293306044007499,
0.05167082294264339,0.02504953844100933,
0.05172069825436409,0.04867378177452343,
0.05177057356608479,0.0018089588916664796,
0.051820448877805486,0.050879391791944124,
0.05187032418952618,0.03162559976813882,
0.051920199501246884,0.04638160599730343,
0.05197007481296758,0.016794666618395,
0.052019950124688276,0.000853947749025228,
0.05206982543640898,0.024197539057625488,
0.052119700748129674,0.028820574291342726,
0.05216957605985038,0.015592471618917605,
0.05221945137157107,0.022278833550163163,
0.05226932668329177,0.050257360937382825,
0.05231920199501247,0.02069469366898051,
0.05236907730673317,-0.006321775229662412,
0.05241895261845386,0.037517090235668925,
0.052468827930174565,0.005661042017697706,
0.05251870324189526,0.018898587759608117,
0.05256857855361596,0.02750098421837901,
0.05261845386533666,0.01572906172048682,
0.052668329177057355,0.018146215498040477,
0.05271820448877806,0.02098741607731507,
0.05276807980049875,0.03471335430352615,
0.05281795511221945,0.044041672590244316,
0.05286783042394015,0.013456018759097558,
0.05291770573566085,0.026989981520518343,
0.05296758104738154,0.04991730141843896,
0.053017456359102245,0.00980961520946449,
0.05306733167082294,0.016614018530135465,
0.053117206982543644,0.019371100880725307,
0.05316708229426434,0.020212111410806574,
0.053216957605985035,0.013270519091251239,
0.05326683291770574,0.018011123395931104,
0.053316708229426434,0.052824620070510836,
0.05336658354114713,0.010659124162704767,
0.05341645885286783,0.01833420659759704,
0.05346633416458853,0.0030241026301447357,
0.05351620947630923,-0.0026098305205056425,
0.053566084788029926,0.025917076722096463,
0.05361596009975062,0.013702945727328508,
0.053665835411471324,0.0420158751837124,
0.05371571072319202,0.046810822562392204,
0.053765586034912716,0.00524642528254032,
0.05381546134663342,0.046290173072202664,
0.053865336658354114,0.01939889115026561,
0.05391521197007481,0.03508765368285204,
0.05396508728179551,0.01903614865087655,
0.05401496259351621,0.017730685660809355,
0.05406483790523691,0.0010181641385292976,
0.054114713216957606,0.018153054202792913,
0.0541645885286783,0.02178836446680834,
0.054214463840399005,0.025063769235047294,
0.0542643391521197,0.02220517554098806,
0.054314214463840396,0.0022212006563880685,
0.0543640897755611,0.027492830150359044,
0.054413965087281795,0.04220705439302487,
0.0544638403990025,0.03460484895481654,
0.05451371571072319,0.03459726546357955,
0.05456359102244389,0.010547267963135818,
0.05461346633416459,0.01799378574484496,
0.05466334164588529,0.029332443404590323,
0.05471321695760598,0.003771584758212123,
0.054763092269326685,0.011934215825378316,
0.05481296758104738,0.029475266593473683,
0.05486284289276808,0.0016343825270916344,
0.05491271820448878,0.012088742706914337,
0.054962593516209475,0.012522175364478291,
0.05501246882793018,0.023985970560455178,
0.05506234413965087,0.013406499905986614,
0.05511221945137157,0.02576973889811554,
0.05516209476309227,0.007265548878979636,
0.05521197007481297,0.010958786988652191,
0.05526184538653366,0.012959149980772895,
0.055311720698254366,0.01928689473366507,
0.05536159600997506,-0.006807382036209161,
0.05541147132169576,0.026861917287170942,
0.05546134663341646,0.02187163811901667,
0.055511221945137156,0.023182357686565166,
0.05556109725685786,0.021267933788722652,
0.055610972568578554,0.009399943203257807,
0.05566084788029925,0.012868666309842632,
0.05571072319201995,0.0411706681937838,
0.05576059850374065,0.016013320313212433,
0.055810473815461344,0.028769217293938158,
0.055860349127182046,0.04009533926430962,
0.05591022443890274,0.0033791096300047115,
0.055960099750623445,0.013046771823621666,
0.05600997506234414,0.0035317507626635037,
0.056059850374064836,0.005192245871084883,
0.05610972568578554,0.02588013794741604,
0.056159600997506234,0.0654544163146306,
0.05620947630922693,0.007167861006199603,
0.05625935162094763,0.0013147000700032812,
0.05630922693266833,0.007294853354216339,
0.056359102244389024,0.04078514623314804,
0.05640897755610973,0.013225345739207753,
0.05645885286783042,0.025043750533544067,
0.056508728179551125,0.032660693455437,
0.05655860349127182,0.032720197602582046,
0.056608478802992516,-0.003937907514510125,
0.05665835411471322,0.018153781909993207,
0.056708229426433915,0.022583343295363545,
0.05675810473815461,0.012224089402079707,
0.05680798004987531,0.035739558305982466,
0.05685785536159601,0.00398217187072053,
0.05690773067331671,0.03534181440737369,
0.05695760598503741,0.027351508017308235,
0.0570074812967581,0.007226436736509364,
0.057057356608478806,0.006857953862806381,
0.0571072319201995,0.007328972286652663,
0.0571571072319202,0.002047844648946043,
0.0572069825436409,0.03601555812777946,
0.057256857855361595,0.03653265113934208,
0.05730673316708229,0.015253225016884111,
0.057356608478802994,0.010816753930495823,
0.05740648379052369,0.0033435491556495786,
0.05745635910224439,0.00871077398545923,
0.05750623441396509,0.024684426648122877,
0.05755610972568578,0.026172678836121944,
0.057605985037406486,-0.0034343242605378247,
0.05765586034912718,0.044356867517241966,
0.05770573566084788,0.010782454047429783,
0.05775561097256858,0.007860006969465374,
0.057805486284289276,0.0329306535679721,
0.05785536159600998,0.011085046194546493,
0.057905236907730674,0.013116275442172403,
0.05795511221945137,-0.0033519913160495523,
0.05800498753117207,0.015136025648785585,
0.05805486284289277,0.003941395789762138,
0.058104738154613464,0.006761783779230179,
0.05815461346633417,0.01996686784699574,
0.05820448877805486,0.007345793881491801,
0.05825436408977556,0.02443663254536017,
0.05830423940149626,0.015602305822175283,
0.058354114713216956,0.0069844666107342235,
0.05840399002493766,-0.0038128624674413584,
0.058453865336658355,0.010956682987332402,
0.05850374064837905,-0.009013240599175326,
0.05855361596009975,0.017819364425028912,
0.05860349127182045,-0.005436586853079143,
0.058653366583541144,0.010716063439687581,
0.05870324189526185,0.005740794425263787,
0.05875311720698254,-0.008825798013855314,
0.05880299251870324,0.00818714355955776,
0.05885286783042394,-0.019136999510752935,
0.05890274314214464,0.010701871492376804,
0.05895261845386534,4.106514799454095e-05,
0.059002493765586035,-0.001986677481820595,
0.05905236907730673,0.019427861226160012,
0.059102244389027433,-0.003161818538355612,
0.05915211970074813,-0.005840740101605959,
0.059201995012468825,0.016841818031436077,
0.05925187032418953,0.0036528402400829137,
0.05930174563591022,0.003422249294796253,
0.059351620947630926,-0.016255744345761866,
0.05940149625935162,-0.0007058840542548735,
0.05945137157107232,0.030382257843145688,
0.05950124688279302,0.02757475862193581,
0.059551122194513716,0.0012145038070183571,
0.05960099750623441,-0.024273755051276436,
0.059650872817955114,0.013802039182803606,
0.05970074812967581,0.017328957482831354,
0.059750623441396505,0.00405950225566621,
0.05980049875311721,0.0026547833366943703,
0.059850374064837904,-0.0116322698458632,
0.059900249376558606,0.012094081393960029,
0.0599501246882793,-0.01261036218136745,
0.06,-0.02914246349330299,
0.0600498753117207,0.008960775551220384,
0.060099750623441396,-0.028185544094543092,
0.06014962593516209,-0.00938975659804741,
0.060199501246882794,-0.02030663450378267,
0.06024937655860349,0.014318829470825165,
0.06029925187032419,0.009510297567339315,
0.06034912718204489,-0.01413744637520322,
0.060399002493765584,-0.015535073771129674,
0.06044887780548629,-0.012594289616407678,
0.06049875311720698,-0.03324374964109246,
0.06054862842892768,-0.0030210404740150885,
0.06059850374064838,0.004650353626844737,
0.06064837905236908,0.0017221984841046482,
0.06069825436408977,-0.023753719521848383,
0.060748129675810475,0.005805017322821144,
0.06079800498753117,-0.01013499858061331,
0.06084788029925187,-0.001084635058476946,
0.06089775561097257,-0.05283721070040688,
0.060947630922693265,-0.004218616941073981,
0.06099750623441397,-0.0003936802233323964,
0.06104738154613466,-0.004001340143433111,
0.06109725685785536,-0.014580429705823806,
0.06114713216957606,-0.023460662735387685,
0.06119700748129676,-0.0006042061848547126,
0.06124688279301746,-0.0227381010382769,
0.061296758104738155,0.0030186445065603154,
0.06134663341645885,-0.0030125539447739963,
0.061396508728179554,-0.006453301642940933,
0.06144638403990025,-0.013874106916006768,
0.061496259351620945,-0.01840027437944112,
0.06154613466334165,-0.025773649584857856,
0.061596009975062344,-0.02358810830003874,
0.06164588528678304,-0.004156249650133477,
0.06169576059850374,-0.015115429667888893,
0.06174563591022444,-0.012921547921062732,
0.06179551122194514,-0.006647483468263709,
0.061845386533665836,-0.02502505785129557,
0.06189526184538653,-0.017855197795194244,
0.061945137157107234,-0.011369180971222106,
0.06199501246882793,0.01246735847826707,
0.062044887780548626,-0.01826913468047511,
0.06209476309226933,-0.011257766747757018,
0.062144638403990024,0.015045983640076484,
0.06219451371571072,-0.05550397201807515,
0.06224438902743142,-0.015641540140036957,
0.06229426433915212,-0.02681555843332347,
0.06234413965087282,0.0003975964646917192,
0.062394014962593516,-0.006692027129783103,
0.06244389027431421,-0.0025720612883966595,
0.062493765586034915,-0.003413145699413634,
0.06254364089775562,-0.013255314362222166,
0.06259351620947631,0.00923355889666455,
0.06264339152119701,-0.003862495857928026,
0.0626932668329177,-0.01297661261700085,
0.0627431421446384,-0.010095525201468674,
0.0627930174563591,-0.004164515986109731,
0.0628428927680798,-0.03105723740575366,
0.0628927680798005,0.002181134736313567,
0.0629426433915212,-0.005247728778853341,
0.06299251870324189,-0.006474260439268237,
0.06304239401496259,-0.00417021241343845,
0.0630922693266833,-0.021786125603212907,
0.063142144638404,-0.0229942410375999,
0.06319201995012469,-0.008575997219825295,
0.06324189526184539,-0.03465140610724979,
0.06329177057356608,-0.003937288561299943,
0.06334164588528678,-0.004192451549181684,
0.06339152119700749,-0.013794078191681616,
0.06344139650872818,0.012599516033725753,
0.06349127182044888,-0.00242195943261711,
0.06354114713216957,-0.022942623781978276,
0.06359102244389027,0.02052496510739681,
0.06364089775561098,0.002627410759797555,
0.06369077306733167,-0.005468308249869944,
0.06374064837905237,-0.01696054747118708,
0.06379052369077307,-0.029913328807401034,
0.06384039900249376,-0.037382324766393256,
0.06389027431421446,-0.011492389403569857,
0.06394014962593517,-0.011754548454538466,
0.06399002493765586,-0.031174768838966496,
0.06403990024937656,-0.02617003080977643,
0.06408977556109725,-0.012276569887391058,
0.06413965087281795,-0.025236091249998278,
0.06418952618453866,-0.03913603222086885,
0.06423940149625935,-0.002368106115328169,
0.06428927680798005,-0.0210156843557096,
0.06433915211970075,-0.024263111584554124,
0.06438902743142144,0.004961362508175228,
0.06443890274314215,-0.012341076019106558,
0.06448877805486285,0.003555598130105534,
0.06453865336658354,0.006256789597392787,
0.06458852867830424,-0.02765834805778492,
0.06463840399002493,-0.021290982143270985,
0.06468827930174563,-0.014288341840311757,
0.06473815461346634,-0.018939766569215297,
0.06478802992518704,-0.0027444040754948506,
0.06483790523690773,-0.00995605849245268,
0.06488778054862843,-0.014642418542584117,
0.06493765586034912,-0.005434194423117385,
0.06498753117206983,-0.028589703167822954,
0.06503740648379053,-0.013676931517588668,
0.06508728179551122,-0.054523539373539924,
0.06513715710723192,0.008646575113687622,
0.06518703241895261,-0.015065983265663427,
0.06523690773067331,0.0019880702135660917,
0.06528678304239402,-0.02709232568766308,
0.06533665835411472,-0.008138159206612199,
0.06538653366583541,-0.008938575763698053,
0.06543640897755611,0.015766792097472445,
0.0654862842892768,-0.020290859220423212,
0.06553615960099751,-0.015361675038160983,
0.06558603491271821,-0.0033167378522219937,
0.0656359102244389,-0.021437305624738483,
0.0656857855361596,0.0033621110049541717,
0.0657356608478803,-0.018480090381499694,
0.06578553615960099,-0.015662524553991676,
0.0658354114713217,0.02293555228516378,
0.0658852867830424,0.008441579223042872,
0.06593516209476309,-0.002293883556564672,
0.06598503740648379,-0.0027395696695691725,
0.06603491271820448,-0.01171852744987449,
0.06608478802992519,0.009041679100341623,
0.06613466334164589,-0.007390348081284954,
0.06618453865336658,-0.022038091452715135,
0.06623441396508728,0.010207062016407207,
0.06628428927680798,-0.014363737628496964,
0.06633416458852869,0.005588716034395384,
0.06638403990024938,-0.02000774181340145,
0.06643391521197008,-0.012625527210296108,
0.06648379052369077,-0.029993303372163528,
0.06653366583541147,-0.03433434369525881,
0.06658354114713216,-0.01630177714549772,
0.06663341645885287,-0.0012160646973819337,
0.06668329177057357,-0.03719546086784055,
0.06673316708229426,0.01614713013448383,
0.06678304239401496,0.014742950326970164,
0.06683291770573566,0.017703583828489085,
0.06688279301745637,0.009242353572977986,
0.06693266832917706,0.007682609746172185,
0.06698254364089776,-0.007981894374467413,
0.06703241895261845,-0.01551244008570933,
0.06708229426433915,0.02601443852879315,
0.06713216957605984,0.017942682018846842,
0.06718204488778055,0.020475034228588145,
0.06723192019950125,-0.02076144722891697,
0.06728179551122195,0.005745418254277962,
0.06733167082294264,-0.012908156852950204,
0.06738154613466334,-0.004675424341174092,
0.06743142144638405,-0.0004248672055249062,
0.06748129675810474,-0.01798723905392027,
0.06753117206982544,-0.005597535550946018,
0.06758104738154613,0.010897123353470359,
0.06763092269326683,-0.007165189715694005,
0.06768079800498752,0.025798029205506532,
0.06773067331670823,0.002138115021238519,
0.06778054862842893,-0.0054398760254426365,
0.06783042394014963,0.011633723397238087,
0.06788029925187032,-0.005331378022050583,
0.06793017456359102,-0.004713108003451803,
0.06798004987531173,-0.00789829095398709,
0.06802992518703242,0.00015920428647176604,
0.06807980049875312,-0.008137035403086162,
0.06812967581047381,-0.0149694566752382,
0.06817955112219451,-0.015643778065563472,
0.0682294264339152,-0.016290027727654574,
0.06827930174563591,-0.008831075172843969,
0.06832917705735661,0.011262855601898568,
0.0683790523690773,0.014299104552506634,
0.068428927680798,-0.0014579456949909133,
0.0684788029925187,-0.0035127042721965693,
0.06852867830423941,0.021721096150499466,
0.0685785536159601,-0.019962723269452573,
0.0686284289276808,0.006579362773648671,
0.0686783042394015,0.010248455697605945,
0.06872817955112219,0.018477229275668902,
0.0687780548628429,0.03657886582159021,
0.0688279301745636,0.04452185563341132,
0.06887780548628429,-0.005110096876045519,
0.06892768079800499,0.013023429964266005,
0.06897755610972568,0.03820846208761796,
0.06902743142144638,-0.00523564509663378,
0.06907730673316709,0.008143705312704313,
0.06912718204488778,-0.007360692830625813,
0.06917705735660848,0.002649386798766469,
0.06922693266832917,0.00807539655696411,
0.06927680798004987,-0.012466349393922669,
0.06932668329177058,0.007662370025800046,
0.06937655860349128,0.006651575882896403,
0.06942643391521197,0.024419011016964108,
0.06947630922693267,-0.008311396065535902,
0.06952618453865336,-0.02250487699323692,
0.06957605985037406,0.016253353693927598,
0.06962593516209477,-0.0014695462230048095,
0.06967581047381546,0.005014966730718509,
0.06972568578553616,0.005343470610945392,
0.06977556109725686,-0.0038072528985341504,
0.06982543640897755,0.032231617595023694,
0.06987531172069826,0.020100065967003145,
0.06992518703241896,0.004434406245463186,
0.06997506234413965,0.02475794726369525,
0.07002493765586035,0.025347674360878737,
0.07007481296758104,0.030447483974394274,
0.07012468827930174,0.014472336219598916,
0.07017456359102245,0.014889892318929957,
0.07022443890274314,0.03446903628020521,
0.07027431421446384,0.01833286114561446,
0.07032418952618454,0.005645313939638649,
0.07037406483790523,-0.004274211280895102,
0.07042394014962594,0.030816061967896453,
0.07047381546134664,0.027460503412931617,
0.07052369077306733,-0.013045349062844276,
0.07057356608478803,0.046390810060573565,
0.07062344139650872,0.025913790613718492,
0.07067331670822943,0.013744456564301465,
0.07072319201995013,0.03135399061712241,
0.07077306733167082,0.019164108291248035,
0.07082294264339152,0.0027166372271072332,
0.07087281795511222,0.029765885643178704,
0.07092269326683291,0.015986481607950534,
0.07097256857855362,0.033517889618838934,
0.07102244389027432,0.03208078195264458,
0.07107231920199501,0.011492463823472101,
0.07112219451371571,-0.001257213741258062,
0.0711720698254364,0.018219900315133968,
0.07122194513715711,0.05527838468662712,
0.07127182044887781,-0.005534156168412432,
0.0713216957605985,0.016691953304534053,
0.0713715710723192,0.027453702112034687,
0.0714214463840399,0.0159636055893915,
0.07147132169576059,0.03417112187413242,
0.0715211970074813,0.0004619183139397305,
0.071571072319202,0.04980752011641923,
0.0716209476309227,0.019651801464143727,
0.07167082294264339,0.038734019695332224,
0.07172069825436408,0.022198780359083486,
0.0717705735660848,0.020162925559728102,
0.07182044887780549,0.009384054431887346,
0.07187032418952619,0.0032079215698991165,
0.07192019950124688,0.035733088138582086,
0.07197007481296758,0.02138755590126988,
0.07201995012468827,0.019314630895724567,
0.07206982543640898,0.02858268466369519,
0.07211970074812968,0.0350279768537619,
0.07216957605985037,0.025352008252656034,
0.07221945137157107,0.029461755431013655,
0.07226932668329177,0.045237257677764556,
0.07231920199501247,0.017090374925039037,
0.07236907730673317,0.030912725476148217,
0.07241895261845387,0.029336521619106225,
0.07246882793017456,0.022044486813028175,
0.07251870324189526,-0.011413852458613493,
0.07256857855361595,0.00099246159749097,
0.07261845386533666,0.016880621551012154,
0.07266832917705736,0.015910771367071096,
0.07271820448877805,0.030838911031029967,
0.07276807980049875,0.03116261055718136,
0.07281795511221945,0.02017024762270764,
0.07286783042394016,0.0619270817930862,
0.07291770573566085,0.004805590519946314,
0.07296758104738155,-0.00013836281665936812,
0.07301745635910224,0.0351852111606393,
0.07306733167082294,0.027995201583193165,
0.07311720698254365,0.035900083548407805,
0.07316708229426434,0.04646949934308448,
0.07321695760598504,0.041513425189597136,
0.07326683291770573,0.03527574748203759,
0.07331670822942643,0.028028030540545982,
0.07336658354114713,0.04882488393272315,
0.07341645885286784,0.011182365892854255,
0.07346633416458853,-0.014634312811787533,
0.07351620947630923,0.042754262728364634,
0.07356608478802992,0.012961753911728343,
0.07361596009975062,0.021593336931912486,
0.07366583541147133,0.03624699902803801,
0.07371571072319202,0.021099700099736367,
0.07376558603491272,-0.005931989159573749,
0.07381546134663342,9.165665430056064e-05,
0.07386533665835411,0.001395724374967336,
0.0739152119700748,0.049463338352645755,
0.07396508728179552,0.03163356728720851,
0.07401496259351621,0.01806811119218959,
0.07406483790523691,0.03589783454104335,
0.0741147132169576,0.04523261884280262,
0.0741645885286783,0.02047186414995259,
0.07421446384039901,0.006424972274769434,
0.0742643391521197,0.028613544935715305,
0.0743142144638404,0.039897748092646186,
0.0743640897755611,0.049216210467785106,
0.07441396508728179,0.026267457210928612,
0.07446384039900249,0.04330315931861774,
0.0745137157107232,0.047718173886249216,
0.07456359102244389,0.02830695181973475,
0.07461346633416459,0.013097629568357173,
0.07466334164588528,0.031563757829768946,
0.07471321695760598,0.014455192484280108,
0.07476309226932669,0.03839083805273192,
0.07481296758104738,0.010215185930168213,
0.07486284289276808,0.03175595474756083,
0.07491271820448878,0.00876371905850576,
0.07496259351620947,0.005491601143033258,
0.07501246882793017,0.02185482637267585,
0.07506234413965088,0.0047277630192784845,
0.07511221945137157,-0.00816378797334823,
0.07516209476309227,0.023216034566231232,
0.07521197007481296,0.04005222265001451,
0.07526184538653366,0.006726354375100361,
0.07531172069825437,0.018658679083646795,
0.07536159600997507,0.027333411396795557,
0.07541147132169576,0.01294227196230295,
0.07546134663341646,0.023140233289756482,
0.07551122194513715,0.02336745833749756,
0.07556109725685786,0.008606972861779631,
0.07561097256857856,0.03470652242628071,
0.07566084788029925,0.0333511921411492,
0.07571072319201995,0.0061096737561339605,
0.07576059850374064,0.019233136139905238,
0.07581047381546134,0.04830481830251906,
0.07586034912718205,0.03337783224103199,
0.07591022443890275,0.01207702982798271,
0.07596009975062344,0.008782790729151436,
0.07600997506234414,0.009121607727894453,
0.07605985037406483,0.0012355654382879035,
0.07610972568578554,-0.006746305058335147,
0.07615960099750624,0.030288356503660307,
0.07620947630922693,0.0315741351081589,
0.07625935162094763,0.017775394401001277,
0.07630922693266833,0.027051153069776703,
0.07635910224438902,0.013231460850047984,
0.07640897755610973,0.03448639345944403,
0.07645885286783043,0.012297668467659,
0.07650872817955112,0.025139108146085463,
0.07655860349127182,-0.004248116147909865,
0.07660847880299251,0.013711395815515632,
0.07665835411471322,0.017722081480049095,
0.07670822942643392,0.006367246321935374,
0.07675810473815461,0.023351636174129865,
0.07680798004987531,0.03189693639447776,
0.076857855361596,0.028774840006590894,
0.0769077306733167,0.024905669275102876,
0.07695760598503741,0.01620470971859601,
0.0770074812967581,-0.0014149866030213742,
0.0770573566084788,0.006728002480035699,
0.0771072319201995,0.0066319737841426295,
0.0771571072319202,-0.006672150811510218,
0.0772069825436409,0.009218338703140198,
0.0772568578553616,0.008882828786236198,
0.0773067331670823,0.01627931096203433,
0.07735660847880299,0.020923850704359218,
0.07740648379052369,0.008236177087790937,
0.0774563591022444,0.020642024660901592,
0.07750623441396509,0.022603191370851174,
0.07755610972568579,-0.005582634364233008,
0.07760598503740648,-0.0005358956005022258,
0.07765586034912718,0.023796681777918445,
0.07770573566084787,0.0020445008939836903,
0.07775561097256858,0.04088623418552163,
0.07780548628428928,0.041932331988500764,
0.07785536159600998,0.020075864782180163,
0.07790523690773067,0.0323385136510686,
0.07795511221945137,-0.02506954663942711,
0.07800498753117208,-0.037826550039937484,
0.07805486284289277,0.006292443893980473,
0.07810473815461347,0.0021509168698342898,
0.07815461346633416,0.01560442021122517,
0.07820448877805486,0.012181116864859853,
0.07825436408977555,0.03752327575793254,
0.07830423940149626,-0.004129793903746927,
0.07835411471321696,-0.0018169087153946436,
0.07840399002493766,-0.01187005802954309,
0.07845386533665835,0.004770898559387166,
0.07850374064837905,0.03479646045172284,
0.07855361596009976,-0.0026356061123542617,
0.07860349127182045,-0.00343912262711613,
0.07865336658354115,0.0017793077811745737,
0.07870324189526184,-0.0057204029705088515,
0.07875311720698254,-0.00257788384867053,
0.07880299251870324,0.030808975090757397,
0.07885286783042394,0.004915786168048684,
0.07890274314214464,0.01546671532938623,
0.07895261845386534,0.00675055695288853,
0.07900249376558603,0.001982633780947547,
0.07905236907730673,-0.00255324729946581,
0.07910224438902744,0.0032389603328436363,
0.07915211970074813,-0.02732092535957028,
0.07920199501246883,0.03819735703563337,
0.07925187032418952,-0.006490548581403693,
0.07930174563591022,-0.006538085032315554,
0.07935162094763092,0.008441036102823709,
0.07940149625935163,-0.012832164604646631,
0.07945137157107232,0.008469228727638958,
0.07950124688279302,-0.012707945671334195,
0.07955112219451371,-0.010743737963972256,
0.07960099750623441,-0.001568667610480977,
0.07965087281795512,0.0082866390135936,
0.07970074812967581,-0.003342304397831105,
0.07975062344139651,-0.021874669775090238,
0.0798004987531172,0.010983072917726489,
0.0798503740648379,0.0040410105081870795,
0.07990024937655861,-0.005383179245810318,
0.0799501246882793,-0.0037914539492275717,
0.08,-0.02209635708375817,
0.0800498753117207,-0.02214560900727874,
0.0800997506234414,-0.013634018054848243,
0.08014962593516209,0.0153303190299714,
0.0801995012468828,0.007378032028089776,
0.0802493765586035,-0.005782084658353594,
0.08029925187032419,-0.010895261571125213,
0.08034912718204489,-0.002041632833242604,
0.08039900249376558,0.0020615519545009254,
0.08044887780548629,-0.008867793520183454,
0.08049875311720699,-0.0028845717002949304,
0.08054862842892768,0.005433939130777077,
0.08059850374064838,-0.010182883909939827,
0.08064837905236907,-0.009357223887534991,
0.08069825436408977,-0.004669135276664939,
0.08074812967581048,-0.0041515025211982986,
0.08079800498753117,-0.0036005573177292135,
0.08084788029925187,0.011477180852751257,
0.08089775561097257,-0.010988452375429588,
0.08094763092269326,-0.011237715388949795,
0.08099750623441397,-0.030560797102696817,
0.08104738154613467,0.008560907991680512,
0.08109725685785536,0.012800651049671624,
0.08114713216957606,0.00967667144524222,
0.08119700748129675,0.011994574097794605,
0.08124688279301745,-0.03507912498901298,
0.08129675810473816,-0.0034572396223599144,
0.08134663341645886,-0.014785183752046186,
0.08139650872817955,-0.024593285355714707,
0.08144638403990025,-0.005529715994185574,
0.08149625935162094,-0.012133779130279082,
0.08154613466334165,0.0011760329197233552,
0.08159600997506235,-0.01387089453920834,
0.08164588528678304,-0.005686072184038631,
0.08169576059850374,-0.018287619666749074,
0.08174563591022443,0.0032996567843620647,
0.08179551122194513,-0.010175955026351581,
0.08184538653366584,-0.023701201580206003,
0.08189526184538654,0.009492279691225784,
0.08194513715710723,-0.003957073718331746,
0.08199501246882793,-0.023019331268835715,
0.08204488778054862,-0.02349475770281237,
0.08209476309226933,-0.01855869693592592,
0.08214463840399003,0.0013092410458268658,
0.08219451371571072,-0.02114135417575856,
0.08224438902743142,-0.01829649512776765,
0.08229426433915212,-0.007268215032949737,
0.08234413965087282,0.01637158788848414,
0.08239401496259352,0.027034872718232215,
0.08244389027431422,-0.0028865250483890922,
0.08249376558603491,-0.025036582028571723,
0.08254364089775561,0.00946970333521598,
0.0825935162094763,-0.008943126860634549,
0.08264339152119701,0.000777794084021401,
0.08269326683291771,-0.042572406559626026,
0.0827431421446384,0.004514903035459955,
0.0827930174563591,-0.032657754601242026,
0.0828428927680798,-0.010174913210956097,
0.0828927680798005,0.011888683633491472,
0.0829426433915212,-0.020622918631594326,
0.0829925187032419,-0.014485270754719524,
0.08304239401496259,-0.012820170569088279,
0.08309226932668329,-0.009583248898965165,
0.08314214463840398,-0.033508846004433615,
0.0831920199501247,-0.010340331620807544,
0.08324189526184539,-0.006819044772817565,
0.08329177057356608,-0.029284476775188292,
0.08334164588528678,-0.00040753572784422466,
0.08339152119700748,-0.01103911003596032,
0.08344139650872819,-0.013851544944798365,
0.08349127182044888,-0.022107697368552524,
0.08354114713216958,0.017837410382744372,
0.08359102244389027,-0.04392435655790061,
0.08364089775561097,-0.03325932616658592,
0.08369077306733166,-0.02895204735647962,
0.08374064837905237,-0.02222497409635263,
0.08379052369077307,-0.0178307603727035,
0.08384039900249377,-0.021620220915789336,
0.08389027431421446,-0.029131807940040583,
0.08394014962593516,-0.0328139315358491,
0.08399002493765587,-0.032195508242210624,
0.08403990024937656,0.004912839507486694,
0.08408977556109726,-0.036682800765626536,
0.08413965087281795,0.020317021334898547,
0.08418952618453865,-0.007979919301979131,
0.08423940149625936,-0.029001078158082005,
0.08428927680798005,-0.01869997511205822,
0.08433915211970075,-0.023902170689889174,
0.08438902743142145,-0.028862933920363557,
0.08443890274314214,-0.011732071795779899,
0.08448877805486284,-0.021659286644647342,
0.08453865336658355,-0.026883101229731136,
0.08458852867830424,-0.0007959913085604387,
0.08463840399002494,-0.02514982045022963,
0.08468827930174563,-0.03103389503699086,
0.08473815461346633,0.006797537336032854,
0.08478802992518704,-0.0017337695046271973,
0.08483790523690773,-0.0137110662533818,
0.08488778054862843,-0.02230279457588369,
0.08493765586034913,-0.017631732589144255,
0.08498753117206982,0.008802819917477847,
0.08503740648379052,-0.03451327467205874,
0.08508728179551123,-0.006108968286044602,
0.08513715710723192,-0.029771296108595562,
0.08518703241895262,0.0057270428033676535,
0.08523690773067331,0.006100726218114798,
0.08528678304239401,-0.007098375712121013,
0.08533665835411472,-0.024751974964833424,
0.08538653366583542,-0.01891646876580151,
0.08543640897755611,-0.02870262003657719,
0.0854862842892768,-0.008365634439662534,
0.0855361596009975,0.011909099027686143,
0.0855860349127182,0.0020358283007207937,
0.08563591022443891,0.007279739449282702,
0.0856857855361596,-0.017428658308040707,
0.0857356608478803,0.01838974080121486,
0.085785536159601,-0.015684339562281574,
0.08583541147132169,-0.007170648772247155,
0.0858852867830424,-0.0023616848267331196,
0.0859351620947631,-0.018267264161999298,
0.08598503740648379,-0.01301677396319019,
0.08603491271820449,-0.005848665749115011,
0.08608478802992518,-0.026165597210951495,
0.08613466334164588,0.011477393300044303,
0.08618453865336659,0.006300048330003233,
0.08623441396508728,-0.013226177129820722,
0.08628428927680798,-6.66787608584983e-07,
0.08633416458852868,-0.01361570079232283,
0.08638403990024937,-0.008453890083099755,
0.08643391521197008,-0.007392800739520734,
0.08648379052369078,0.019308989278579623,
0.08653366583541147,0.0032142348933536773,
0.08658354114713217,-0.007375271581277421,
0.08663341645885286,-0.027950989021385916,
0.08668329177057357,-0.013070426979634175,
0.08673316708229427,0.005136229838473631,
0.08678304239401496,-0.001964722079894831,
0.08683291770573566,0.009206166102003522,
0.08688279301745636,-0.0075951349768097216,
0.08693266832917705,-0.010580607621297587,
0.08698254364089776,-0.0005866230541457045,
0.08703241895261846,-0.02239403297660547,
0.08708229426433915,-0.00039018372668446553,
0.08713216957605985,-0.03936241603032591,
0.08718204488778054,-0.014504388731939044,
0.08723192019950125,0.02273249580309392,
0.08728179551122195,0.007933067056758801,
0.08733167082294264,0.0077330221942297,
0.08738154613466334,-0.021197589179122747,
0.08743142144638404,-0.0011236801646265927,
0.08748129675810473,-0.013002473488051624,
0.08753117206982544,0.004645562654920523,
0.08758104738154614,-0.008303419164998185,
0.08763092269326683,0.008157484501862901,
0.08768079800498753,0.02406941174551492,
0.08773067331670822,-0.0027725172003886175,
0.08778054862842893,-0.001676964564085233,
0.08783042394014963,0.0041462897419571425,
0.08788029925187033,-0.015498827636176108,
0.08793017456359102,0.02701213719759916,
0.08798004987531172,0.011131477233666757,
0.08802992518703241,-0.017116313796609273,
0.08807980049875312,-0.0058176572830514065,
0.08812967581047382,-0.00035947051930049906,
0.08817955112219451,-0.00232724099273337,
0.08822942643391521,0.012164894933970598,
0.0882793017456359,0.014809839399961269,
0.08832917705735661,0.0051875268511990015,
0.08837905236907731,0.022841182529479694,
0.088428927680798,0.000472964562828462,
0.0884788029925187,0.028054077052999303,
0.0885286783042394,0.010186386846069147,
0.0885785536159601,-0.00859395845296226,
0.0886284289276808,-0.009693955397925553,
0.0886783042394015,-0.02300173368845887,
0.0887281795511222,0.018933201073617345,
0.08877805486284289,-0.0025914010199938643,
0.08882793017456359,0.0013933976651988797,
0.0888778054862843,0.0020212219896722965,
0.08892768079800499,-0.006625301120677662,
0.08897755610972569,-0.014342134152335224,
0.08902743142144638,0.023383975606468717,
0.08907730673316708,0.04140704250132808,
0.08912718204488779,0.010050708861371872,
0.08917705735660848,-0.010017068393361634,
0.08922693266832918,0.0173696234035859,
0.08927680798004987,0.03530385867922944,
0.08932668329177057,0.019176521638457057,
0.08937655860349127,-0.00016445635122398772,
0.08942643391521198,0.001450437625820972,
0.08947630922693267,0.009178895096683319,
0.08952618453865337,0.03219799321484871,
0.08957605985037406,0.023729903299152626,
0.08962593516209476,0.02089735593388381,
0.08967581047381547,0.012075317942651506,
0.08972568578553616,0.002593253316076285,
0.08977556109725686,0.01081541137539113,
0.08982543640897755,0.028819131514354526,
0.08987531172069825,0.012689546086319656,
0.08992518703241895,0.02640641345888254,
0.08997506234413966,-0.00872480525861261,
0.09002493765586035,0.034471520596027413,
0.09007481296758105,0.046692604091228905,
0.09012468827930174,0.015097878414015711,
0.09017456359102244,0.02112194385885537,
0.09022443890274315,0.02196953008630598,
0.09027431421446384,0.018366055310621424,
0.09032418952618454,-0.01457100463037465,
0.09037406483790524,0.018444490892920162,
0.09042394014962593,0.0151293420492883,
0.09047381546134663,0.03310783948548869,
0.09052369077306734,-0.00038363353985328835,
0.09057356608478803,0.039354741956998535,
0.09062344139650873,0.00036993026936627676,
0.09067331670822942,0.038371722952309034,
0.09072319201995012,-0.009648041890147414,
0.09077306733167083,0.025623130942636435,
0.09082294264339152,0.02438672551818848,
0.09087281795511222,0.03380445422055277,
0.09092269326683292,0.029959032745506483,
0.09097256857855361,0.016444839557888304,
0.09102244389027432,0.005932662822222878,
0.09107231920199502,0.032140056778432465,
0.09112219451371571,0.03581513990700273,
0.09117206982543641,0.018087122991801693,
0.0912219451371571,0.00382986421416473,
0.0912718204488778,0.015571102791361483,
0.09132169576059851,0.04169271825296955,
0.0913715710723192,0.023878410546063187,
0.0914214463840399,0.026809697853258874,
0.0914713216957606,0.019758833038920124,
0.09152119700748129,0.011329274070421393,
0.091571072319202,0.013960224442712657,
0.0916209476309227,0.038052056742199546,
0.09167082294264339,0.00378540182798158,
0.09172069825436409,0.04361920645803705,
0.09177057356608478,0.05336107415942973,
0.09182044887780548,0.021276969202977704,
0.09187032418952619,-0.017387298056156627,
0.09192019950124689,0.034413882469102916,
0.09197007481296758,0.03576966908880716,
0.09201995012468828,0.010323404530701054,
0.09206982543640897,0.02392724445545512,
0.09211970074812968,0.02306148724381791,
0.09216957605985038,0.01949554991459982,
0.09221945137157107,0.017153204472438763,
0.09226932668329177,0.03446728834136059,
0.09231920199501246,0.03219625077376142,
0.09236907730673316,0.014400138150280729,
0.09241895261845387,0.02434326322582062,
0.09246882793017457,0.01508671979905869,
0.09251870324189526,0.02134720244073951,
0.09256857855361596,0.037675142800671975,
0.09261845386533665,0.022857744280446044,
0.09266832917705736,0.02910247446580045,
0.09271820448877806,0.008891584334261134,
0.09276807980049875,0.040524550689045424,
0.09281795511221945,0.014300966626209829,
0.09286783042394015,0.03029663835357898,
0.09291770573566084,0.023888353535571512,
0.09296758104738155,0.03900094432249311,
0.09301745635910225,0.016758797778909124,
0.09306733167082294,0.028242663566863304,
0.09311720698254364,0.02842433855295625,
0.09316708229426433,0.043770483429445846,
0.09321695760598504,0.013466732224234126,
0.09326683291770574,0.03674266967569616,
0.09331670822942643,0.04827058342736812,
0.09336658354114713,0.023512744553294638,
0.09341645885286783,0.030963576020905062,
0.09346633416458854,0.027783680595843827,
0.09351620947630923,-0.0035918595642361398,
0.09356608478802993,0.02271160483201263,
0.09361596009975062,0.012005902816284407,
0.09366583541147132,0.03557599274576363,
0.09371571072319201,0.013402218135507014,
0.09376558603491272,0.045081219139314066,
0.09381546134663342,0.015248714327417272,
0.09386533665835411,0.016688811936056328,
0.09391521197007481,0.024063114604939078,
0.0939650872817955,0.02223657736238294,
0.09401496259351622,0.01653669957824859,
0.09406483790523691,0.025994625095799584,
0.09411471321695761,0.03419037216230822,
0.0941645885286783,0.01871674712234333,
0.094214463840399,0.02979194232164977,
0.0942643391521197,0.038141053286336296,
0.0943142144638404,0.02394635741435779,
0.0943640897755611,0.014308455315214836,
0.0944139650872818,0.043269297960420755,
0.09446384039900249,0.02081896393681156,
0.09451371571072319,0.020506849476332016,
0.0945635910224439,0.03447884038167183,
0.09461346633416459,0.015538218904134518,
0.09466334164588529,0.009570769085993414,
0.09471321695760598,0.043463329625551134,
0.09476309226932668,0.011872252430842637,
0.09481296758104737,0.017233560087334315,
0.09486284289276808,0.0028932932078650636,
0.09491271820448878,0.021578845174468814,
0.09496259351620948,0.02330139364586259,
0.09501246882793017,0.028064073386749426,
0.09506234413965087,0.041007750612299415,
0.09511221945137158,0.024597180153812227,
0.09516209476309227,0.030638894544853978,
0.09521197007481297,0.026875915952136092,
0.09526184538653366,0.030452457522132385,
0.09531172069825436,0.023795926765023283,
0.09536159600997507,0.002241229767679872,
0.09541147132169576,0.0340637657338284,
0.09546134663341646,0.016863341187261346,
0.09551122194513716,-0.0034618310449607177,
0.09556109725685785,0.029215462077473112,
0.09561097256857855,-0.021976351485746608,
0.09566084788029926,0.01603141716256338,
0.09571072319201995,0.035179641791841784,
0.09576059850374065,0.031443474300080064,
0.09581047381546134,0.027756025360708463,
0.09586034912718204,0.03777868076829061,
0.09591022443890275,0.01668878211121834,
0.09596009975062345,0.010199593814121109,
0.09600997506234414,0.0015054279993561327,
0.09605985037406484,0.04418839535395475,
0.09610972568578553,0.017102893976702272,
0.09615960099750623,0.010052225464619619,
0.09620947630922694,0.00121724063646984,
0.09625935162094763,0.04164973115635098,
0.09630922693266833,0.02747389350605644,
0.09635910224438902,0.012630597942468604,
0.09640897755610972,0.048958219621298454,
0.09645885286783043,0.0170619324263912,
0.09650872817955113,0.013671429577798279,
0.09655860349127182,0.008070027946444848,
0.09660847880299252,0.03189879178404819,
0.09665835411471321,0.026004194124810368,
0.09670822942643391,0.0028229399162781645,
0.09675810473815462,0.02805647588273607,
0.09680798004987531,0.04841834449015846,
0.09685785536159601,0.01423419262078661,
0.0969077306733167,0.010694897053887868,
0.0969576059850374,0.0003374984996520995,
0.09700748129675811,0.010435426461995788,
0.0970573566084788,0.007092976904111406,
0.0971072319201995,0.003371928449921976,
0.0971571072319202,0.02171857901947391,
0.0972069825436409,0.019924079348732943,
0.09725685785536159,0.034029789963958904,
0.0973067331670823,0.01069660888511549,
0.097356608478803,0.024093878159166443,
0.09740648379052369,0.009096069385440587,
0.09745635910224439,0.008052212493991689,
0.09750623441396508,0.03279532619957057,
0.09755610972568579,0.012326511412685323,
0.09760598503740649,0.009726814840386453,
0.09765586034912718,0.00952601047989367,
0.09770573566084788,0.012083385776179227,
0.09775561097256857,0.00182774168018578,
0.09780548628428928,0.007174619985486671,
0.09785536159600998,0.017074219179413305,
0.09790523690773068,-0.006915178231950583,
0.09795511221945137,0.008168015333504914,
0.09800498753117207,0.013395768498621482,
0.09805486284289276,-0.0055320442023769605,
0.09810473815461347,0.01975409818865023,
0.09815461346633417,0.010537644873229057,
0.09820448877805486,0.0036660631897018695,
0.09825436408977556,0.014614491508614404,
0.09830423940149625,0.02811109507128653,
0.09835411471321696,-0.00589918816674254,
0.09840399002493766,-0.0031939625864320018,
0.09845386533665836,0.021521000943307778,
0.09850374064837905,0.0010403343032070796,
0.09855361596009975,0.025777352471732202,
0.09860349127182044,0.03158076856972551,
0.09865336658354115,0.0231262621399336,
0.09870324189526185,-0.005238891128812435,
0.09875311720698254,0.0018850028353115844,
0.09880299251870324,-0.002514045985674008,
0.09885286783042393,0.02383893356206996,
0.09890274314214464,0.03917878477641642,
0.09895261845386534,-0.0007043717305572437,
0.09900249376558604,0.0005988270350252823,
0.09905236907730673,0.004750061380954615,
0.09910224438902743,-0.0041691849044098225,
0.09915211970074812,0.043351797403199686,
0.09920199501246883,-0.013659047527878793,
0.09925187032418953,0.012004478324244658,
0.09930174563591022,-0.01888659552371299,
0.09935162094763092,-0.0030579302208423075,
0.09940149625935162,-0.016348480613842954,
0.09945137157107233,0.011846797163427755,
0.09950124688279302,0.012154753629455606,
0.09955112219451372,0.014404010988623334,
0.09960099750623441,-0.015375977189210993,
0.09965087281795511,-0.01650260197441354,
0.0997007481296758,0.008737242830021596,
0.09975062344139651,0.007918956326537049,
0.09980049875311721,-0.003854345896510493,
0.0998503740648379,-0.02125847362324523,
0.0999002493765586,0.0019901359771759444,
0.0999501246882793,0.009150475679219287,
0.1,0.020758362675134395,
0.1000498753117207,-0.010622420563680245,
0.1000997506234414,-0.0015080670751228646,
0.10014962593516209,-0.019846355999088724,
0.10019950124688279,-0.0007949322359277421,
0.1002493765586035,-0.0024691572691488924,
0.1002992518703242,-0.01681799646417545,
0.10034912718204489,-0.014602457767862138,
0.10039900249376559,0.0004386270131887344,
0.10044887780548628,-0.013808465700446183,
0.10049875311720698,-0.003780504851511343,
0.10054862842892769,-0.016962767848098765,
0.10059850374064838,0.01951486938674,
0.10064837905236908,-0.022400268402180783,
0.10069825436408977,-0.014916576845734254,
0.10074812967581047,0.003669952257717414,
0.10079800498753118,0.010751718419583922,
0.10084788029925187,-0.009980800090576463,
0.10089775561097257,-0.020079836010829043,
0.10094763092269327,-0.013227691154199436,
0.10099750623441396,0.015593113260576049,
0.10104738154613466,-0.004585466144338132,
0.10109725685785537,0.004492699169041682,
0.10114713216957606,-0.014431553809278443,
0.10119700748129676,-0.0056011940542128715,
0.10124688279301745,-0.0016030164128131002,
0.10129675810473815,-0.0038784548821641186,
0.10134663341645886,0.012109286406238439,
0.10139650872817955,0.016516347192983477,
0.10144638403990025,-0.01826243975744825,
0.10149625935162095,-0.015687949852306912,
0.10154613466334164,-0.009368957974651966,
0.10159600997506234,-0.005261775318594699,
0.10164588528678305,0.009887773206741182,
0.10169576059850374,0.02632057529268686,
0.10174563591022444,0.0052241271157749455,
0.10179551122194513,0.00970203834045449,
0.10184538653366583,0.02116714704848765,
0.10189526184538654,-0.026458545936165055,
0.10194513715710724,-0.0014018744124813225,
0.10199501246882793,-0.04130286882582917,
0.10204488778054863,-0.009832776762715162,
0.10209476309226932,-0.023442672701967447,
0.10214463840399003,0.013009591419417217,
0.10219451371571073,-0.03325230754025011,
0.10224438902743142,0.001626403744726784,
0.10229426433915212,-0.013192683061476099,
0.10234413965087281,-0.01209516831150465,
0.10239401496259351,-0.02384293960542861,
0.10244389027431422,-0.0226331878970601,
0.10249376558603492,-0.008679460267789377,
0.10254364089775561,-0.018133386552837062,
0.10259351620947631,-0.012278722169094767,
0.102643391521197,-0.0052839564451546825,
0.10269326683291771,-0.009440762045192702,
0.10274314214463841,-0.03445632918639632,
0.1027930174563591,0.01195910223103178,
0.1028428927680798,-0.02895592468325542,
0.1028927680798005,-0.012875417164575857,
0.10294264339152119,-0.006104156736705236,
0.1029925187032419,-0.03639570388814366,
0.1030423940149626,-0.030817246109307157,
0.10309226932668329,-0.012881608354865438,
0.10314214463840399,-0.005175096694474516,
0.10319201995012468,-0.03669847763662859,
0.10324189526184539,-0.014323935718967423,
0.10329177057356609,-0.003983999807308248,
0.10334164588528678,-0.01874823782473783,
0.10339152119700748,-0.00758832566656095,
0.10344139650872818,-0.03174672757531056,
0.10349127182044887,-0.007924201116390132,
0.10354114713216958,-0.02270302830901513,
0.10359102244389028,-0.0006281510962922003,
0.10364089775561097,-0.017887616457139204,
0.10369077306733167,0.00989307247527298,
0.10374064837905236,-0.00697571286170705,
0.10379052369077307,-0.003111578941242832,
0.10384039900249377,-0.0019751028103323267,
0.10389027431421446,-0.024373504424308266,
0.10394014962593516,-0.00028516289936259855,
0.10399002493765586,-0.007716437775987084,
0.10403990024937655,0.00978152233226242,
0.10408977556109726,-0.00933421453240549,
0.10413965087281796,0.011951470948202429,
0.10418952618453865,-0.012362092169231682,
0.10423940149625935,0.007536034465998067,
0.10428927680798004,-0.0002086398645441117,
0.10433915211970075,-0.016443019209985556,
0.10438902743142145,-0.02495103604948839,
0.10443890274314215,0.006212936557661723,
0.10448877805486284,-0.021798556742667504,
0.10453865336658354,-0.005057788620727953,
0.10458852867830425,-0.015851652354171283,
0.10463840399002494,-0.020400982262978727,
0.10468827930174564,-0.03741088144745345,
0.10473815461346633,-0.0163153150262004,
0.10478802992518703,-0.00027238847438997883,
0.10483790523690772,-0.011403227937980502,
0.10488778054862843,-0.026290302060954236,
0.10493765586034913,-0.02077710750132397,
0.10498753117206983,-0.022862279517152057,
0.10503740648379052,-0.01843680290703524,
0.10508728179551122,0.0008686614399283123,
0.10513715710723193,-0.026606686951512443,
0.10518703241895262,-0.03001618824946417,
0.10523690773067332,0.0005416075721944372,
0.10528678304239401,-0.016137004703049837,
0.10533665835411471,-0.0014466004898643315,
0.1053865336658354,-0.009983106225880379,
0.10543640897755611,-0.018006202830265643,
0.10548628428927681,-0.0016541966826505196,
0.1055361596009975,0.004088588676008191,
0.1055860349127182,-0.012514988344113714,
0.1056359102244389,-0.00869218266252594,
0.10568578553615961,-0.014967439995215041,
0.1057356608478803,-0.02613970719279091,
0.105785536159601,-0.010163314408484198,
0.1058354114713217,-0.003669549454615509,
0.10588528678304239,-0.012197402072777131,
0.10593516209476309,-0.00703837954233646,
0.1059850374064838,0.016438206428190674,
0.10603491271820449,0.00046654990876905666,
0.10608478802992519,-0.012408965459064709,
0.10613466334164588,0.0017071410898514645,
0.10618453865336658,-0.018987666893286147,
0.10623441396508729,-0.0003182010971728667,
0.10628428927680798,-0.030738264924854524,
0.10633416458852868,-0.00856787977599054,
0.10638403990024937,-0.002222616959858437,
0.10643391521197007,0.0035082881467211986,
0.10648379052369077,-0.01198501109130487,
0.10653366583541148,-0.018307778581616564,
0.10658354114713217,-0.03090050982072135,
0.10663341645885287,-0.000804809443642255,
0.10668329177057356,0.006199319174249488,
0.10673316708229426,0.018130521994223353,
0.10678304239401497,0.014838059861516935,
0.10683291770573566,-0.034133578308254454,
0.10688279301745636,-0.0044528439235337405,
0.10693266832917706,0.013983503944618237,
0.10698254364089775,-0.016631321938645926,
0.10703241895261846,-0.006177194290511095,
0.10708229426433916,-0.01626208742362841,
0.10713216957605985,-0.018544370771365677,
0.10718204488778055,0.011166744644075993,
0.10723192019950124,0.024563685644362673,
0.10728179551122194,0.02743324735706219,
0.10733167082294265,0.020094654485850426,
0.10738154613466334,0.008365711232138473,
0.10743142144638404,-0.0029100310577984323,
0.10748129675810474,-0.006473301186121487,
0.10753117206982543,0.03428960347065759,
0.10758104738154614,-0.018233603283469735,
0.10763092269326684,0.027232222927711363,
0.10768079800498753,-0.016493235730821187,
0.10773067331670823,-0.010890217497082258,
0.10778054862842892,0.00349666099968295,
0.10783042394014962,0.0002290613124897407,
0.10788029925187033,0.007357067967359268,
0.10793017456359102,-0.005465626029606065,
0.10798004987531172,0.02774235829778439,
0.10802992518703242,0.06890060379729677,
0.10807980049875311,0.02935947516209592,
0.10812967581047382,-0.003174797565228013,
0.10817955112219452,0.006317021645584349,
0.10822942643391521,0.010657621481260518,
0.10827930174563591,0.03556855269258656,
0.1083291770573566,-0.004740633619027722,
0.1083790523690773,0.017117355353163825,
0.10842892768079801,0.01236185285251186,
0.1084788029925187,0.006677254139909494,
0.1085286783042394,0.00442388074606868,
0.1085785536159601,-0.002738006317542835,
0.10862842892768079,0.015778061210789486,
0.1086783042394015,0.034918425206856216,
0.1087281795511222,0.00221734198749782,
0.1087780548628429,0.0007070925686451998,
0.10882793017456359,0.000546704041815246,
0.10887780548628428,0.0031753345251537383,
0.108927680798005,0.04956348718131994,
0.10897755610972569,0.023658688441515002,
0.10902743142144639,-0.002162916244383707,
0.10907730673316708,-0.010232266715361742,
0.10912718204488778,0.01613052719516586,
0.10917705735660847,-0.004853663886518204,
0.10922693266832918,0.01106837149637089,
0.10927680798004988,0.029530684035726406,
0.10932668329177057,0.0009458630190723998,
0.10937655860349127,0.01293457973416551,
0.10942643391521197,-0.00037640792762156164,
0.10947630922693267,0.015815684346484706,
0.10952618453865337,0.014962213720191304,
0.10957605985037407,-0.009460836725402186,
0.10962593516209476,0.0032905724908830324,
0.10967581047381546,-0.01294116341148635,
0.10972568578553615,0.014559965299485642,
0.10977556109725686,-0.007867691579175481,
0.10982543640897756,0.018871353030551513,
0.10987531172069825,0.032151016778979274,
0.10992518703241895,0.0021121799347972297,
0.10997506234413965,0.03471292164961769,
0.11002493765586036,0.003754010706389057,
0.11007481296758105,0.0408590131521632,
0.11012468827930175,0.003792134189638908,
0.11017456359102244,0.006313524597235222,
0.11022443890274314,-0.002953451741602813,
0.11027431421446383,0.0208764638438767,
0.11032418952618454,0.003024129150552373,
0.11037406483790524,0.0341146394602349,
0.11042394014962593,0.012076294844303082,
0.11047381546134663,0.050862615526411345,
0.11052369077306733,0.04102693385975187,
0.11057356608478804,0.006544427380232819,
0.11062344139650873,0.019459967445282875,
0.11067331670822943,0.025594246941857877,
0.11072319201995012,0.01738337049603335,
0.11077306733167082,0.07759353008298525,
0.11082294264339151,0.039787668797929276,
0.11087281795511222,0.057105078369153364,
0.11092269326683292,0.041699770609218964,
0.11097256857855362,0.03705216318169952,
0.11102244389027431,0.046072519870252834,
0.111072319201995,0.01324147596503287,
0.11112219451371572,0.028140592912953115,
0.11117206982543641,0.0035238714575465263,
0.11122194513715711,0.018473040998021457,
0.1112718204488778,0.02712232351982529,
0.1113216957605985,0.03503602408073544,
0.11137157107231921,0.019785953404115274,
0.1114214463840399,0.02630557456772342,
0.1114713216957606,0.042060012507252144,
0.1115211970074813,0.025964554266982978,
0.11157107231920199,0.05049064077607149,
0.11162094763092269,0.033031311504180025,
0.1116708229426434,0.055812518752740084,
0.11172069825436409,0.026489308129039248,
0.11177057356608479,0.02585478448346942,
0.11182044887780548,0.03606438628161173,
0.11187032418952618,0.05202992201504966,
0.11192019950124689,-0.0005761786777026302,
0.11197007481296758,0.03539491927415492,
0.11201995012468828,0.0268056343762947,
0.11206982543640898,0.02924791345069277,
0.11211970074812967,0.04265623355765526,
0.11216957605985037,-0.012746018261273258,
0.11221945137157108,0.01567720702751369,
0.11226932668329177,0.007216294864421963,
0.11231920199501247,0.029375669637904327,
0.11236907730673316,0.02796146955403758,
0.11241895261845386,0.03532471353903373,
0.11246882793017457,0.034873000458393186,
0.11251870324189527,0.030550322321455426,
0.11256857855361596,0.04103578639950718,
0.11261845386533666,0.0107496594295815,
0.11266832917705735,0.00016337227315417133,
0.11271820448877805,0.04210843867758754,
0.11276807980049876,0.05753164425504554,
0.11281795511221945,0.0463118953866288,
0.11286783042394015,0.05614202336200266,
0.11291770573566084,0.024496357307423142,
0.11296758104738154,0.021944924716577958,
0.11301745635910225,0.006177033602311227,
0.11306733167082295,0.014842901479893802,
0.11311720698254364,0.020297728713218534,
0.11316708229426434,0.04067089060630592,
0.11321695760598503,0.01956862205502817,
0.11326683291770574,0.028845284542732184,
0.11331670822942644,0.03215955422829474,
0.11336658354114713,0.030394807286196958,
0.11341645885286783,0.046060949762874746,
0.11346633416458853,0.0018818511704588939,
0.11351620947630922,0.03037007757664138,
0.11356608478802993,0.016366719426987274,
0.11361596009975063,0.006335960579473443,
0.11366583541147132,0.007228898199006833,
0.11371571072319202,0.041986243400862815,
0.11376558603491271,0.039694214418403664,
0.11381546134663342,0.037563238961461784,
0.11386533665835412,0.025717962874433013,
0.11391521197007481,0.006314652810087522,
0.11396508728179551,0.034335211466275294,
0.1140149625935162,0.045644516565100345,
0.1140648379052369,-0.012687155281007223,
0.11411471321695761,0.058151481124914854,
0.1141645885286783,0.04224718428168612,
0.114214463840399,0.03131619689197075,
0.1142643391521197,0.04401105802130223,
0.1143142144638404,0.03800638813571565,
0.1143640897755611,0.0068861875512585095,
0.1144139650872818,0.02387405402961279,
0.1144638403990025,0.03188193614068177,
0.11451371571072319,0.030051482829170723,
0.11456359102244389,0.04647850579831496,
0.11461346633416458,0.009645499615257947,
0.11466334164588529,0.04087436820519069,
0.11471321695760599,0.026771005160431224,
0.11476309226932668,0.015500893027267645,
0.11481296758104738,0.003738621223295255,
0.11486284289276807,-6.634157131859761e-05,
0.11491271820448878,0.012945705807917346,
0.11496259351620948,0.008743775333543435,
0.11501246882793018,0.021581541802184842,
0.11506234413965087,0.012106806744160077,
0.11511221945137157,0.03457864038416402,
0.11516209476309226,0.023680404431569064,
0.11521197007481297,0.040023396825819374,
0.11526184538653367,0.014019386456461676,
0.11531172069825436,0.03080530131986665,
0.11536159600997506,0.014857057945753887,
0.11541147132169575,0.040032004962266166,
0.11546134663341646,0.017258637408577658,
0.11551122194513716,0.05161465965424323,
0.11556109725685786,-0.01449829116528584,
0.11561097256857855,0.01806025110971046,
0.11566084788029925,0.04599264923411708,
0.11571072319201996,0.02923163068356415,
0.11576059850374065,0.03607933476190134,
0.11581047381546135,0.012347586939151544,
0.11586034912718204,0.019038091912694816,
0.11591022443890274,-0.011918772982394493,
0.11596009975062344,0.04986247306270784,
0.11600997506234415,0.021009369195961556,
0.11605985037406484,0.05172565672269812,
0.11610972568578554,0.027311992032231815,
0.11615960099750623,0.01660178515530833,
0.11620947630922693,0.024864418322751724,
0.11625935162094764,0.006271577899430704,
0.11630922693266833,0.024885531853957997,
0.11635910224438903,0.021106160159083075,
0.11640897755610972,0.026437759911452544,
0.11645885286783042,0.021567385354011374,
0.11650872817955112,0.013336351701454516,
0.11655860349127183,0.03161547019437738,
0.11660847880299252,0.010381878769930988,
0.11665835411471322,0.013438514579652712,
0.11670822942643391,0.03840196331823448,
0.11675810473815461,-0.011020549984418055,
0.11680798004987532,0.022538639956836786,
0.11685785536159601,0.027050423266291947,
0.11690773067331671,0.012231148546532237,
0.1169576059850374,0.014682338735895539,
0.1170074812967581,0.031358252106841886,
0.1170573566084788,0.022055184351268877,
0.1171072319201995,0.028527930872020713,
0.1171571072319202,0.010355499513723432,
0.1172069825436409,0.013036127101100583,
0.1172568578553616,-0.00044434653661942075,
0.11730673316708229,0.021605030567763757,
0.117356608478803,0.0023299609904217644,
0.1174064837905237,0.007449268051722716,
0.11745635910224439,0.027034597590049503,
0.11750623441396509,0.017389484900085305,
0.11755610972568578,0.003557238999234786,
0.11760598503740648,-0.00012915125714216442,
0.11765586034912719,0.0025285495876810372,
0.11770573566084788,0.0529466660677939,
0.11775561097256858,0.0263065840319006,
0.11780548628428927,0.017212156288606457,
0.11785536159600997,0.017878188196783988,
0.11790523690773068,0.014829311570417024,
0.11795511221945137,0.042595725625308396,
0.11800498753117207,-0.005704456002028874,
0.11805486284289277,0.023948738950770473,
0.11810473815461346,0.0005344483708155257,
0.11815461346633417,0.04446944227727347,
0.11820448877805487,-0.014475866816477763,
0.11825436408977556,0.007241763064565706,
0.11830423940149626,-0.023501549688771835,
0.11835411471321695,0.02868957761448132,
0.11840399002493765,0.0057221568869369535,
0.11845386533665836,0.0015270868653987678,
0.11850374064837906,0.006466619048097437,
0.11855361596009975,-0.007725201782120092,
0.11860349127182045,0.0154136739196872,
0.11865336658354114,0.016891668812503365,
0.11870324189526185,-0.018679096938157877,
0.11875311720698255,0.03375517545300663,
0.11880299251870324,-0.01562471429100332,
0.11885286783042394,0.005849784301171684,
0.11890274314214463,-0.01008777376887372,
0.11895261845386533,0.0010460369089861886,
0.11900249376558604,0.02245646517182048,
0.11905236907730674,-0.0037932402168976602,
0.11910224438902743,-0.013718204981118264,
0.11915211970074813,0.016289044401202702,
0.11920199501246882,0.0011354888042021697,
0.11925187032418953,-0.017157177970662935,
0.11930174563591023,-0.00187883515137991,
0.11935162094763092,-0.004945674702721106,
0.11940149625935162,-0.005599891694108031,
0.11945137157107232,-8.079730294046185e-05,
0.11950124688279301,0.007844595268541766,
0.11955112219451372,0.024779514444741323,
0.11960099750623442,0.003931523430272596,
0.11965087281795511,-0.00042146255015225627,
0.11970074812967581,-3.211134466406186e-05,
0.1197506234413965,-0.01485156462782963,
0.11980049875311721,0.006489809500925923,
0.11985037406483791,0.010473508684835105,
0.1199002493765586,-0.02727575005791796,
0.1199501246882793,0.023593568117406698,
0.12,0.004171516135630044,
0.1200498753117207,-0.005373624007288595,
0.1200997506234414,0.011324257829890692,
0.1201496259351621,-0.006097922820300416,
0.12019950124688279,0.02255680482560085,
0.12024937655860349,0.012478157588171088,
0.12029925187032418,-0.007666689895636647,
0.1203491271820449,0.011797703615177903,
0.12039900249376559,-0.021440613837750578,
0.12044887780548628,0.014619725833070953,
0.12049875311720698,-0.020383480350207928,
0.12054862842892768,-0.011226612301168122,
0.12059850374064839,-0.007414526886423893,
0.12064837905236908,-0.0031743152234206228,
0.12069825436408978,0.007249380949427979,
0.12074812967581047,0.013756928743910215,
0.12079800498753117,-0.020406145536575923,
0.12084788029925186,-0.008146397439895842,
0.12089775561097257,0.00047038259909708453,
0.12094763092269327,-0.024226969326179626,
0.12099750623441397,0.023889387859686757,
0.12104738154613466,0.012663354123408759,
0.12109725685785536,-0.031014991136374397,
0.12114713216957607,0.007108399876614848,
0.12119700748129676,-0.0035006683226138256,
0.12124688279301746,0.009017807706149995,
0.12129675810473815,-0.018773107280910653,
0.12134663341645885,-0.0027846537652781445,
0.12139650872817954,0.016058553212210953,
0.12144638403990025,-0.012337940573103404,
0.12149625935162095,-0.00574978355316614,
0.12154613466334165,-0.01005985555989456,
0.12159600997506234,-0.003223974377428682,
0.12164588528678304,-0.020024240160187598,
0.12169576059850375,-0.008563622254969143,
0.12174563591022444,-0.018177341335318557,
0.12179551122194514,-0.03249121442049595,
0.12184538653366583,-0.008412824075601566,
0.12189526184538653,0.00758140103952701,
0.12194513715710723,-0.006031694788452909,
0.12199501246882793,-0.004532651733799553,
0.12204488778054863,0.00032628091074027137,
0.12209476309226933,-0.004923589197089625,
0.12214463840399002,-0.0064265282106980536,
0.12219451371571072,0.007078375296773251,
0.12224438902743143,0.016023833496569002,
0.12229426433915212,-0.014637675203122124,
0.12234413965087282,0.0050826057868593386,
0.12239401496259351,0.02069230075972952,
0.12244389027431421,-0.0174547145354616,
0.12249376558603492,-0.000395942599354375,
0.12254364089775562,-0.003919250330954404,
0.12259351620947631,-0.019654587369717993,
0.122643391521197,-0.015626338392361487,
0.1226932668329177,-0.007376874127542902,
0.1227431421446384,-0.04331346335916921,
0.12279301745635911,-0.021342726766805133,
0.1228428927680798,-0.01218959102756512,
0.1228927680798005,-0.009888223952083369,
0.1229426433915212,-0.006110001470694637,
0.12299251870324189,-0.014814221536853446,
0.1230423940149626,-0.004540492887127671,
0.1230922693266833,-0.017291204300440455,
0.12314214463840399,0.010858427290406274,
0.12319201995012469,-0.02221400486553833,
0.12324189526184538,-0.021171849476873963,
0.12329177057356608,-0.009048502669721152,
0.12334164588528679,-0.019381729269219616,
0.12339152119700748,-0.010187515150171234,
0.12344139650872818,0.016376923166676945,
0.12349127182044888,-0.024209598781711833,
0.12354114713216957,-0.02463935222853212,
0.12359102244389028,0.009092641007376502,
0.12364089775561098,-0.0251155412520709,
0.12369077306733167,-0.009396656493422736,
0.12374064837905237,-0.03353141549736515,
0.12379052369077306,-0.01401449713830012,
0.12384039900249376,-0.01106274422434508,
0.12389027431421447,-0.022716079290288457,
0.12394014962593516,-0.014893419571783625,
0.12399002493765586,-0.011777397468871024,
0.12403990024937656,-0.010136701870776046,
0.12408977556109725,0.006560113663611538,
0.12413965087281796,-0.003597059607673439,
0.12418952618453866,0.019934133848670592,
0.12423940149625935,0.0033746752254721173,
0.12428927680798005,0.00896145909710994,
0.12433915211970074,0.011389663183648197,
0.12438902743142144,0.00277651229731247,
0.12443890274314215,0.011771746035707933,
0.12448877805486284,0.0013462695285969394,
0.12453865336658354,-0.01828517927256468,
0.12458852867830424,-0.004794233072776635,
0.12463840399002493,0.0023604813053471636,
0.12468827930174564,-0.013182410796335161,
0.12473815461346634,-0.008354065547173717,
0.12478802992518703,-0.0013848860482634905,
0.12483790523690773,-0.00036046993092117563,
0.12488778054862842,-0.00462471888966537,
0.12493765586034913,-0.013742557635145135,
0.12498753117206983,-0.0030463888974217035,
0.12503740648379053,-0.014274796737624225,
0.12508728179551123,-0.024076014118665244,
0.12513715710723192,-0.016142776742775346,
0.12518703241895263,-0.01612246422444206,
0.1252369077306733,-0.023980516913331033,
0.12528678304239402,-0.012117604015192334,
0.1253366583541147,-0.01795182818439975,
0.1253865336658354,-0.014050025661746294,
0.12543640897755612,-0.012470739018331048,
0.1254862842892768,-0.022754707796979287,
0.1255361596009975,-0.019425568962812945,
0.1255860349127182,0.01141125428493944,
0.1256359102244389,0.015588387052933176,
0.1256857855361596,0.00788104618999815,
0.1257356608478803,-0.016363000819931264,
0.125785536159601,-0.021769240515265922,
0.12583541147132168,-0.023892754529772443,
0.1258852867830424,0.011111113041491583,
0.1259351620947631,-0.013980175009404322,
0.12598503740648379,0.014150178237697401,
0.1260349127182045,-0.015096313352626588,
0.12608478802992518,-0.0054153076406556235,
0.1261346633416459,-0.029280094518978388,
0.1261845386533666,0.009810159096551318,
0.12623441396508728,-0.045710522455360794,
0.126284289276808,0.007951278508381787,
0.12633416458852867,-0.013237804747703448,
0.12638403990024938,-0.011378128662272096,
0.1264339152119701,0.026062634489010562,
0.12648379052369077,0.0023479248352262687,
0.12653366583541148,0.016369566267743003,
0.12658354114713216,-0.013292830942662546,
0.12663341645885287,0.02407182832686111,
0.12668329177057355,0.01543476158440267,
0.12673316708229426,-0.027768245718742222,
0.12678304239401497,-0.015491020001779626,
0.12683291770573565,0.01572389709020605,
0.12688279301745636,-0.017122802689809116,
0.12693266832917705,-0.014795012336160126,
0.12698254364089775,0.011548240761717938,
0.12703241895261846,0.008980995218419534,
0.12708229426433915,0.00011674864251877588,
0.12713216957605986,-0.013615521535021127,
0.12718204488778054,-0.019492782957554064,
0.12723192019950125,-0.0006651436786369674,
0.12728179551122196,0.021251534128459138,
0.12733167082294264,0.031730472809150645,
0.12738154613466335,0.014495272251820682,
0.12743142144638403,0.00604008986685171,
0.12748129675810474,-0.031817042397747256,
0.12753117206982545,-0.016884040319532494,
0.12758104738154613,-0.008715206227888345,
0.12763092269326684,0.00843925054498293,
0.12768079800498752,0.029857104537145476,
0.12773067331670823,-0.0012121857664462773,
0.1277805486284289,0.010309892705594646,
0.12783042394014962,0.024505310473597865,
0.12788029925187033,-0.003734844090995235,
0.12793017456359101,0.021417718087157585,
0.12798004987531172,0.02004174746311525,
0.1280299251870324,0.0010877999444956167,
0.12807980049875312,0.026727977556811687,
0.12812967581047383,0.005069355389047363,
0.1281795511221945,0.027481467861291357,
0.12822942643391522,0.018093922160360935,
0.1282793017456359,0.026070062156513134,
0.1283291770573566,0.042919362999596644,
0.12837905236907732,-0.0049730067018982395,
0.128428927680798,0.02581413865917335,
0.1284788029925187,0.025887326180053273,
0.1285286783042394,0.033407538737116396,
0.1285785536159601,0.013430132632075454,
0.1286284289276808,0.01635136598300219,
0.1286783042394015,0.016704771046118602,
0.1287281795511222,0.015040148724288691,
0.12877805486284288,0.012882027175048468,
0.1288279301745636,0.011208836242575081,
0.1288778054862843,0.008518353148136891,
0.12892768079800498,-0.0029120094716436513,
0.1289775561097257,0.014831165585300976,
0.12902743142144638,0.021714699345504008,
0.12907730673316709,0.01246303669771671,
0.12912718204488777,0.020369615602304453,
0.12917705735660848,0.03043514814287205,
0.1292269326683292,0.024905499159645607,
0.12927680798004987,0.025730297436721592,
0.12932668329177058,0.016788597203099217,
0.12937655860349126,0.015320138787956752,
0.12942643391521197,0.027733947131802834,
0.12947630922693268,0.018080310947596316,
0.12952618453865336,0.020718180478257135,
0.12957605985037407,0.01732168804701912,
0.12962593516209475,0.03101098336043536,
0.12967581047381546,0.013166612142416639,
0.12972568578553617,0.02524762248063476,
0.12977556109725685,0.00016747082040903874,
0.12982543640897756,-0.003415341523102907,
0.12987531172069824,-0.0008384871865155727,
0.12992518703241895,-0.004873815785343998,
0.12997506234413966,0.04424924869186367,
0.13002493765586035,0.0158472470724266,
0.13007481296758105,0.025368994477936196,
0.13012468827930174,0.02623237224914324,
0.13017456359102245,0.035491141087525366,
0.13022443890274316,0.02402902434772154,
0.13027431421446384,0.042182553633000844,
0.13032418952618455,0.015804024805539163,
0.13037406483790523,0.015992325613082177,
0.13042394014962594,0.013401533307925874,
0.13047381546134662,0.03478987815633097,
0.13052369077306733,0.007139854275761821,
0.13057356608478804,0.0294830823989276,
0.13062344139650872,0.0349815657404666,
0.13067331670822943,0.02973288998844322,
0.1307231920199501,0.033035008555878084,
0.13077306733167082,0.05144577915690254,
0.13082294264339153,0.03557259160884012,
0.13087281795511221,0.02724594687066261,
0.13092269326683292,0.03211983722575269,
0.1309725685785536,0.02016979412776997,
0.13102244389027431,0.0334573979826652,
0.13107231920199502,0.026147908433269033,
0.1311221945137157,0.00012700840866847543,
0.13117206982543642,0.02809098479412549,
0.1312219451371571,0.03260361752489434,
0.1312718204488778,0.02550911388423301,
0.13132169576059852,0.005910587462652477,
0.1313715710723192,0.040557205893637434,
0.1314214463840399,0.02430366515873103,
0.1314713216957606,0.03265656486794693,
0.1315211970074813,0.02106826403330132,
0.13157107231920198,0.012240540153086107,
0.1316209476309227,-0.0046755468068334395,
0.1316708229426434,0.03288174654341102,
0.13172069825436408,0.010964712015493743,
0.1317705735660848,0.03083776142376004,
0.13182044887780547,0.040617113226195406,
0.13187032418952618,0.024339179626646203,
0.1319201995012469,0.02919760070197944,
0.13197007481296757,0.0043247950971481465,
0.13201995012468828,0.04187592977168353,
0.13206982543640897,0.027785129432910262,
0.13211970074812968,0.01906827009086213,
0.13216957605985039,0.02288960813364127,
0.13221945137157107,0.034915707847134235,
0.13226932668329178,0.03444306890633607,
0.13231920199501246,0.01091591501007965,
0.13236907730673317,0.03529884007912002,
0.13241895261845388,0.009987852125692687,
0.13246882793017456,0.05731517840049043,
0.13251870324189527,0.063138830429218,
0.13256857855361595,0.015416356353972201,
0.13261845386533666,0.029381939878637037,
0.13266832917705737,0.036415838741149315,
0.13271820448877805,0.010387151960661065,
0.13276807980049876,0.022792044619020634,
0.13281795511221944,0.0016802811187658778,
0.13286783042394015,0.022968587242364717,
0.13291770573566083,0.018383859098680497,
0.13296758104738154,0.011945729020121264,
0.13301745635910225,0.014368832515110425,
0.13306733167082294,0.015510062266680695,
0.13311720698254365,0.027436488236959437,
0.13316708229426433,0.04873423774441665,
0.13321695760598504,0.04103316650801396,
0.13326683291770575,0.04446695712793696,
0.13331670822942643,0.03686296383534473,
0.13336658354114714,0.03132593826043866,
0.13341645885286782,0.007841128483491572,
0.13346633416458853,0.017263592964957757,
0.13351620947630924,-0.00037255448016344436,
0.13356608478802992,0.03484582464205886,
0.13361596009975063,0.015473232735067288,
0.1336658354114713,0.05673841934079736,
0.13371571072319202,0.056638451826320976,
0.13376558603491273,0.04950568441138038,
0.1338154613466334,0.03096127880046051,
0.13386533665835412,0.01801949283667205,
0.1339152119700748,0.052169434561582476,
0.13396508728179551,0.04091640542375251,
0.1340149625935162,0.03408114815226288,
0.1340648379052369,0.03436858146982936,
0.13411471321695762,0.044416294847663754,
0.1341645885286783,0.02631245940723351,
0.134214463840399,0.04372332291732447,
0.1342643391521197,0.03313947644670169,
0.1343142144638404,0.043849725096892875,
0.1343640897755611,0.035033905259847314,
0.1344139650872818,0.037421188704829175,
0.1344638403990025,0.04857635961508074,
0.13451371571072318,0.015880495095719482,
0.1345635910224439,0.03165108233464435,
0.1346134663341646,0.04241715342084142,
0.13466334164588528,0.006976717756718407,
0.134713216957606,0.013990128011756186,
0.13476309226932667,0.04272722071465685,
0.13481296758104738,0.027833195406805004,
0.1348628428927681,0.0386836987317971,
0.13491271820448877,0.05370730829301179,
0.13496259351620948,0.0037325625061294977,
0.13501246882793017,0.01734071986927038,
0.13506234413965088,0.017285371752563342,
0.13511221945137158,0.008812971781429573,
0.13516209476309227,0.03665894943592196,
0.13521197007481298,0.026784483031773842,
0.13526184538653366,0.001130217627684272,
0.13531172069825437,0.05004650510499478,
0.13536159600997505,0.03961833259593832,
0.13541147132169576,0.028285644636644743,
0.13546134663341647,0.01713041623251935,
0.13551122194513715,0.036646802899584614,
0.13556109725685786,0.032072690577171034,
0.13561097256857854,0.0372327642016018,
0.13566084788029925,0.007716467988962753,
0.13571072319201996,0.05279777222308446,
0.13576059850374064,0.018350423811580852,
0.13581047381546135,0.020549756718601105,
0.13586034912718203,0.052628261207495586,
0.13591022443890274,0.03545066793295613,
0.13596009975062345,0.05559086630420339,
0.13600997506234414,0.04990734672919324,
0.13605985037406484,0.015235936063049715,
0.13610972568578553,0.03719330051893909,
0.13615960099750624,0.023065246866372718,
0.13620947630922695,0.016336144175874624,
0.13625935162094763,0.01613124225586094,
0.13630922693266834,0.03591000299945481,
0.13635910224438902,0.03677817615648838,
0.13640897755610973,0.04623788121384295,
0.1364588528678304,0.03575598571704697,
0.13650872817955112,0.02009194820654768,
0.13655860349127183,0.03618785537045842,
0.1366084788029925,0.026654319236972798,
0.13665835411471322,-0.0031999734976638425,
0.1367082294264339,0.039265356424661654,
0.1367581047381546,0.017523575098362335,
0.13680798004987532,0.01901313614892064,
0.136857855361596,0.022147128598861525,
0.1369077306733167,0.027131561879107022,
0.1369576059850374,0.013778584288467169,
0.1370074812967581,0.02633592428895181,
0.13705735660847881,0.006739383417678036,
0.1371072319201995,0.024669273515508017,
0.1371571072319202,-0.004967685869123148,
0.1372069825436409,0.029425457687210506,
0.1372568578553616,0.0026736431375591844,
0.1373067331670823,0.0327140341390586,
0.137356608478803,0.013696222091153138,
0.1374064837905237,0.012196304110964878,
0.13745635910224438,0.014890655200070052,
0.1375062344139651,0.031184057968890573,
0.1375561097256858,0.034541606669535665,
0.13760598503740648,0.04570041772614036,
0.1376558603491272,0.005577966609749532,
0.13770573566084787,0.023473993834113315,
0.13775561097256858,-0.006625946827113491,
0.13780548628428926,0.0028218670360262935,
0.13785536159600997,0.022391280177566274,
0.13790523690773068,-0.02056447426552546,
0.13795511221945136,0.007809307876049452,
0.13800498753117207,0.027026731669787345,
0.13805486284289276,0.011787360820290593,
0.13810473815461347,0.030323403562768754,
0.13815461346633418,-0.007355501386214047,
0.13820448877805486,0.009331159503122058,
0.13825436408977557,0.03223595632031001,
0.13830423940149625,-0.0015341912505581808,
0.13835411471321696,0.0030550479539334947,
0.13840399002493767,-0.008468182699578043,
0.13845386533665835,0.00977159346558601,
0.13850374064837906,-0.012241570064683476,
0.13855361596009974,-0.02501614590215547,
0.13860349127182045,0.024418682220454624,
0.13865336658354116,0.030958243426023123,
0.13870324189526184,0.0027160926191547776,
0.13875311720698255,-0.0016017811352849864,
0.13880299251870323,0.005733811050351263,
0.13885286783042394,0.008720988118067267,
0.13890274314214462,0.020068286294647672,
0.13895261845386533,0.005730888213277998,
0.13900249376558604,-0.0003619708454895088,
0.13905236907730673,0.017175291976758312,
0.13910224438902744,-0.008091650749650004,
0.13915211970074812,0.002066177176215103,
0.13920199501246883,0.0047012183426662635,
0.13925187032418954,-0.0010873127509950118,
0.13930174563591022,-0.005680597130178403,
0.13935162094763093,-0.01128558117568919,
0.1394014962593516,0.018459907618385517,
0.13945137157107232,-0.005529208798824676,
0.13950124688279303,0.006852571155407954,
0.1395511221945137,-0.02962516738952256,
0.13960099750623442,0.011382805703867014,
0.1396508728179551,-0.01097572683327949,
0.1397007481296758,-0.0032884487805818945,
0.13975062344139652,0.009795087403684306,
0.1398004987531172,0.02991477275817158,
0.1398503740648379,0.020245552046955266,
0.1399002493765586,-0.002170904816915972,
0.1399501246882793,0.018731270584598964,
0.14,-0.007712687273102377,
0.1400498753117207,-0.00958019227053844,
0.1400997506234414,0.0075956276818848175,
0.1401496259351621,-0.005421162284825726,
0.1401995012468828,0.014995873021679804,
0.14024937655860348,-0.0010168916877596047,
0.1402992518703242,0.01109488761890534,
0.1403491271820449,-0.0028246880765699527,
0.14039900249376558,-0.00956481753367721,
0.1404488778054863,0.004639207121766826,
0.14049875311720697,-0.002852900777673942,
0.14054862842892768,0.025257171094775627,
0.1405985037406484,-0.003253675363176359,
0.14064837905236907,0.0048913107313067715,
0.14069825436408978,-0.027331310354480227,
0.14074812967581046,-0.026487825436785316,
0.14079800498753117,-0.01353473108777295,
0.14084788029925188,-0.006167266959231523,
0.14089775561097256,0.013864900384343574,
0.14094763092269327,-0.002855501041096024,
0.14099750623441396,-0.010339990577439825,
0.14104738154613466,0.012171103605673623,
0.14109725685785537,0.00010862179437027934,
0.14114713216957606,0.0003322729128728344,
0.14119700748129677,-0.02086590793657173,
0.14124688279301745,0.02296243034311754,
0.14129675810473816,-0.029626580530102534,
0.14134663341645887,0.00553365594677991,
