time,amplitude,label
0.0,0.04914283553811646,
4.987531172069826e-05,0.04316275747332096,
9.975062344139652e-05,0.018423081951817945,
0.00014962593516209475,0.02275684340837588,
0.00019950124688279303,0.019750190687739016,
0.00024937655860349125,-0.013356217433623321,
0.0002992518703241895,0.012534696150464625,
0.00034912718204488776,0.015123215791817746,
0.00039900249376558606,0.02111317297279735,
0.0004488778054862843,0.028846851338945212,
0.0004987531172069825,0.01580812714041524,
0.0005486284289276808,0.03723882280939591,
0.000598503740648379,0.026179283792128652,
0.0006483790523690773,0.01965731557727921,
0.0006982543640897755,0.028413224526381353,
0.0007481296758104738,0.0469716496966854,
0.0007980049875311721,0.008534815268429962,
0.0008478802992518703,0.043317450430469126,
0.0008977556109725686,0.021522034118617715,
0.0009476309226932668,0.00719874834096477,
0.000997506234413965,0.03344014261228773,
0.0010473815461346633,0.003943494601925224,
0.0010972568578553616,0.02764200341239846,
0.00114713216957606,0.019858529968121028,
0.001197007481296758,0.013011993951732064,
0.0012468827930174563,0.009933014617088176,
0.0012967581047381546,0.04567869270932319,
0.001346633416458853,0.02624372623151959,
0.001396508728179551,0.033319927514036014,
0.0014463840399002493,0.02906729735696597,
0.0014962593516209476,0.009866131745089783,
0.001546134663341646,0.006942310657208541,
0.0015960099750623442,0.011527824315397058,
0.0016458852867830423,0.03324094969138718,
0.0016957605985037406,0.045767405938548666,
0.001745635910224439,0.014952672351197467,
0.0017955112219451373,0.006509782002338153,
0.0018453865336658353,0.03243494735337737,
0.0018952618453865336,0.013359594668430539,
0.001945137157107232,-0.0078936123117976,
0.00199501246882793,0.021687138913329764,
0.0020448877805486283,0.013604287533845747,
0.0020947630922693266,0.02672445575571978,
0.002144638403990025,0.02925090400391678,
0.0021945137157107233,0.020826153781205368,
0.0022443890274314216,0.009009568256929334,
0.00229426433915212,0.011928305410688657,
0.0023441396508728177,0.017757254545825413,
0.002394014962593516,0.01801723246541066,
0.0024438902743142144,-0.010650802398226092,
0.0024937655860349127,0.0204706191921436,
0.002543640897755611,0.025710955759367392,
0.0025935162094763093,0.022891365407794656,
0.0026433915211970076,-0.002414579146699257,
0.002693266832917706,0.03686061565348692,
0.002743142144638404,0.007520895579747999,
0.002793017456359102,0.041444072722818665,
0.0028428927680798004,0.029459008051149302,
0.0028927680798004987,0.004975740813523002,
0.002942643391521197,-0.010567613489008722,
0.0029925187032418953,0.01760170081451077,
0.0030423940149625936,0.034032774355256624,
0.003092269326683292,0.015081356597984468,
0.00314214463840399,0.01111872546787896,
0.0031920199501246885,0.006812296114364235,
0.0032418952618453864,0.013052982890674242,
0.0032917705735660847,-0.003294201519216935,
0.003341645885286783,0.03131476021875315,
0.0033915211970074813,0.009190493373112063,
0.0034413965087281796,-0.002983942111603877,
0.003491271820448878,-0.007356379067983809,
0.003541147132169576,0.007295392953265452,
0.0035910224438902745,-0.007090602665854474,
0.0036408977556109724,0.008324356105347585,
0.0036907730673316707,0.035940088146466785,
0.003740648379052369,-0.005099213315335702,
0.0037905236907730673,0.00476797702482769,
0.0038403990024937656,0.01359129197219765,
0.003890274314214464,0.01919214275337285,
0.003940149625935162,0.006168358333189785,
0.00399002493765586,-0.005885838459155229,
0.004039900249376558,0.009122360436377337,
0.004089775561097257,0.0006746252471621092,
0.004139650872817955,-0.00164454946549626,
0.004189526184538653,0.009295629238539847,
0.004239401496259352,0.019553110598995414,
0.00428927680798005,0.01868938130033163,
0.004339152119700748,0.020686709533392036,
0.0043890274314214465,0.021885756932308396,
0.004438902743142145,0.0031051971558587123,
0.004488778054862843,0.01119786417884595,
0.004538653366583541,-0.000291734012178994,
0.00458852867830424,0.022234737598960122,
0.004638403990024938,-0.011220029307437936,
0.0046882793017456355,0.009845205568206882,
0.004738154613466334,-0.0062600301021506185,
0.004788029925187032,0.00022366019657988094,
0.00483790523690773,-0.006847988140568538,
0.004887780548628429,0.01092678446642726,
0.004937655860349127,0.02370547887790372,
0.004987531172069825,-0.01671087425947882,
0.005037406483790524,-0.002073682490894945,
0.005087281795511222,0.02274210395532413,
0.00513715710723192,-0.017057149883684283,
0.0051870324189526185,-0.0055926465675215226,
0.005236907730673317,0.004928554349572962,
0.005286783042394015,0.0018631548461244894,
0.0053366583541147134,-0.007707690638691642,
0.005386533665835412,0.016058390174455334,
0.00543640897755611,0.040561474044930455,
0.005486284289276808,-0.004156527293257328,
0.005536159600997507,0.008385940518038398,
0.005586034912718204,-0.022471031101544855,
0.005635910224438902,-0.03960012781937451,
0.005685785536159601,0.030120135770776137,
0.005735660847880299,0.0007240469391432175,
0.005785536159600997,-0.03535207998250579,
0.005835411471321696,-0.01693926770775324,
0.005885286783042394,0.008287949902451533,
0.005935162094763092,0.0012022612297233012,
0.0059850374064837905,0.0008714449046071412,
0.006034912718204489,-0.03176856724826974,
0.006084788029925187,-0.015369461033855603,
0.0061346633416458855,-0.0035167561660115858,
0.006184538653366584,-0.003858279393330326,
0.006234413965087282,-0.024797419235930103,
0.00628428927680798,0.000693852839455519,
0.006334164588528679,0.012387112663027904,
0.006384039900249377,-0.009537374857253597,
0.006433915211970074,-0.02065376869724727,
0.006483790523690773,-0.0011485987034506422,
0.006533665835411471,0.0019071706423054967,
0.006583541147132169,-0.009543487142236145,
0.006633416458852868,-0.007426468261579423,
0.006683291770573566,-0.026013102666465022,
0.006733167082294264,-0.024357161294866963,
0.0067830423940149626,0.0020887934470019947,
0.006832917705735661,-0.012539831604681934,
0.006882793017456359,0.0016564993225958481,
0.0069326683291770575,-0.005005905194098785,
0.006982543640897756,0.015026079450115028,
0.007032418952618454,-0.026662440933069992,
0.007082294264339152,-0.004999860315223378,
0.007132169576059851,-0.021758860331816267,
0.007182044887780549,-0.021597331762009453,
0.007231920199501247,-0.010526074159533171,
0.007281795511221945,0.018317958685368445,
0.007331670822942643,-0.023379422667737626,
0.007381546134663341,-0.0059989624620940575,
0.00743142144638404,0.0043238655886614925,
0.007481296758104738,-0.005615311015368253,
0.007531172069825436,0.0020869217848080972,
0.007581047381546135,-0.01509806169698577,
0.007630922693266833,-0.018496473943316764,
0.007680798004987531,-0.02466195063046011,
0.0077306733167082295,-0.0024850928193242746,
0.007780548628428928,-0.0045821184901619315,
0.007830423940149626,-0.025079215911914768,
0.007880299251870324,-0.007585062171968038,
0.007930174563591023,-0.012951820531096529,
0.00798004987531172,-0.005838125966486207,
0.00802992518703242,-0.00242693057262198,
0.008079800498753117,-0.02294917747285722,
0.008129675810473816,0.008488148828685422,
0.008179551122194513,-0.01627125751536226,
0.008229426433915213,-0.009598327883966884,
0.00827930174563591,-0.005105016303825299,
0.00832917705735661,-0.006534585942922607,
0.008379052369077307,-0.0015825629888672529,
0.008428927680798006,-0.018387644398265367,
0.008478802992518703,-0.016585453217125092,
0.0085286783042394,-0.030628054650294598,
0.0085785536159601,-0.010007442241452898,
0.008628428927680797,-0.005909902562852589,
0.008678304239401496,-0.029669065948119643,
0.008728179551122194,-0.03241395355203457,
0.008778054862842893,0.005119593288356997,
0.00882793017456359,-0.030376925880211826,
0.00887780548628429,-0.0208728587223456,
0.008927680798004987,-0.0036538639650778217,
0.008977556109725686,-0.024013641388469825,
0.009027431421446384,-0.010807320872772145,
0.009077306733167083,-0.06487376682687714,
0.00912718204488778,-0.03183833290272473,
0.00917705735660848,-0.011715620798159939,
0.009226932668329177,-0.0031573604137016837,
0.009276807980049876,-0.04859708010763618,
0.009326683291770574,-0.030053682463752788,
0.009376558603491271,-0.011120246515681342,
0.00942643391521197,-0.025226998935437023,
0.009476309226932668,-0.03184862223122331,
0.009526184538653367,-0.019487988818694672,
0.009576059850374064,-0.02306641812571362,
0.009625935162094763,-0.016716638456361916,
0.00967581047381546,-0.012923699759731537,
0.00972568578553616,-0.01572997247517257,
0.009775561097256857,-0.018686523070049765,
0.009825436408977557,-0.03639923608014762,
0.009875311720698254,0.0007111940132052824,
0.009925187032418953,-0.046052966134528445,
0.00997506234413965,-0.034581176992557444,
0.01002493765586035,-0.01655570051581636,
0.010074812967581047,-0.041682007268242297,
0.010124688279301746,-0.007864803502277667,
0.010174563591022444,-0.021031219565233527,
0.010224438902743141,-0.009438714305921882,
0.01027431421446384,-0.012996408338304136,
0.010324189526184538,-0.011991273179171622,
0.010374064837905237,-0.0091916533393928,
0.010423940149625935,-0.02335690472681189,
0.010473815461346634,0.0062868896423699805,
0.010523690773067331,-0.06777832471854978,
0.01057356608478803,-0.02493632668608619,
0.010623441396508728,-0.02458423747171426,
0.010673316708229427,-0.030363477983528724,
0.010723192019950124,-0.0017012098332506269,
0.010773067331670824,-0.03517125004937764,
0.010822942643391521,-0.05099221194972482,
0.01087281795511222,-0.021112665593592064,
0.010922693266832918,-0.034158642258637836,
0.010972568578553617,0.0002217232503683303,
0.011022443890274314,-0.015273816169972192,
0.011072319201995013,-0.022560655921216574,
0.01112219451371571,0.008687385164092044,
0.011172069825436408,-0.028110079533922708,
0.011221945137157107,-0.009717129135882779,
0.011271820448877805,0.0009369271319345472,
0.011321695760598504,-0.015087831921067926,
0.011371571072319201,0.015944006341240994,
0.0114214463840399,-0.021835892216448098,
0.011471321695760598,0.005032348625334977,
0.011521197007481297,-0.03776262933352495,
0.011571072319201995,-0.028328353283421974,
0.011620947630922694,-0.0028679866419824215,
0.011670822942643391,-0.011490178377175066,
0.01172069825436409,-0.021514687818783254,
0.011770573566084788,-0.041118540441478474,
0.011820448877805487,-0.009777959331769528,
0.011870324189526184,-0.025398330695334627,
0.011920199501246884,-0.051310214729253734,
0.011970074812967581,-0.009832662804776855,
0.012019950124688279,-0.023213131200345703,
0.012069825436408978,-0.03583361877864848,
0.012119700748129675,-0.008438657528067234,
0.012169576059850374,-0.03610084784106804,
0.012219451371571072,-0.03677463575193321,
0.012269326683291771,-0.027970942776469287,
0.012319201995012468,-0.02871304947008172,
0.012369077306733168,-0.01349014612473787,
0.012418952618453865,-0.020843316724625784,
0.012468827930174564,-0.008997440498092419,
0.012518703241895262,0.0033224283487116573,
0.01256857855361596,0.017611940805487697,
0.012618453865336658,0.019019042741252302,
0.012668329177057357,0.0141153305900924,
0.012718204488778055,-0.014643306604952076,
0.012768079800498754,-0.027967966853572765,
0.012817955112219451,-0.015390905717709657,
0.012867830423940149,-0.02428941634377855,
0.012917705735660848,-0.0005018524307050746,
0.012967581047381545,-0.03704670959317982,
0.013017456359102245,-0.01808296035362305,
0.013067331670822942,-0.009352550841235732,
0.013117206982543641,-0.029457747426167247,
0.013167082294264339,-0.01234967346997562,
0.013216957605985038,-0.011801789077360243,
0.013266832917705735,-0.023816001356245266,
0.013316708229426434,-0.015952967163879547,
0.013366583541147132,-0.014947463472229666,
0.013416458852867831,-0.02761047140357096,
0.013466334164588529,-0.002700924749085628,
0.013516209476309228,-0.002103435708660617,
0.013566084788029925,-0.010159901312799518,
0.013615960099750624,-0.019667462106698404,
0.013665835411471322,-0.013724702111564908,
0.01371571072319202,-0.013828429356076144,
0.013765586034912718,0.0003125739881683926,
0.013815461346633416,0.006839428609595969,
0.013865336658354115,-0.021160442829435494,
0.013915211970074812,-0.02767131406449775,
0.013965087281795512,-0.007405448500651881,
0.014014962593516209,0.028933640078479792,
0.014064837905236908,-0.006231569917378414,
0.014114713216957606,0.007062481037115493,
0.014164588528678305,0.003253130392303987,
0.014214463840399002,0.0036342120207989524,
0.014264339152119701,0.023934406995765607,
0.014314214463840399,-0.029378796472688016,
0.014364089775561098,-0.03432010643887061,
0.014413965087281795,-0.008393740591474722,
0.014463840399002495,0.00770380122795125,
0.014513715710723192,0.0031709910324086207,
0.01456359102244389,-0.017225188151274343,
0.014613466334164589,0.005622793875938398,
0.014663341645885286,-0.00673803320729713,
0.014713216957605985,0.01641857759408759,
0.014763092269326683,-0.005334440155172452,
0.014812967581047382,0.016065584297101466,
0.01486284289276808,0.004371853342249414,
0.014912718204488778,0.009206620505328923,
0.014962593516209476,-0.009789749589179728,
0.015012468827930175,0.0027888136171594054,
0.015062344139650873,-0.013500940810413687,
0.015112219451371572,0.0028899824160579643,
0.01516209476309227,0.018152286593431568,
0.015211970074812968,0.004890815260779964,
0.015261845386533666,-0.004098138899203363,
0.015311720698254365,-0.002059919834201945,
0.015361596009975062,-0.01312478721898823,
0.01541147132169576,0.010303921135901959,
0.015461346633416459,-0.013536309809419955,
0.015511221945137156,0.025758746462731553,
0.015561097256857856,-0.009959035218323451,
0.015610972568578553,-0.0014403473829513185,
0.015660847880299252,0.008845212392208363,
0.01571072319201995,0.005143517300850807,
0.015760598503740647,-0.01645188679851645,
0.015810473815461346,-0.0515358538010123,
0.015860349127182045,0.006021889990801109,
0.015910224438902745,0.003613395314411995,
0.01596009975062344,0.012502198870909932,
0.01600997506234414,-0.004562131596079155,
0.01605985037406484,-0.010790404049483648,
0.016109725685785538,0.010625022351534251,
0.016159600997506234,0.03757869365108688,
0.016209476309226933,0.013366107470936747,
0.016259351620947632,-0.015351338830683924,
0.016309226932668328,0.023506000357369373,
0.016359102244389027,-0.002446703592840751,
0.016408977556109726,0.016926651925670708,
0.016458852867830425,0.014888518204481643,
0.01650872817955112,-0.003586164834153598,
0.01655860349127182,0.021400294486547865,
0.01660847880299252,-0.002912571281718117,
0.01665835411471322,0.012284645911098263,
0.016708229426433914,-0.0045768223185255735,
0.016758104738154613,0.011808910338193394,
0.016807980049875312,0.014997757895617563,
0.01685785536159601,0.010348199521072875,
0.016907730673316707,0.019236806866977776,
0.016957605985037406,0.01886908922868763,
0.017007481296758106,0.011765108839458192,
0.0170573566084788,0.01301189385739935,
0.0171072319201995,0.02843692531590694,
0.0171571072319202,0.01557544558859115,
0.0172069825436409,0.0236892895378989,
0.017256857855361595,0.004933684890833514,
0.017306733167082294,0.02616673817985043,
0.017356608478802993,0.019907273179418965,
0.017406483790523692,0.03400155303720624,
0.017456359102244388,0.009598319825560954,
0.017506234413965087,0.0024399382043738815,
0.017556109725685786,0.03513751639667983,
0.017605985037406485,-0.005074798167102171,
0.01765586034912718,0.021250312720127826,
0.01770573566084788,0.01464779174366056,
0.01775561097256858,0.005491765339790329,
0.01780548628428928,0.015617821750970482,
0.017855361596009974,0.02117947517167233,
0.017905236907730673,0.01724773437908731,
0.017955112219451373,0.023315287890503945,
0.018004987531172068,0.0077890495226751524,
0.018054862842892767,0.026572108672034744,
0.018104738154613467,0.011919545187166376,
0.018154613466334166,0.003380663060314598,
0.01820448877805486,-0.0018377545861958736,
0.01825436408977556,0.029711652406293424,
0.01830423940149626,-0.00457715740146707,
0.01835411471321696,0.018348532933169685,
0.018403990024937655,0.028120088203596932,
0.018453865336658354,0.02647154075705289,
0.018503740648379053,-0.013297246258796806,
0.018553615960099752,-0.008285325922727738,
0.018603491271820448,0.031582046751703174,
0.018653366583541147,0.006903036206258132,
0.018703241895261846,0.012753854641682487,
0.018753117206982542,0.002257201113120978,
0.01880299251870324,0.025026680528590972,
0.01885286783042394,0.03321632321509394,
0.01890274314214464,0.0070194819059353625,
0.018952618453865335,0.003006220238388275,
0.019002493765586034,0.002639108035253253,
0.019052369077306733,0.006119174991371899,
0.019102244389027433,0.023542773931068826,
0.01915211970074813,0.019964700468728003,
0.019201995012468828,0.019879495637607474,
0.019251870324189527,0.010502275299915584,
0.019301745635910226,0.02406518078543042,
0.01935162094763092,0.017772739432092222,
0.01940149625935162,0.007184870174428605,
0.01945137157107232,0.011836771843968958,
0.01950124688279302,0.03766858537525787,
0.019551122194513715,0.02715655089823676,
0.019600997506234414,0.0372677853625234,
0.019650872817955113,0.018934918951834676,
0.01970074812967581,0.036408389798440466,
0.019750623441396508,0.017254263663963213,
0.019800498753117207,0.024015432188638126,
0.019850374064837906,0.012820564279703192,
0.019900249376558602,0.001990179012173493,
0.0199501246882793,0.037346452601567784,
0.02,0.014097208277551052,
0.0200498753117207,0.033274998661352514,
0.020099750623441395,0.021226209351695127,
0.020149625935162094,0.03020472867847753,
0.020199501246882794,0.021139133296612957,
0.020249376558603493,0.020505925700891502,
0.02029925187032419,0.020684062616501214,
0.020349127182044888,0.028021141553295832,
0.020399002493765587,0.012614589906699293,
0.020448877805486283,0.04024367106602069,
0.02049875311720698,0.050053039600620755,
0.02054862842892768,0.006900166991703647,
0.02059850374064838,0.028783130421449084,
0.020648379052369076,0.003646265704527085,
0.020698254364089775,0.0014069734097770827,
0.020748129675810474,0.025387473311173334,
0.020798004987531173,0.009420885385063004,
0.02084788029925187,0.0376701862480113,
0.020897755610972568,0.037739541212293566,
0.020947630922693267,0.017134334585837786,
0.020997506234413967,0.02112622430628241,
0.021047381546134662,0.013385004570478858,
0.02109725685785536,0.007872114645054712,
0.02114713216957606,0.030582274128814778,
0.02119700748129676,0.04790641972102243,
0.021246882793017455,0.017044547268267624,
0.021296758104738155,0.008923823191231329,
0.021346633416458854,0.011420184158150362,
0.02139650872817955,0.030519449612292394,
0.02144638403990025,0.028993217197092337,
0.021496259351620948,0.038085056400361667,
0.021546134663341647,0.010181716296815463,
0.021596009975062343,0.023884276530098836,
0.021645885286783042,0.027195771803745238,
0.02169576059850374,0.04040716024819072,
0.02174563591022444,0.005825662489718863,
0.021795511221945136,0.005807552606556443,
0.021845386533665835,0.035759796095620584,
0.021895261845386534,0.024601818711148377,
0.021945137157107233,0.02128258441481947,
0.02199501246882793,0.005218097126761538,
0.02204488778054863,0.03109310529384511,
0.022094763092269327,0.019283957127044213,
0.022144638403990027,0.03889707221566284,
0.022194513715710722,0.010630148320905608,
0.02224438902743142,0.026056413547586876,
0.02229426433915212,0.003263250625229171,
0.022344139650872816,-0.0056371733601956325,
0.022394014962593516,0.027648518232743072,
0.022443890274314215,-0.004670411891681974,
0.022493765586034914,0.0332882056650604,
0.02254364089775561,-0.012348753267919326,
0.02259351620947631,0.0076287626414351314,
0.022643391521197008,-0.004798413924776569,
0.022693266832917707,0.007082578425718342,
0.022743142144638403,-0.00638583456927521,
0.022793017456359102,0.02318443480881866,
0.0228428927680798,0.012672323267681954,
0.0228927680798005,0.028728161655645235,
0.022942643391521196,-0.0027686581086330004,
0.022992518703241895,0.005699527864170929,
0.023042394014962594,0.01154845641402299,
0.02309226932668329,0.020617781416677236,
0.02314214463840399,-0.001274052265507251,
0.02319201995012469,-0.018863903058114598,
0.023241895261845388,0.009835785103550276,
0.023291770573566083,0.02921131889659951,
0.023341645885286783,0.016867036902444916,
0.02339152119700748,0.03713517159259354,
0.02344139650872818,0.027472779497709536,
0.023491271820448877,-0.005261032440186388,
0.023541147132169576,0.02455096511383479,
0.023591022443890275,0.03085996249250412,
0.023640897755610974,0.02490301317478503,
0.02369077306733167,0.03951436279416537,
0.02374064837905237,0.0167234545020551,
0.023790523690773068,0.008809684786222353,
0.023840399002493767,-0.010449458584041853,
0.023890274314214463,0.019999868260310527,
0.023940149625935162,0.0061687397474563255,
0.02399002493765586,0.015526774588992974,
0.024039900249376557,0.0008580639571039075,
0.024089775561097256,0.012614839890028923,
0.024139650872817955,0.005018593468170039,
0.024189526184538655,-0.016365477152897198,
0.02423940149625935,0.0038963896271575127,
0.02428927680798005,-0.016137546057024423,
0.02433915211970075,0.023789040160361007,
0.024389027431421448,-0.004423289946334155,
0.024438902743142144,0.016080550313799534,
0.024488778054862843,0.004389067278444868,
0.024538653366583542,0.02271489093359324,
0.02458852867830424,0.017068209363929727,
0.024638403990024937,0.01025104976856044,
0.024688279301745636,0.023862554615263494,
0.024738154613466335,0.03142397395498591,
0.02478802992518703,0.00906042995906169,
0.02483790523690773,0.02528046013265683,
0.02488778054862843,0.011726965411417628,
0.02493765586034913,-0.003713207937570737,
0.024987531172069824,0.014763212677691874,
0.025037406483790523,0.026599271246136515,
0.025087281795511222,-0.02312286088898199,
0.02513715710723192,0.026007762311699534,
0.025187032418952617,-0.027786159719833465,
0.025236907730673316,0.02171488269634496,
0.025286783042394016,-0.0349268238444538,
0.025336658354114715,-0.014872027789191665,
0.02538653366583541,0.0035539796752877446,
0.02543640897755611,-0.021754243752062846,
0.02548628428927681,0.0023790404046267434,
0.025536159600997508,-0.026042589003254044,
0.025586034912718204,0.002047041481598234,
0.025635910224438903,-0.0011842349840641044,
0.025685785536159602,0.02016558009878478,
0.025735660847880298,0.0005268221634955627,
0.025785536159600997,0.0018060690664684408,
0.025835411471321696,0.01297359091434355,
0.025885286783042395,-0.016804387688272984,
0.02593516209476309,-0.03427566363170652,
0.02598503740648379,0.019673828204548834,
0.02603491271820449,-0.009261197676536362,
0.02608478802992519,-0.023758190579468718,
0.026134663341645884,0.003696849471178647,
0.026184538653366583,0.0034231221715521594,
0.026234413965087282,-0.015026743384994306,
0.02628428927680798,0.027097925665880457,
0.026334164588528677,-0.004147299790022325,
0.026384039900249377,-0.004658918121154511,
0.026433915211970076,0.0030901340883222623,
0.02648379052369077,-0.010893850341856486,
0.02653366583541147,-0.00030005886331151144,
0.02658354114713217,-0.037302463583771386,
0.02663341645885287,-0.020989550135969943,
0.026683291770573565,-0.008216289074785579,
0.026733167082294264,-0.02933752608339104,
0.026783042394014963,-0.03481820272132424,
0.026832917705735662,-0.011059010696894037,
0.026882793017456358,0.009761633984397017,
0.026932668329177057,-0.025923447227107467,
0.026982543640897756,-0.006214373023045212,
0.027032418952618455,-0.013791852810658877,
0.02708229426433915,-0.02778402026050862,
0.02713216957605985,-0.0027142129426710616,
0.02718204488778055,-0.0217732794747711,
0.02723192019950125,-0.010932350228371317,
0.027281795511221944,-0.014910130028960519,
0.027331670822942643,-0.01557988209456969,
0.027381546134663343,0.005126919412215219,
0.02743142144638404,0.030286957610013127,
0.027481296758104738,-0.004926221377788785,
0.027531172069825437,-0.038746218163508886,
0.027581047381546136,-0.011491595172343275,
0.02763092269326683,-0.009683447734418206,
0.02768079800498753,-0.023232990840548088,
0.02773067331670823,-0.002188104108502186,
0.02778054862842893,-0.0026518240744637725,
0.027830423940149625,-0.010810668015631304,
0.027880299251870324,0.01614012255616553,
0.027930174563591023,0.0005180938497392432,
0.027980049875311722,-0.027868052153186437,
0.028029925187032418,-0.019453542462754755,
0.028079800498753117,-0.004859691297444268,
0.028129675810473816,-0.04481445541716737,
0.028179551122194512,-0.02440246156250519,
0.02822942643391521,-0.02329801828904465,
0.02827930174563591,-0.003519226029767817,
0.02832917705735661,-0.03637500911030606,
0.028379052369077305,-0.035258576752350265,
0.028428927680798004,-0.012822481166042347,
0.028478802992518704,-0.032074256965914275,
0.028528678304239403,-0.02502594223575992,
0.0285785536159601,-0.0031389904753357633,
0.028628428927680798,-0.0035642594390162697,
0.028678304239401497,-0.04513022391341798,
0.028728179551122196,-0.004473009191862162,
0.02877805486284289,-0.023230750920041454,
0.02882793017456359,-0.029182150425079732,
0.02887780548628429,-0.028622114325386645,
0.02892768079800499,-0.004258624466538843,
0.028977556109725685,-0.03809608398726668,
0.029027431421446384,-0.01450812688412702,
0.029077306733167083,-0.058169149809596615,
0.02912718204488778,-0.0029528665449471154,
0.029177057356608478,0.01447744845361668,
0.029226932668329177,-0.01712347042807106,
0.029276807980049877,-0.027575575783966133,
0.029326683291770572,-0.0039751794235394124,
0.02937655860349127,-0.01238877825569692,
0.02942643391521197,-0.035616480323029776,
0.02947630922693267,-0.013097280001881354,
0.029526184538653365,0.010782194208345464,
0.029576059850374065,-0.02299783705049156,
0.029625935162094764,-0.04911617961651933,
0.029675810473815463,-0.016490605186187828,
0.02972568578553616,-0.044397091501866756,
0.029775561097256858,-0.03200790655033886,
0.029825436408977557,0.013512410616961023,
0.029875311720698253,-0.033811373013270266,
0.029925187032418952,-0.01946976437005287,
0.02997506234413965,-0.012046058867904089,
0.03002493765586035,-0.02804021882435527,
0.030074812967581046,0.0022153011676432355,
0.030124688279301745,-0.006299798374450322,
0.030174563591022444,-0.04235616090265225,
0.030224438902743143,-0.008269579699887305,
0.03027431421446384,-0.021047507629117796,
0.03032418952618454,-0.019105270476017202,
0.030374064837905237,-0.02403868988129952,
0.030423940149625937,0.0026250908563831624,
0.030473815461346632,-0.014388945859515464,
0.03052369077306733,-0.027997759792945717,
0.03057356608478803,-0.02813514706607763,
0.03062344139650873,0.015324614957848301,
0.030673316708229426,-0.04085166277991864,
0.030723192019950125,-0.02405660587007412,
0.030773067331670824,-0.026882781588145457,
0.03082294264339152,0.0014923464590479163,
0.03087281795511222,-0.016256052407091975,
0.030922693266832918,-0.027957689678592284,
0.030972568578553617,-0.018108653159221683,
0.031022443890274313,-0.04731939705583746,
0.031072319201995012,-0.0364798926218549,
0.03112219451371571,0.0005890118685657683,
0.03117206982543641,-0.04038796088404009,
0.031221945137157106,-0.017086574026930954,
0.03127182044887781,-0.0009718591499852866,
0.031321695760598504,-0.03571385051619844,
0.0313715710723192,-0.03086865210558752,
0.0314214463840399,-0.005228386544308456,
0.0314713216957606,-0.007739809016905687,
0.031521197007481294,-0.008916603367501219,
0.031571072319202,-0.029312892688224186,
0.03162094763092269,-0.017800659235978775,
0.03167082294264339,-0.009141143201496265,
0.03172069825436409,0.007872652711534263,
0.03177057356608479,0.001833479879493451,
0.03182044887780549,-0.023559408154263925,
0.031870324189526185,-0.02718366295831342,
0.03192019950124688,-0.022380933174683926,
0.03197007481296758,0.014741095019180363,
0.03201995012468828,-0.006098073974376481,
0.032069825436408975,-0.001755786457189332,
0.03211970074812968,-0.0036307841786995636,
0.03216957605985037,-0.019108636082637714,
0.032219451371571076,-0.017435383056768682,
0.03226932668329177,-0.013844325855285633,
0.03231920199501247,-0.02632724694830356,
0.03236907730673317,-0.003790978775325634,
0.032418952618453865,0.01373301374887604,
0.03246882793017456,-0.038035889020871474,
0.032518703241895264,-0.03463894133762602,
0.03256857855361596,-0.013574245002790144,
0.032618453865336655,-0.006811661767411161,
0.03266832917705736,-0.01053685679662728,
0.032718204488778053,-0.026709555073576932,
0.032768079800498756,-0.028538305660211025,
0.03281795511221945,-0.0010163302131025037,
0.03286783042394015,-0.008627214992630038,
0.03291770573566085,-0.014231761366465338,
0.032967581047381546,-0.010221331890644737,
0.03301745635910224,-0.015468847619459805,
0.033067331670822944,0.0026942823460984304,
0.03311720698254364,0.010390018088604435,
0.03316708229426434,-0.053178430948167384,
0.03321695760598504,-0.030973830189877427,
0.033266832917705734,0.004160624830229245,
0.03331670822942644,-0.007412050203412936,
0.03336658354114713,-0.020041779628878167,
0.03341645885286783,-0.031194117082421285,
0.03346633416458853,-0.008244495149944752,
0.033516209476309226,-0.0037411014336321876,
0.03356608478802992,0.002011692333480135,
0.033615960099750625,-0.004970249541064358,
0.03366583541147132,-0.044508581928965354,
0.03371571072319202,-0.0009719252009213197,
0.03376558603491272,0.006625366552263123,
0.033815461346633414,-0.006301805772619275,
0.03386533665835412,-0.0005394721184709649,
0.03391521197007481,-0.015987130189081298,
0.03396508728179551,-0.0005585055084767537,
0.03401496259351621,-0.04000261864156953,
0.03406483790523691,6.424225400823973e-05,
0.0341147132169576,-0.01402088316070314,
0.034164588528678305,-0.023544024014513693,
0.034214463840399,-0.0036556155536068566,
0.034264339152119704,0.00900435441946839,
0.0343142144638404,-0.011752954680296348,
0.034364089775561095,-0.025545443751501286,
0.0344139650872818,-0.009364497936515876,
0.03446384039900249,0.023822858318112462,
0.03451371571072319,-0.0011965818233974261,
0.03456359102244389,0.0039454092252037155,
0.03461346633416459,0.006451132624136852,
0.03466334164588529,-0.02080015268364362,
0.034713216957605986,-0.013435679981381227,
0.03476309226932668,0.017979483700554726,
0.034812967581047384,-0.001813560492668971,
0.03486284289276808,-0.011477985618545567,
0.034912718204488775,0.010423273765476852,
0.03496259351620948,0.005858718290438849,
0.035012468827930174,0.00026813889166742285,
0.03506234413965087,0.027328924511680047,
0.03511221945137157,-0.03224785665252366,
0.03516209476309227,0.010197875766892158,
0.03521197007481297,0.0027182140287564617,
0.035261845386533666,0.025954733402734492,
0.03531172069825436,-0.012205560052563307,
0.035361596009975065,-0.013295551692851298,
0.03541147132169576,0.006944776045353292,
0.035461346633416456,0.0010162521576342967,
0.03551122194513716,-0.004250969400815228,
0.035561097256857854,0.008214966402535207,
0.03561097256857856,0.010256462401480645,
0.03566084788029925,0.01724687419844872,
0.03571072319201995,0.003977807089737598,
0.03576059850374065,0.01490258827153387,
0.03581047381546135,-0.035453143160424895,
0.03586034912718204,0.020553756468131176,
0.035910224438902745,0.02613081323544377,
0.03596009975062344,-0.007233321861310932,
0.036009975062344136,-0.002533600960344823,
0.03605985037406484,-0.0038554544367539485,
0.036109725685785535,0.008527969866780357,
0.03615960099750624,0.003987653884792575,
0.03620947630922693,0.004685257582192363,
0.03625935162094763,0.019327175785264633,
0.03630922693266833,0.0051836892319926005,
0.03635910224438903,-0.01012287609711897,
0.03640897755610972,0.005935430330177359,
0.036458852867830426,-0.002583328766446411,
0.03650872817955112,0.016043750730946132,
0.036558603491271824,-0.004932730351997858,
0.03660847880299252,0.023711270768094192,
0.036658354114713215,0.012583856549486535,
0.03670822942643392,0.009539983204226646,
0.036758104738154614,0.03987736305603745,
0.03680798004987531,0.012986801496158683,
0.03685785536159601,0.01843421852815841,
0.03690773067331671,0.012353062732797286,
0.0369576059850374,-0.008245703044241966,
0.037007481296758106,-0.00015282170043311866,
0.0370573566084788,0.03777448270598652,
0.037107231920199504,0.02449421208653431,
0.0371571072319202,0.008847256278814511,
0.037206982543640896,-0.017572646209991105,
0.0372568578553616,0.031999769297111014,
0.037306733167082294,0.026833281308052136,
0.03735660847880299,0.009417852318014237,
0.03740648379052369,0.028277247679649044,
0.03745635910224439,0.0051483580214296675,
0.037506234413965084,0.025393974981502247,
0.037556109725685786,0.03264156409610537,
0.03760598503740648,0.01913482645509366,
0.037655860349127185,-0.011709631007190024,
0.03770573566084788,0.01140678996149256,
0.037755610972568576,0.0302909961437335,
0.03780548628428928,-0.0008378684156733485,
0.037855361596009975,0.031954135082015805,
0.03790523690773067,0.011437573018334476,
0.03795511221945137,0.014816663561802685,
0.03800498753117207,0.023186771498142935,
0.03805486284289277,0.00014881434342203792,
0.03810473815461347,0.0020539724174664722,
0.03815461346633416,0.018745444383662758,
0.038204488778054865,0.001920810536188658,
0.03825436408977556,0.03072690171069629,
0.03830423940149626,-0.002072315390150105,
0.03835411471321696,0.033067898924297116,
0.038403990024937655,0.03439816272171862,
0.03845386533665835,0.0374724420133417,
0.03850374064837905,-0.005125461221404292,
0.03855361596009975,0.02596619143463904,
0.03860349127182045,0.018341337548819277,
0.03865336658354115,0.033809754347532625,
0.03870324189526184,0.013256866080172777,
0.038753117206982546,-0.00924641615814566,
0.03880299251870324,0.010433994676608889,
0.03885286783042394,0.016697802445711243,
0.03890274314214464,0.01218191720858405,
0.038952618453865336,0.019521672319247344,
0.03900249376558604,0.04532040748162244,
0.039052369077306734,0.021393026828606887,
0.03910224438902743,-0.0027892562221763853,
0.03915211970074813,0.035318746138371694,
0.03920199501246883,0.04191940979844652,
0.039251870324189524,0.04117707574531376,
0.039301745635910226,0.018130632025231776,
0.03935162094763092,-0.019298233331936625,
0.03940149625935162,0.04899637716915961,
0.03945137157107232,0.029488215222614547,
0.039501246882793016,0.012785509485074039,
0.03955112219451372,0.023766593310872993,
0.039600997506234414,0.014868954532392144,
0.03965087281795511,0.008376439107967999,
0.03970074812967581,0.034023593161795054,
0.03975062344139651,0.032247965771608385,
0.039800498753117204,0.019407160314491564,
0.03985037406483791,0.03868754430726676,
0.0399002493765586,0.010235209997403138,
0.039950124688279305,0.030235699544316763,
0.04,0.03320425504379275,
0.0400498753117207,0.021643113890622966,
0.0400997506234414,0.0002531408324231328,
0.040149625935162095,0.02351329272304405,
0.04019950124688279,-0.0030009538142242997,
0.04024937655860349,0.030017139669308256,
0.04029925187032419,0.015347816766229507,
0.040349127182044885,0.022860620212551065,
0.04039900249376559,0.02461693217887663,
0.04044887780548628,0.04669534555849535,
0.040498753117206986,0.03707513454149553,
0.04054862842892768,0.016517178474340834,
0.04059850374064838,0.02949900546097556,
0.04064837905236908,-0.00019191942317034819,
0.040698254364089775,0.03097582536641022,
0.04074812967581047,0.027378799315902543,
0.040798004987531174,0.0404149242025849,
0.04084788029925187,0.01656910418476472,
0.040897755610972565,-0.012343344915504938,
0.04094763092269327,0.029856207888724375,
0.04099750623441396,0.004180086470712007,
0.041047381546134666,0.028156713565306767,
0.04109725685785536,0.03567831006945264,
0.04114713216957606,0.023574930169072094,
0.04119700748129676,0.016658835550441346,
0.041246882793017456,0.004876692507660901,
0.04129675810473815,0.027664067678555584,
0.041346633416458854,0.0512230674599584,
0.04139650872817955,0.016426642510888552,
0.04144638403990025,0.03369508521212225,
0.04149625935162095,0.023459472956532463,
0.041546134663341644,0.05307239457817078,
0.04159600997506235,0.0027699284832338814,
0.04164588528678304,0.021884563278611168,
0.04169576059850374,0.02803433306885151,
0.04174563591022444,0.026789670556321806,
0.041795511221945136,0.02745139948346608,
0.04184538653366583,0.03629896084240419,
0.041895261845386535,0.034973109178067514,
0.04194513715710723,0.02115454265365481,
0.04199501246882793,0.009095480044096816,
0.04204488778054863,0.02226195258382327,
0.042094763092269324,0.008142645004711044,
0.04214463840399003,0.013885190321385764,
0.04219451371571072,0.020419875129549625,
0.04224438902743142,0.015264034574784199,
0.04229426433915212,-0.002338730153875951,
0.04234413965087282,0.017320402649059152,
0.04239401496259352,0.01922780603331501,
0.042443890274314215,0.035392403811761106,
0.04249376558603491,0.00969586843279002,
0.042543640897755614,0.0056241617832151775,
0.04259351620947631,0.007384291589006976,
0.042643391521197005,0.038438368585026916,
0.04269326683291771,0.012445205838611709,
0.0427431421446384,0.0042056364565360976,
0.0427930174563591,0.0172888052131163,
0.0428428927680798,0.05305150745672904,
0.0428927680798005,-0.005367433462744604,
0.0429426433915212,0.021502503987668953,
0.042992518703241896,0.02044378038016218,
0.04304239401496259,0.028309760941757793,
0.043092269326683294,0.01605671734622926,
0.04314214463840399,0.05284211233706072,
0.043192019950124685,0.02535541666853719,
0.04324189526184539,0.0231537126898171,
0.043291770573566084,0.010897973052815108,
0.043341645885286786,0.027435613154845953,
0.04339152119700748,0.0033646604767333145,
0.04344139650872818,0.004134661613964009,
0.04349127182044888,-0.003589641254949493,
0.043541147132169576,0.002328380796216072,
0.04359102244389027,0.011213468407179876,
0.043640897755610975,0.018715902660378942,
0.04369077306733167,-0.02104077468491599,
0.043740648379052366,0.002570573013292542,
0.04379052369077307,0.005981336880008948,
0.043840399002493764,0.027716032067079458,
0.04389027431421447,0.0008391389686545191,
0.04394014962593516,9.057536305613276e-05,
0.04399002493765586,0.003368760309209854,
0.04403990024937656,0.03539022722474255,
0.04408977556109726,-0.00255572701733813,
0.04413965087281795,0.02570307057844212,
0.044189526184538655,-0.02258948497421661,
0.04423940149625935,0.016183631012716738,
0.04428927680798005,0.0020155417435061733,
0.04433915211970075,0.015240449160178773,
0.044389027431421445,0.016451174246964274,
0.04443890274314215,0.005408592937327696,
0.04448877805486284,0.03162926576147796,
0.04453865336658354,0.021492410240030062,
0.04458852867830424,0.01257489902456647,
0.04463840399002494,-0.004963894570177898,
0.04468827930174563,0.016504162022200872,
0.044738154613466335,0.03472872893207577,
0.04478802992518703,0.010313489315668169,
0.044837905236907734,-0.004707319590677032,
0.04488778054862843,0.016673295694095334,
0.044937655860349125,0.009399618499487058,
0.04498753117206983,-0.020302122633894693,
0.045037406483790524,-0.007484801620248633,
0.04508728179551122,0.012092531720570832,
0.04513715710723192,0.006495858206980926,
0.04518703241895262,0.02276234527212432,
0.04523690773067331,-0.002010371709797277,
0.045286783042394016,0.03629449768869687,
0.04533665835411471,0.01879822888981271,
0.045386533665835414,0.01491566251780991,
0.04543640897755611,-0.01506645955862149,
0.045486284289276806,-0.016435873094290496,
0.04553615960099751,-0.008531271567666138,
0.045586034912718204,0.01951740556445635,
0.0456359102244389,0.002832039828587077,
0.0456857855361596,-0.007097138260034858,
0.0457356608478803,0.028787461313245298,
0.045785536159601,-0.004097272746638598,
0.045835411471321696,0.006604234573480742,
0.04588528678304239,0.005905397790131283,
0.045935162094763095,0.005835740452968342,
0.04598503740648379,0.038220550725095385,
0.046034912718204486,-0.014916047948600578,
0.04608478802992519,0.028619442870524373,
0.046134663341645885,-0.018224927257249928,
0.04618453865336658,-0.021694135197317374,
0.04623441396508728,0.0013132327444860719,
0.04628428927680798,0.011753430228439311,
0.04633416458852868,-0.005548389708557736,
0.04638403990024938,-0.029346062739011126,
0.04643391521197007,0.0037714227138759583,
0.046483790523690775,-0.014052010740679213,
0.04653366583541147,-0.004310898850411647,
0.04658354114713217,-0.006473649022836536,
0.04663341645885287,-0.006966123730565862,
0.046683291770573565,0.0005002204930708541,
0.04673316708229427,0.010122734222185133,
0.04678304239401496,-0.008102167824524976,
0.04683291770573566,-0.02298118531281806,
0.04688279301745636,-0.0012736301164091414,
0.04693266832917706,0.014725987246209812,
0.04698254364089775,0.02291418809424072,
0.047032418952618456,-0.0176837060386296,
0.04708229426433915,-0.013942423748984419,
0.04713216957605985,-0.020872907710352252,
0.04718204488778055,-0.006396474565826038,
0.047231920199501246,-0.009574874518439039,
0.04728179551122195,-0.00984164149023297,
0.047331670822942644,-0.0008672610431259978,
0.04738154613466334,-0.017783875174766248,
0.04743142144638404,0.0014972775402519213,
0.04748129675810474,-0.004296037833476675,
0.047531172069825434,-0.001877793019339857,
0.047581047381546136,-0.023363777010926748,
0.04763092269326683,-0.02409510803539,
0.047680798004987535,-0.010732643738724137,
0.04773067331670823,-0.016256781186524585,
0.047780548628428926,-0.017696688946993184,
0.04783042394014963,-0.01929397839580388,
0.047880299251870324,-0.002327164523268461,
0.04793017456359102,-0.021762191775169467,
0.04798004987531172,-0.011474539951452447,
0.04802992518703242,-0.012840002492052834,
0.048079800498753114,-0.015945525111419123,
0.04812967581047382,0.009682931943114195,
0.04817955112219451,0.003473431980131239,
0.048229426433915215,-0.005045007215732488,
0.04827930174563591,-0.021475119915239087,
0.048329177057356607,-0.012444580469180346,
0.04837905236907731,0.00025127342104135086,
0.048428927680798005,0.0056448144308315,
0.0484788029925187,-0.004898621566690549,
0.0485286783042394,-0.032187416167387004,
0.0485785536159601,-0.023205074224137867,
0.048628428927680795,-0.012529397560355275,
0.0486783042394015,-0.016029465234001974,
0.04872817955112219,0.00271303269573874,
0.048778054862842896,-0.0084033565024585,
0.04882793017456359,-0.020680686322466772,
0.04887780548628429,-0.019795491788904242,
0.04892768079800499,-0.03536328657123442,
0.048977556109725685,-0.03824547579905604,
0.04902743142144638,0.004501402770188623,
0.049077306733167084,-0.009000819426788095,
0.04912718204488778,-0.004016008998769142,
0.04917705735660848,0.007821370672154191,
0.04922693266832918,-0.015069624041375457,
0.04927680798004987,-0.003850521073648404,
0.049326683291770576,-0.0015564992379374486,
0.04937655860349127,0.005141997254449433,
0.04942643391521197,-0.00021147176289294106,
0.04947630922693267,-0.011894050286108269,
0.049526184538653366,-0.02412395363018632,
0.04957605985037406,-0.02285270519907345,
0.049625935162094764,-0.015309091817203984,
0.04967581047381546,-0.010935660925848162,
0.04972568578553616,-0.015710632082561703,
0.04977556109725686,-0.01214626843968338,
0.049825436408977554,0.008930496057477814,
0.04987531172069826,-0.020258701190566407,
0.04992518703241895,-0.005074896411914234,
0.04997506234413965,-0.016444369880966706,
0.05002493765586035,-0.007295698182566606,
0.050074812967581046,0.0006175725320338964,
0.05012468827930175,-0.01702468946838847,
0.050174563591022445,-0.01636491590845083,
0.05022443890274314,-0.028452981943706622,
0.05027431421446384,-0.0008144915499989306,
0.05032418952618454,-0.03076429663165238,
0.050374064837905234,-0.007957250214863395,
0.05042394014962594,-0.027846397376310384,
0.05047381546134663,-0.030648937763797568,
0.05052369077306733,-0.02665168437703125,
0.05057356608478803,-0.010931556981455428,
0.05062344139650873,-0.01496939206442326,
0.05067331670822943,0.0009305842946261828,
0.050723192019950125,-0.042780786834125215,
0.05077306733167082,-0.006485969254018802,
0.050822942643391524,-0.018873269744893503,
0.05087281795511222,0.0033627852434242114,
0.050922693266832915,-0.015902662238416482,
0.05097256857855362,0.004398354361290956,
0.05102244389027431,-0.06250941902050265,
0.051072319201995016,-0.028206362837022048,
0.05112219451371571,0.0018569576959133523,
0.05117206982543641,-0.001984762028603643,
0.05122194513715711,-0.015827796701416232,
0.051271820448877806,-0.005687040490538045,
0.0513216957605985,0.0007685415039783063,
0.051371571072319204,-0.000578892228728525,
0.0514214463840399,-0.008689309610118396,
0.051471321695760595,-0.008777105366609056,
0.0515211970074813,-0.017839439009150908,
0.051571072319201994,-0.03044063033874716,
0.051620947630922696,-0.014105572126253274,
0.05167082294264339,-0.025774143138728025,
0.05172069825436409,-0.021847447398720007,
0.05177057356608479,-0.01505849967184129,
0.051820448877805486,-0.016422959833852363,
0.05187032418952618,-0.028776742041514872,
0.051920199501246884,-0.016390366558951482,
0.05197007481296758,-0.01742257070164501,
0.052019950124688276,-0.026961323203962786,
0.05206982543640898,-0.011534036791113717,
0.052119700748129674,-0.004190270666772326,
0.05216957605985038,-0.019885005888454807,
0.05221945137157107,-0.013403987460585867,
0.05226932668329177,-0.03368371549158257,
0.05231920199501247,-0.011668989733407083,
0.05236907730673317,-0.00698403637606875,
0.05241895261845386,-0.007866474834319872,
0.052468827930174565,-0.0011054890085281065,
0.05251870324189526,-0.017743125948484133,
0.05256857855361596,-0.017522620447945683,
0.05261845386533666,0.007212571117551223,
0.052668329177057355,-0.03330407056353322,
0.05271820448877806,-0.014152041638727025,
0.05276807980049875,-0.0026829215611768997,
0.05281795511221945,-0.031599163698143765,
0.05286783042394015,0.012792273546269219,
0.05291770573566085,-0.015029433803498093,
0.05296758104738154,-0.01303885276736632,
0.053017456359102245,-0.01380253812357761,
0.05306733167082294,-0.002340269370216412,
0.053117206982543644,-0.01971700805577428,
0.05316708229426434,-0.017232649662643602,
0.053216957605985035,0.0022377200351703565,
0.05326683291770574,-0.004912475560599603,
0.053316708229426434,0.020085289151653897,
0.05336658354114713,-0.022759723409200766,
0.05341645885286783,0.0016159112636815335,
0.05346633416458853,0.009339620686999735,
0.05351620947630923,0.006109235158050751,
0.053566084788029926,-0.013102947623320815,
0.05361596009975062,0.00992257448505534,
0.053665835411471324,-0.008122869230932929,
0.05371571072319202,-0.020198577478321676,
0.053765586034912716,0.0206741012960113,
0.05381546134663342,0.006580394800619291,
0.053865336658354114,0.0005028993201076455,
0.05391521197007481,-0.016009541585148557,
0.05396508728179551,-0.008415585015594588,
0.05401496259351621,-0.049686761640009854,
0.05406483790523691,0.016649921305822674,
0.054114713216957606,-0.000731052242115982,
0.0541645885286783,-0.021280216341207206,
0.054214463840399005,-0.009588179755079763,
0.0542643391521197,0.02057037411839188,
0.054314214463840396,-0.011071525870275479,
0.0543640897755611,0.0004246780921516721,
0.054413965087281795,0.0033314308944898292,
0.0544638403990025,0.034060103579238,
0.05451371571072319,-0.019201116783284854,
0.05456359102244389,0.01375532980352806,
0.05461346633416459,0.006527428390977313,
0.05466334164588529,-0.0023040516947641513,
0.05471321695760598,0.004890762024577293,
0.054763092269326685,0.003439580875134023,
0.05481296758104738,-0.023132699392473782,
0.05486284289276808,-0.024917793305152272,
0.05491271820448878,-0.012369783894212642,
0.054962593516209475,-0.00256547503177557,
0.05501246882793018,-0.022108070319292992,
0.05506234413965087,-0.011118372150974939,
0.05511221945137157,-0.005231095288640013,
0.05516209476309227,0.011479274944424685,
0.05521197007481297,0.013450709582118029,
0.05526184538653366,-0.013122268126645513,
0.055311720698254366,0.0006098458665339309,
0.05536159600997506,-0.0002314408732943295,
0.05541147132169576,0.0045852415524305625,
0.05546134663341646,0.007314927079466376,
0.055511221945137156,-0.018435909923718706,
0.05556109725685786,-0.0016798168994217296,
0.055610972568578554,0.03111188615568642,
0.05566084788029925,0.02995228432879292,
0.05571072319201995,0.007519003747913562,
0.05576059850374065,-0.011012714387184968,
0.055810473815461344,0.014318064052484175,
0.055860349127182046,0.012791362904968556,
0.05591022443890274,0.008304536812263582,
0.055960099750623445,-0.004821987822089627,
0.05600997506234414,0.005512360522391537,
0.056059850374064836,0.02064801249337281,
0.05610972568578554,-0.008262905581725422,
0.056159600997506234,0.013895366827281107,
0.05620947630922693,0.028972670191099843,
0.05625935162094763,-0.008295330810684166,
0.05630922693266833,0.03358508600609801,
0.056359102244389024,0.015144570998968366,
0.05640897755610973,0.03562254438508564,
0.05645885286783042,0.012861448685451578,
0.056508728179551125,0.01886585287452098,
0.05655860349127182,0.020554996644189763,
0.056608478802992516,-0.023084747544649516,
0.05665835411471322,0.01657628250517213,
0.056708229426433915,0.006254632707317243,
0.05675810473815461,0.013248792976417028,
0.05680798004987531,0.018464733374691948,
0.05685785536159601,0.007768785480397939,
0.05690773067331671,0.014295614428301127,
0.05695760598503741,0.0011431110810496848,
0.0570074812967581,0.032858905739704555,
0.057057356608478806,0.02119322950726815,
0.0571072319201995,0.019665999863900815,
0.0571571072319202,0.026631066178471444,
0.0572069825436409,0.022591414216075776,
0.057256857855361595,0.011200877752714007,
0.05730673316708229,0.020011857993967232,
0.057356608478802994,0.006365962442155775,
0.05740648379052369,0.02385237264320406,
0.05745635910224439,0.01015575352900067,
0.05750623441396509,0.01194749229362139,
0.05755610972568578,0.006712619482739468,
0.057605985037406486,0.0232409279570786,
0.05765586034912718,0.02702208964722303,
0.05770573566084788,-0.005399814687040792,
0.05775561097256858,0.007030871056860165,
0.057805486284289276,0.024713266218711775,
0.05785536159600998,0.0019120709107021648,
0.057905236907730674,0.04741779902925599,
0.05795511221945137,0.03058719189193914,
0.05800498753117207,0.03686896708283459,
0.05805486284289277,0.03515539659317076,
0.058104738154613464,0.00409514230024078,
0.05815461346633417,0.025681583635924272,
0.05820448877805486,0.05007491674947222,
0.05825436408977556,0.022663630924069658,
0.05830423940149626,0.02993569332633776,
0.058354114713216956,-0.0007485645465707957,
0.05840399002493766,0.05208915795790402,
0.058453865336658355,0.01170256378398256,
0.05850374064837905,-0.006802547959941514,
0.05855361596009975,0.019027390102333095,
0.05860349127182045,0.015246026301938746,
0.058653366583541144,0.012225041418216627,
0.05870324189526185,0.029821819178789094,
0.05875311720698254,0.003677617235649893,
0.05880299251870324,0.03420658611830986,
0.05885286783042394,0.021487292566358916,
0.05890274314214464,0.020789912168345012,
0.05895261845386534,0.021839778614233182,
0.059002493765586035,0.04091758295359202,
0.05905236907730673,0.011507154472767345,
0.059102244389027433,0.02925101206994424,
0.05915211970074813,-0.00029105582064211516,
0.059201995012468825,0.029530895585487393,
0.05925187032418953,0.002675945111605283,
0.05930174563591022,0.01109384228307902,
0.059351620947630926,0.0044891218235215795,
0.05940149625935162,0.02266142507236425,
0.05945137157107232,-0.015232033995265962,
0.05950124688279302,0.02471258086215418,
0.059551122194513716,0.005279041035606828,
0.05960099750623441,0.020868507566921678,
0.059650872817955114,0.01889652429086315,
0.05970074812967581,0.006845957032442684,
0.059750623441396505,0.040041953050059004,
0.05980049875311721,0.018908853862945087,
0.059850374064837904,0.02089004452904704,
0.059900249376558606,0.030153777987347172,
0.0599501246882793,0.02024098915100082,
0.06,0.03850799694225571,
0.0600498753117207,0.04187644284350789,
0.060099750623441396,-0.003256892860800928,
0.06014962593516209,0.024501615396237603,
0.060199501246882794,0.006606306554213324,
0.06024937655860349,0.03937330756312643,
0.06029925187032419,-0.0039303166998677225,
0.06034912718204489,0.0187758500552417,
0.060399002493765584,0.01880442038315286,
0.06044887780548629,0.045444544846210105,
0.06049875311720698,0.04276931891391009,
0.06054862842892768,0.011740599105074483,
0.06059850374064838,0.029954155170466096,
0.06064837905236908,0.03420326261042596,
0.06069825436408977,0.008088803555272521,
0.060748129675810475,0.007811041991521363,
0.06079800498753117,0.037962676770579476,
0.06084788029925187,0.026794954089299366,
0.06089775561097257,0.039105766897970545,
0.060947630922693265,0.01820278746931114,
0.06099750623441397,0.012232288607692245,
0.06104738154613466,0.011857645906142031,
0.06109725685785536,0.03406070056435856,
0.06114713216957606,-0.0028652719676973484,
0.06119700748129676,0.0025019929401498137,
0.06124688279301746,0.005376199696140012,
0.061296758104738155,0.03718646662945171,
0.06134663341645885,0.017437934374485285,
0.061396508728179554,0.04342246513003176,
0.06144638403990025,0.005029757591223115,
0.061496259351620945,0.02542751893336767,
0.06154613466334165,0.04014382925922354,
0.061596009975062344,0.03197186042767849,
0.06164588528678304,0.030012013181058634,
0.06169576059850374,0.034566369540735394,
0.06174563591022444,0.022000864595199426,
0.06179551122194514,0.024005099550861234,
0.061845386533665836,0.00595119979941337,
0.06189526184538653,0.023598851323152845,
0.061945137157107234,0.02829912175326499,
0.06199501246882793,0.029422035007900284,
0.062044887780548626,0.025288518004220165,
0.06209476309226933,0.04313904500507661,
0.062144638403990024,-0.007045494625135096,
0.06219451371571072,0.023553887607322917,
0.06224438902743142,0.038907135528966505,
0.06229426433915212,0.013537043354802068,
0.06234413965087282,0.008646424396963682,
0.062394014962593516,0.04609324516887962,
0.06244389027431421,0.007891049413603005,
0.062493765586034915,0.03390951843798113,
0.06254364089775562,0.006154821898271925,
0.06259351620947631,0.018544601173787166,
0.06264339152119701,-0.0022303660308833906,
0.0626932668329177,0.02422169495177088,
0.0627431421446384,0.04588307785269705,
0.0627930174563591,0.005958667545231175,
0.0628428927680798,0.0015910322080619835,
0.0628927680798005,-0.0013296032852845585,
0.0629426433915212,0.03499593388204617,
0.06299251870324189,0.0162313499802709,
0.06304239401496259,0.024133809183529663,
0.0630922693266833,0.011684958979709257,
0.063142144638404,0.04857181222361353,
0.06319201995012469,0.02187850690319647,
0.06324189526184539,0.016388927055746544,
0.06329177057356608,0.008544569466548522,
0.06334164588528678,0.028403275159101647,
0.06339152119700749,0.008655589645782499,
0.06344139650872818,0.032066661209731964,
0.06349127182044888,0.01574135346349895,
0.06354114713216957,0.03574492133092938,
0.06359102244389027,-0.009305740633561467,
0.06364089775561098,0.02572204843401009,
0.06369077306733167,0.0006336293629877008,
0.06374064837905237,0.03266197525413366,
0.06379052369077307,0.029678336159735193,
0.06384039900249376,0.006698962119527343,
0.06389027431421446,0.0019590741968654683,
0.06394014962593517,0.0012982895095708016,
0.06399002493765586,0.022322283523308603,
0.06403990024937656,0.027439151770040453,
0.06408977556109725,0.01591379274031297,
0.06413965087281795,0.0403579027730412,
0.06418952618453866,0.02951015628370926,
0.06423940149625935,0.06130261342868641,
0.06428927680798005,5.1585864765864645e-05,
0.06433915211970075,0.029468215638417637,
0.06438902743142144,0.012408044927731272,
0.06443890274314215,-0.012323956308456577,
0.06448877805486285,-0.01821434164644723,
0.06453865336658354,0.025019020427846844,
0.06458852867830424,-0.009597108734418417,
0.06463840399002493,0.0009163209482373601,
0.06468827930174563,-0.00037318036490226365,
0.06473815461346634,-0.003943693812588765,
0.06478802992518704,0.0008487944035731731,
0.06483790523690773,0.012502050584449588,
0.06488778054862843,0.015088689008763645,
0.06493765586034912,-0.019722176831243794,
0.06498753117206983,-0.0036379318150716548,
0.06503740648379053,0.004287627627381171,
0.06508728179551122,0.01908950144142954,
0.06513715710723192,-0.006906808894722127,
0.06518703241895261,0.010411683884829567,
0.06523690773067331,0.006911546735215435,
0.06528678304239402,0.00021841853985329202,
0.06533665835411472,-0.01771586346393659,
0.06538653366583541,-0.028579581641436935,
0.06543640897755611,-0.007601707602926257,
0.0654862842892768,-0.0020454523681889773,
0.06553615960099751,0.00845257612060415,
0.06558603491271821,-0.011762325609427181,
0.0656359102244389,0.03247486816822875,
0.0656857855361596,-0.013081217765751746,
0.0657356608478803,-0.00020822193490522417,
0.06578553615960099,-0.008076850816739345,
0.0658354114713217,-0.016434143322221345,
0.0658852867830424,-0.024845197766457106,
0.06593516209476309,-0.011615241214688444,
0.06598503740648379,0.030136502553023907,
0.06603491271820448,-0.001281009595792997,
0.06608478802992519,-0.001405899820059109,
0.06613466334164589,0.017192503918720382,
0.06618453865336658,-0.024535693117523606,
0.06623441396508728,-0.017532171542501515,
0.06628428927680798,0.007979516388795307,
0.06633416458852869,0.01984860221949432,
0.06638403990024938,-0.018309183229883737,
0.06643391521197008,0.007819075008663696,
0.06648379052369077,0.005960288374017919,
0.06653366583541147,-0.01605630124224765,
0.06658354114713216,-0.001692502375892888,
0.06663341645885287,-0.00802362808928938,
0.06668329177057357,-0.01882522052931064,
0.06673316708229426,-0.019587167183842548,
0.06678304239401496,-0.010881592567731097,
0.06683291770573566,-0.004139273758640008,
0.06688279301745637,0.008426368321780616,
0.06693266832917706,0.017391311170039062,
0.06698254364089776,-0.03764437002582904,
0.06703241895261845,-0.023413487222426966,
0.06708229426433915,-0.01723025174467388,
0.06713216957605984,0.006026659907524746,
0.06718204488778055,-0.009036449465990509,
0.06723192019950125,-0.028491777641986987,
0.06728179551122195,-0.02240046914631759,
0.06733167082294264,-0.018059593845021503,
0.06738154613466334,0.003582444712815442,
0.06743142144638405,-0.007860972472060421,
0.06748129675810474,-0.010071076249324908,
0.06753117206982544,0.005285477433091256,
0.06758104738154613,-0.007618878455426687,
0.06763092269326683,0.01173731466174294,
0.06768079800498752,0.011251350882947465,
0.06773067331670823,-0.00677472596929408,
0.06778054862842893,0.007938750816596101,
0.06783042394014963,-0.027529770366576913,
0.06788029925187032,0.0016584932886473912,
0.06793017456359102,-0.015927360655537296,
0.06798004987531173,-0.00787857181208201,
0.06802992518703242,-0.030259988428165185,
0.06807980049875312,-0.02192756174263276,
0.06812967581047381,0.03569359816135161,
0.06817955112219451,-0.017947590498733006,
0.0682294264339152,-0.03669231430560291,
0.06827930174563591,-0.018627296919880278,
0.06832917705735661,-0.023953298524002846,
0.0683790523690773,-0.0011815745298502413,
0.068428927680798,0.013958003324577296,
0.0684788029925187,-0.008079416962481368,
0.06852867830423941,-0.00903360975987328,
0.0685785536159601,-0.014805044792246987,
0.0686284289276808,0.00667175143506262,
0.0686783042394015,0.00034762055695962586,
0.06872817955112219,-0.019368848335264973,
0.0687780548628429,-0.014684157269107425,
0.0688279301745636,-0.009427077302787943,
0.06887780548628429,-0.024599623560906517,
0.06892768079800499,-0.0102892873325113,
0.06897755610972568,-0.006937429999653316,
0.06902743142144638,-0.013946713189748012,
0.06907730673316709,0.01940363581692955,
0.06912718204488778,-0.04345003110041375,
0.06917705735660848,-0.00786084836550682,
0.06922693266832917,-0.02446735303617982,
0.06927680798004987,-0.003321887901086392,
0.06932668329177058,-0.03117979425623651,
0.06937655860349128,0.0002499312565669154,
0.06942643391521197,-0.029620693819971164,
0.06947630922693267,-0.031537947447398296,
0.06952618453865336,-0.016412250676515812,
0.06957605985037406,-0.02365849064357238,
0.06962593516209477,-0.024678151382349543,
0.06967581047381546,-0.0001697412419959625,
0.06972568578553616,-0.0032561295999367097,
0.06977556109725686,0.0021767558942978257,
0.06982543640897755,-0.01846159719470663,
0.06987531172069826,0.019847516894577297,
0.06992518703241896,-0.01894797172258364,
0.06997506234413965,-0.05213479185108416,
0.07002493765586035,-0.020176623897625905,
0.07007481296758104,-0.01598549148233442,
0.07012468827930174,0.0028069958700199012,
0.07017456359102245,-0.037333810745161185,
0.07022443890274314,-0.04257886621879191,
0.07027431421446384,-0.0041041055170087225,
0.07032418952618454,0.0010793464552546796,
0.07037406483790523,-0.04666013114589723,
0.07042394014962594,-0.037247236208835924,
0.07047381546134664,-0.018719144570479528,
0.07052369077306733,0.005244414213550954,
0.07057356608478803,0.0037856177482778405,
0.07062344139650872,-0.007221126031806801,
0.07067331670822943,-0.03878609606039049,
0.07072319201995013,0.012658369561716273,
0.07077306733167082,-0.042772155430937375,
0.07082294264339152,-0.022204021690689194,
0.07087281795511222,-0.014259737136520796,
0.07092269326683291,-0.005972727522535044,
0.07097256857855362,-0.03673230368023574,
0.07102244389027432,-0.01842878992934876,
0.07107231920199501,-0.02296330385144191,
0.07112219451371571,-0.035463985360414334,
0.0711720698254364,-0.0172543714880122,
0.07122194513715711,-0.026331094039446126,
0.07127182044887781,-0.016643699821714958,
0.0713216957605985,-0.029732704986085143,
0.0713715710723192,-0.01888071785706045,
0.0714214463840399,-0.013377477703502809,
0.07147132169576059,0.002970690456628681,
0.0715211970074813,-0.026758034601715996,
0.071571072319202,-0.030367184651463465,
0.0716209476309227,0.0053610884177209776,
0.07167082294264339,-0.030363255035090856,
0.07172069825436408,0.020298253945016994,
0.0717705735660848,-0.01274465070037678,
0.07182044887780549,-0.0135364919625037,
0.07187032418952619,-0.019309078779979633,
0.07192019950124688,-0.027048835717714027,
0.07197007481296758,-0.0018693058817138373,
0.07201995012468827,-0.005249490431003479,
0.07206982543640898,-0.005814553780427735,
0.07211970074812968,-0.003616683518484584,
0.07216957605985037,-0.01802644155598388,
0.07221945137157107,-0.001917048416931185,
0.07226932668329177,0.009077982956836633,
0.07231920199501247,-0.02835625504807832,
0.07236907730673317,-0.022845975307816097,
0.07241895261845387,-0.0003591502285832538,
0.07246882793017456,-0.0158029754310233,
0.07251870324189526,-0.014488958059068932,
0.07256857855361595,-0.013488642939301592,
0.07261845386533666,-0.004124371462964952,
0.07266832917705736,-0.019954442760089633,
0.07271820448877805,-0.008589579740955644,
0.07276807980049875,-0.005448773855072928,
0.07281795511221945,0.027205175440498264,
0.07286783042394016,0.0067883149120165544,
0.07291770573566085,-0.015012776148506827,
0.07296758104738155,-0.03989606590579076,
0.07301745635910224,-0.009086223586023644,
0.07306733167082294,0.006449288682920984,
0.07311720698254365,-0.062498459789104566,
0.07316708229426434,-0.02634827053411371,
0.07321695760598504,-0.021186125716946537,
0.07326683291770573,0.00659512216127754,
0.07331670822942643,-0.021438560929416768,
0.07336658354114713,-0.0063126487685798045,
0.07341645885286784,0.009650821802038995,
0.07346633416458853,-0.004428511821335877,
0.07351620947630923,-0.03130567825353447,
0.07356608478802992,0.01062901042629661,
0.07361596009975062,-0.024423985530802845,
0.07366583541147133,0.04153504701431182,
0.07371571072319202,-0.007195610621213613,
0.07376558603491272,-0.030660273656426817,
0.07381546134663342,-0.023823455013797356,
0.07386533665835411,-0.007849462023705612,
0.0739152119700748,0.012483701771570828,
0.07396508728179552,0.006029947942899068,
0.07401496259351621,-0.006624582458490098,
0.07406483790523691,-0.007000043049557155,
0.0741147132169576,-0.019772838817675054,
0.0741645885286783,-0.010995864012996213,
0.07421446384039901,-0.013696976139405383,
0.0742643391521197,0.009757391318188965,
0.0743142144638404,0.014804572324068774,
0.0743640897755611,0.001918716136982768,
0.07441396508728179,0.01994853009068223,
0.07446384039900249,-0.011411236136749924,
0.0745137157107232,-0.010605018014059157,
0.07456359102244389,0.009706809917116662,
0.07461346633416459,0.012694451258877975,
0.07466334164588528,0.007650899072338028,
0.07471321695760598,-0.03205030121208461,
0.07476309226932669,-0.0014600313568830627,
0.07481296758104738,2.5341001169163196e-05,
0.07486284289276808,0.0169064242869548,
0.07491271820448878,0.01822933863338406,
0.07496259351620947,0.004588634993286679,
0.07501246882793017,-0.006921927001550771,
0.07506234413965088,0.02148121418386481,
0.07511221945137157,0.016165754096698858,
0.07516209476309227,0.012778872599543595,
0.07521197007481296,0.03342546866919902,
0.07526184538653366,-0.00459150162583677,
0.07531172069825437,0.01289947566485342,
0.07536159600997507,-0.004275495378600495,
0.07541147132169576,0.010471900099050252,
0.07546134663341646,0.005389785047123329,
0.07551122194513715,0.012111701750685166,
0.07556109725685786,-0.003938660244650848,
0.07561097256857856,0.00508902317292022,
0.07566084788029925,-0.002724824271689621,
0.07571072319201995,0.015758304447089134,
0.07576059850374064,0.0044040187619579655,
0.07581047381546134,-0.00955716475856324,
0.07586034912718205,0.003916760793441753,
0.07591022443890275,-0.002088349374784233,
0.07596009975062344,0.009277985666938571,
0.07600997506234414,0.026941075391228267,
0.07605985037406483,0.003284228655796872,
0.07610972568578554,0.0020846616627405896,
0.07615960099750624,0.023858236358127796,
0.07620947630922693,0.019058965481082317,
0.07625935162094763,0.02895319966296231,
0.07630922693266833,0.017612008572199023,
0.07635910224438902,0.02000634547352311,
0.07640897755610973,0.023149804635123523,
0.07645885286783043,0.004299289628317346,
0.07650872817955112,0.024554860770634554,
0.07655860349127182,0.01854914244778191,
0.07660847880299251,0.01375249711130965,
0.07665835411471322,0.013156251646855034,
0.07670822942643392,0.009112820105213054,
0.07675810473815461,-0.0011453346351089945,
0.07680798004987531,0.024190785703533682,
0.076857855361596,0.022047501665674787,
0.0769077306733167,0.015967859815842755,
0.07695760598503741,0.017116505771017317,
0.0770074812967581,0.018632329678405352,
0.0770573566084788,0.032904160717522904,
0.0771072319201995,0.0008689971264516944,
0.0771571072319202,0.015211983832604437,
0.0772069825436409,0.043421627159333676,
0.0772568578553616,0.026443070724841818,
0.0773067331670823,-0.01231374410718947,
0.07735660847880299,0.0252699553312384,
0.07740648379052369,0.03420169680231047,
0.0774563591022444,0.023457057830559007,
0.07750623441396509,0.011875200716175831,
0.07755610972568579,0.01142429280077726,
0.07760598503740648,0.0035133982731911685,
0.07765586034912718,0.031226441105051864,
0.07770573566084787,0.031318436285203866,
0.07775561097256858,0.04826093352082629,
0.07780548628428928,0.0023589464570374016,
0.07785536159600998,0.01046394894336592,
0.07790523690773067,0.02372102683917317,
0.07795511221945137,0.02341643036667895,
0.07800498753117208,0.020102515478959398,
0.07805486284289277,0.03205361942431033,
0.07810473815461347,0.008057926836469222,
0.07815461346633416,0.015166431406775982,
0.07820448877805486,0.026019810862178895,
0.07825436408977555,0.007809233125461371,
0.07830423940149626,0.00530957374153284,
0.07835411471321696,0.034618292384087465,
0.07840399002493766,0.0495059525484003,
0.07845386533665835,0.0347458892573389,
0.07850374064837905,-0.009797455983501614,
0.07855361596009976,0.012323069065617684,
0.07860349127182045,-0.010341907183293989,
0.07865336658354115,0.0031254772851580515,
0.07870324189526184,0.04215212749277701,
0.07875311720698254,0.030286469791300653,
0.07880299251870324,0.03144741625513047,
0.07885286783042394,0.03526327492849662,
0.07890274314214464,0.04385368859169736,
0.07895261845386534,0.056940848384297464,
0.07900249376558603,0.041461181657103746,
0.07905236907730673,0.02708590594461823,
0.07910224438902744,0.028077284911472957,
0.07915211970074813,0.024051267488306816,
0.07920199501246883,0.028219776141009567,
0.07925187032418952,0.03371042088604333,
0.07930174563591022,0.028569012638857895,
0.07935162094763092,0.044002019353056386,
0.07940149625935163,0.03950946243129817,
0.07945137157107232,0.02096305196986619,
0.07950124688279302,0.0208091273629895,
0.07955112219451371,0.024125580146027597,
0.07960099750623441,0.014720226714107512,
0.07965087281795512,0.019559308682750833,
0.07970074812967581,0.050806506421693015,
0.07975062344139651,0.044281201622283405,
0.0798004987531172,0.034065444855275864,
0.0798503740648379,-0.0012673244515115888,
0.07990024937655861,0.039776680460286325,
0.0799501246882793,0.027822479075261766,
0.08,0.055132232008151615,
0.0800498753117207,0.027243703740800693,
0.0800997506234414,0.047819641392118827,
0.08014962593516209,0.012930860876477771,
0.0801995012468828,0.0069568492894603005,
0.0802493765586035,0.03840614302520558,
0.08029925187032419,0.013167125101961266,
0.08034912718204489,0.01834032611061237,
0.08039900249376558,0.042240672705722335,
0.08044887780548629,0.023225406443905493,
0.08049875311720699,0.00907746855719933,
0.08054862842892768,0.03498460303883651,
0.08059850374064838,0.017272709762806693,
0.08064837905236907,0.022885191561378877,
0.08069825436408977,0.04461820427101147,
0.08074812967581048,0.03495357309958174,
0.08079800498753117,0.03900483460730599,
0.08084788029925187,0.035650742679068044,
0.08089775561097257,0.014487018839241524,
0.08094763092269326,0.013757824426139152,
0.08099750623441397,-0.0045198317570796405,
0.08104738154613467,0.05824783206142809,
0.08109725685785536,0.05332081955788051,
0.08114713216957606,0.027164028833596778,
0.08119700748129675,0.04617611632686938,
0.08124688279301745,0.01992715463590317,
0.08129675810473816,0.03911087553968176,
0.08134663341645886,0.026399494372370665,
0.08139650872817955,0.01987794251359286,
0.08144638403990025,0.029628595078293386,
0.08149625935162094,0.014658246587208422,
0.08154613466334165,0.04248010041418508,
0.08159600997506235,0.014456177335689097,
0.08164588528678304,0.027359902410787285,
0.08169576059850374,0.016204496754358654,
0.08174563591022443,0.023855593099905203,
0.08179551122194513,0.0368759269997626,
0.08184538653366584,0.02138658698142188,
0.08189526184538654,0.05217320946175795,
0.08194513715710723,0.053227518375046835,
0.08199501246882793,0.05350637698984281,
0.08204488778054862,0.036746176848329995,
0.08209476309226933,0.03243982435234482,
0.08214463840399003,0.030123672070919698,
0.08219451371571072,0.01758137098741953,
0.08224438902743142,0.018493368962257107,
0.08229426433915212,0.01459128900078041,
0.08234413965087282,0.026129369593527123,
0.08239401496259352,0.02736547050948004,
0.08244389027431422,0.00395438070068313,
0.08249376558603491,0.03201379447797025,
0.08254364089775561,0.020217626172605398,
0.0825935162094763,0.030407821374381378,
0.08264339152119701,0.002465511543339155,
0.08269326683291771,0.008654693321862977,
0.0827431421446384,0.03377018955062909,
0.0827930174563591,0.003059115804618203,
0.0828428927680798,0.024948586379987807,
0.0828927680798005,-0.0026921893331240294,
0.0829426433915212,0.03974507073422239,
0.0829925187032419,0.012935420132918589,
0.08304239401496259,0.0023746653895763588,
0.08309226932668329,0.027391246684712385,
0.08314214463840398,0.01553109482560327,
0.0831920199501247,0.036721702176991514,
0.08324189526184539,0.02232152094571147,
0.08329177057356608,0.0168364743775313,
0.08334164588528678,-0.002533375203150081,
0.08339152119700748,0.03397343499276947,
0.08344139650872819,0.008431511854697364,
0.08349127182044888,2.649859429380841e-05,
0.08354114713216958,0.029107990014861397,
0.08359102244389027,0.001071781650034024,
0.08364089775561097,0.021507958951530418,
0.08369077306733166,0.013676176970663763,
0.08374064837905237,0.009810523784993704,
0.08379052369077307,-0.0038449783919607735,
0.08384039900249377,0.030254727293740215,
0.08389027431421446,0.008169861781256272,
0.08394014962593516,0.043339819952674906,
0.08399002493765587,0.014830803118643326,
0.08403990024937656,0.013032457005354827,
0.08408977556109726,0.02026610983763013,
0.08413965087281795,0.042059392896267644,
0.08418952618453865,0.013749317068404897,
0.08423940149625936,0.03781565027925243,
0.08428927680798005,0.008597679275115618,
0.08433915211970075,0.02571628989672204,
0.08438902743142145,0.021104262707886845,
0.08443890274314214,-0.007015347434826322,
0.08448877805486284,3.088120399330485e-05,
0.08453865336658355,0.01460173202852542,
0.08458852867830424,0.013148390912137677,
0.08463840399002494,-0.0031364652355414732,
0.08468827930174563,0.01358675455255862,
0.08473815461346633,0.009979417647872009,
0.08478802992518704,0.0019501641193845533,
0.08483790523690773,0.005077475314599226,
0.08488778054862843,-0.007590586257005639,
0.08493765586034913,-0.01969491379842785,
0.08498753117206982,0.028755399823237618,
0.08503740648379052,-0.015612918516843264,
0.08508728179551123,-0.0031385022434584423,
0.08513715710723192,-0.0026773760988611263,
0.08518703241895262,0.003339734217378614,
0.08523690773067331,-0.01881983108180129,
0.08528678304239401,2.1454835554907993e-05,
0.08533665835411472,0.015698044477224768,
0.08538653366583542,0.023097895684636438,
0.08543640897755611,-0.011237330435185489,
0.0854862842892768,0.005150336856968464,
0.0855361596009975,0.0013636132741427763,
0.0855860349127182,-0.012153291964808577,
0.08563591022443891,-0.0012778140119475718,
0.0856857855361596,-0.010846496448146547,
0.0857356608478803,-0.008363136800989598,
0.085785536159601,0.010657818633592485,
0.08583541147132169,-0.0057319343792618755,
0.0858852867830424,0.006532106550112148,
0.0859351620947631,0.0304463977420278,
0.08598503740648379,0.0029819098948803188,
0.08603491271820449,0.015782078090413605,
0.08608478802992518,-0.008270467662691567,
0.08613466334164588,0.03243359547548113,
0.08618453865336659,0.013308259931767567,
0.08623441396508728,-0.02189396066405654,
0.08628428927680798,3.9994932547079065e-05,
0.08633416458852868,-0.02250431396694432,
0.08638403990024937,-0.019272064285154898,
0.08643391521197008,0.01891272209501188,
0.08648379052369078,0.015124688231746836,
0.08653366583541147,0.02650046538933201,
0.08658354114713217,0.016379304534469542,
0.08663341645885286,-0.020003409815704497,
0.08668329177057357,-0.013886127726646633,
0.08673316708229427,-0.0039035461452251296,
0.08678304239401496,0.001443023873928371,
0.08683291770573566,0.007636193225668948,
0.08688279301745636,0.030732507360695046,
0.08693266832917705,-0.006544544383108411,
0.08698254364089776,-0.017455228002735863,
0.08703241895261846,-0.0007816234209621414,
0.08708229426433915,-0.032066579968073355,
0.08713216957605985,0.012478803723945837,
0.08718204488778054,0.0003337405030997371,
0.08723192019950125,0.000741958022565335,
0.08728179551122195,0.005271945141870219,
0.08733167082294264,-0.008693292974503865,
0.08738154613466334,-0.012882341924678074,
0.08743142144638404,-0.007145281481661863,
0.08748129675810473,0.00011238597785900774,
0.08753117206982544,-0.022835707889965633,
0.08758104738154614,-0.005880444893623872,
0.08763092269326683,-0.023273580125731906,
0.08768079800498753,0.001887345849623562,
0.08773067331670822,0.016059708649781852,
0.08778054862842893,-0.02484624112187427,
0.08783042394014963,0.0006415250828752678,
0.08788029925187033,0.022289816898081485,
0.08793017456359102,-0.016724936667317183,
0.08798004987531172,-0.004475162771319024,
0.08802992518703241,-0.015264280576620689,
0.08807980049875312,-0.023594900454623244,
0.08812967581047382,-0.01487245059621831,
0.08817955112219451,0.0037321345701597283,
0.08822942643391521,0.005930780454618629,
0.0882793017456359,-0.0005994622628217247,
0.08832917705735661,-0.02163767877957204,
0.08837905236907731,-0.015978778131969663,
0.088428927680798,-0.016613186459183936,
0.0884788029925187,-0.006080148274476281,
0.0885286783042394,-0.012811043506432212,
0.0885785536159601,-0.023991977037516335,
0.0886284289276808,-0.029801614106741064,
0.0886783042394015,-0.022283945276189716,
0.0887281795511222,-0.0021760189082872267,
0.08877805486284289,0.020149942057948667,
0.08882793017456359,0.0009308218827240779,
0.0888778054862843,-0.021482084441353945,
0.08892768079800499,-0.003621359293516457,
0.08897755610972569,-0.01733789384098059,
0.08902743142144638,0.0008866540710933402,
0.08907730673316708,0.004613642134434503,
0.08912718204488779,-0.025634193306442822,
0.08917705735660848,-0.0058791876531320425,
0.08922693266832918,-0.03512743900171823,
0.08927680798004987,-0.016128323259762,
0.08932668329177057,-0.006563698443378701,
0.08937655860349127,-0.022652215303230482,
0.08942643391521198,-0.03457361274587445,
0.08947630922693267,-0.015836283856893462,
0.08952618453865337,-0.03178776073799024,
0.08957605985037406,-0.01560881125519948,
0.08962593516209476,-0.00370579626339706,
0.08967581047381547,-0.03389567351957781,
0.08972568578553616,-0.002166704262924264,
0.08977556109725686,-0.0025815691796327225,
0.08982543640897755,0.0009604101679009536,
0.08987531172069825,-0.005965288983678514,
0.08992518703241895,-0.01879927132389794,
0.08997506234413966,-0.007839028117843247,
0.09002493765586035,-0.034406316281245596,
0.09007481296758105,0.01630210417270063,
0.09012468827930174,-0.003524923452601872,
0.09017456359102244,-0.01124059701226823,
0.09022443890274315,0.007396969960807418,
0.09027431421446384,-0.019800253032272442,
0.09032418952618454,-0.02413014966844788,
0.09037406483790524,-0.012449747431856834,
0.09042394014962593,-0.003537474024374203,
0.09047381546134663,-0.005495517065787379,
0.09052369077306734,-0.035750217815652185,
0.09057356608478803,-0.0007774367233190291,
0.09062344139650873,-0.026387416937470987,
0.09067331670822942,0.004648817755074745,
0.09072319201995012,-0.0064992146034394006,
0.09077306733167083,-0.0360926014082165,
0.09082294264339152,0.014488104592941937,
0.09087281795511222,-0.026561523767734116,
0.09092269326683292,-0.01788032476271393,
0.09097256857855361,-0.0035302158078851977,
0.09102244389027432,-0.04252386929128941,
0.09107231920199502,-0.008045869825020428,
0.09112219451371571,-0.011703351785731432,
0.09117206982543641,-0.004690379964309373,
0.0912219451371571,-0.020801662296501502,
0.0912718204488778,-0.03649502182921355,
0.09132169576059851,-0.03099110452038651,
0.0913715710723192,-0.0007845249534669807,
0.0914214463840399,-0.013135559040377496,
0.0914713216957606,-0.047506803423351646,
0.09152119700748129,-0.030064394902754626,
0.091571072319202,0.003843496908619147,
0.0916209476309227,-0.012983734478005885,
0.09167082294264339,0.003649813229060779,
0.09172069825436409,0.00110400756867687,
0.09177057356608478,0.003276632563125487,
0.09182044887780548,-0.023597690679168636,
0.09187032418952619,-0.019995970399647463,
0.09192019950124689,0.0043832272210734356,
0.09197007481296758,0.01518022511033277,
0.09201995012468828,-0.04871776005601332,
0.09206982543640897,0.016074538898954716,
0.09211970074812968,-0.0016642003435964024,
0.09216957605985038,-0.011372472033775971,
0.09221945137157107,-0.024840364446815408,
0.09226932668329177,-0.01363677949839991,
0.09231920199501246,0.0065440361774311805,
0.09236907730673316,0.0028127675831854,
0.09241895261845387,0.006735872453217596,
0.09246882793017457,-0.0034574330509554996,
0.09251870324189526,-0.0031596356221804452,
0.09256857855361596,0.004740218565915043,
0.09261845386533665,-0.026351547426511815,
0.09266832917705736,-0.035935227475709874,
0.09271820448877806,-0.0005196925974378791,
0.09276807980049875,-0.013550984125896715,
0.09281795511221945,-0.012118682869302,
0.09286783042394015,-0.0086895348378788,
0.09291770573566084,0.014080600726725907,
0.09296758104738155,-0.02488053726178386,
0.09301745635910225,0.009409628066534441,
0.09306733167082294,0.0006430034696483415,
0.09311720698254364,0.015547764921517849,
0.09316708229426433,0.030086680033597355,
0.09321695760598504,0.005511091960371516,
0.09326683291770574,-0.010024869316682424,
0.09331670822942643,0.01751957705205333,
0.09336658354114713,0.006016903190144289,
0.09341645885286783,0.015477435980770199,
0.09346633416458854,0.0021725214644707294,
0.09351620947630923,0.0018970888357206237,
0.09356608478802993,-0.02421155932309784,
0.09361596009975062,0.03532140688608374,
0.09366583541147132,-0.00035459873906320194,
0.09371571072319201,0.003723378947070367,
0.09376558603491272,0.006739762834786711,
0.09381546134663342,0.005856081720889911,
0.09386533665835411,-0.012464058680576401,
0.09391521197007481,-0.008864440513896624,
0.0939650872817955,0.005642593057757391,
0.09401496259351622,0.0026902619558269187,
0.09406483790523691,-0.0003673203552583886,
0.09411471321695761,0.001356631529530664,
0.0941645885286783,0.011713529739822627,
0.094214463840399,-0.011769588026260122,
0.0942643391521197,0.008494081564684227,
0.0943142144638404,-0.004356785165928298,
0.0943640897755611,0.0025165904042176337,
0.0944139650872818,-0.020174749956299014,
0.09446384039900249,-0.025796365225678217,
0.09451371571072319,0.008086714638479136,
0.0945635910224439,0.011479957866616708,
0.09461346633416459,-0.014071782858507527,
0.09466334164588529,-0.0038253632144888503,
0.09471321695760598,-0.0011734958778697874,
0.09476309226932668,0.014407343832299958,
0.09481296758104737,-0.011146103253889802,
0.09486284289276808,0.01265483416948833,
0.09491271820448878,0.009926489518221986,
0.09496259351620948,-0.003290433299012241,
0.09501246882793017,0.004918843995056222,
0.09506234413965087,0.002361382920447184,
0.09511221945137158,0.0029489907158694734,
0.09516209476309227,-0.011362128354880593,
0.09521197007481297,0.015525880305804016,
0.09526184538653366,0.0011103336836191585,
0.09531172069825436,0.0033663110325669555,
0.09536159600997507,-0.026931044584855342,
0.09541147132169576,0.010057291491126285,
0.09546134663341646,0.02642996622221893,
0.09551122194513716,0.027968620238704937,
0.09556109725685785,0.027078726652754216,
0.09561097256857855,-0.022324660042577257,
0.09566084788029926,-0.007910999064711906,
0.09571072319201995,0.01821059895901393,
0.09576059850374065,0.016795133418679387,
0.09581047381546134,0.040738306767759726,
0.09586034912718204,0.034758528877496336,
0.09591022443890275,0.02276042352412857,
0.09596009975062345,0.00300509013959736,
0.09600997506234414,0.011359807785357216,
0.09605985037406484,0.02567659025894026,
0.09610972568578553,0.02107318542626279,
0.09615960099750623,0.046414368572509135,
0.09620947630922694,0.019909497031583626,
0.09625935162094763,0.0012763891653575464,
0.09630922693266833,-0.010919958059960263,
0.09635910224438902,0.022536491187015523,
0.09640897755610972,0.014070996365820746,
0.09645885286783043,0.028004924727935424,
0.09650872817955113,0.00671036495506116,
0.09655860349127182,-0.006456156171964343,
0.09660847880299252,0.01334069457548862,
0.09665835411471321,-0.009306534281762611,
0.09670822942643391,0.01588015479024324,
0.09675810473815462,0.024589589432266728,
0.09680798004987531,0.028408984063411094,
0.09685785536159601,0.009598885975730932,
0.0969077306733167,-0.0034574796778874504,
0.0969576059850374,0.037256690243641935,
0.09700748129675811,0.028436709370686975,
0.0970573566084788,0.003115620554052701,
0.0971072319201995,0.008086652369391103,
0.0971571072319202,0.006376639654155015,
0.0972069825436409,0.0034491656023975872,
0.09725685785536159,0.03562217718396858,
0.0973067331670823,0.0442384587468105,
0.097356608478803,0.01874148614469262,
0.09740648379052369,0.04264207633371557,
0.09745635910224439,-0.00030844899929107286,
0.09750623441396508,0.02697278754665952,
0.09755610972568579,0.021110176379065367,
0.09760598503740649,-0.0012069880944286376,
0.09765586034912718,0.01979290189795423,
0.09770573566084788,0.04485489980096549,
0.09775561097256857,0.04148814679427024,
0.09780548628428928,0.025705299511794254,
0.09785536159600998,0.04136346076690757,
0.09790523690773068,-0.0001015449287704584,
0.09795511221945137,0.040268237871733906,
0.09800498753117207,0.031214435804731322,
0.09805486284289276,0.05086279451368411,
0.09810473815461347,0.036790849281696625,
0.09815461346633417,0.008746037404178342,
0.09820448877805486,0.02925788946391812,
0.09825436408977556,0.03509579179895478,
0.09830423940149625,0.029706921006902073,
0.09835411471321696,-0.00705395740960096,
0.09840399002493766,0.025953699593121497,
0.09845386533665836,0.000263970907830053,
0.09850374064837905,0.0269776623303297,
0.09855361596009975,0.019464666460582113,
0.09860349127182044,0.05096788532230459,
0.09865336658354115,0.03406007050731291,
0.09870324189526185,0.009953898337683521,
0.09875311720698254,0.003921517848196172,
0.09880299251870324,0.04333193723167876,
0.09885286783042393,0.01926241514563462,
0.09890274314214464,0.06477658724739702,
0.09895261845386534,0.027093745557195938,
0.09900249376558604,0.03767287958739407,
0.09905236907730673,0.030096119955579433,
0.09910224438902743,0.05017435868408985,
0.09915211970074812,0.028792389603855377,
0.09920199501246883,0.005778558575638443,
0.09925187032418953,0.02859019955023573,
0.09930174563591022,0.011228936418674848,
0.09935162094763092,0.018456070175218803,
0.09940149625935162,0.000558335686479141,
0.09945137157107233,0.034621121630695646,
0.09950124688279302,0.012973530513415517,
0.09955112219451372,0.01766313082470201,
0.09960099750623441,0.019416535371095854,
0.09965087281795511,0.01833144451579741,
0.0997007481296758,0.031821467739525905,
0.09975062344139651,0.03719257221473613,
0.09980049875311721,0.01858581189194778,
0.0998503740648379,0.03325325924586318,
0.0999002493765586,0.02979696760863764,
0.0999501246882793,0.025214105559672486,
0.1,0.022768982228856628,
0.1000498753117207,0.0491879581758915,
0.1000997506234414,0.036321240302159885,
0.10014962593516209,0.024949596633776123,
0.10019950124688279,-0.007451463690053395,
0.1002493765586035,0.01968992555889776,
0.1002992518703242,0.006872277294709874,
0.10034912718204489,0.016891647127470454,
0.10039900249376559,0.02742022003757509,
0.10044887780548628,0.05070554790932072,
0.10049875311720698,-0.004444264833064222,
0.10054862842892769,0.05035620376163501,
0.10059850374064838,0.03346126485736521,
0.10064837905236908,0.02110808895184629,
0.10069825436408977,0.017193944939868568,
0.10074812967581047,0.021820771500431716,
0.10079800498753118,-0.007368513914452611,
0.10084788029925187,0.030735517849994322,
0.10089775561097257,0.015874009716292346,
0.10094763092269327,0.01908997938221578,
0.10099750623441396,0.01393213142026182,
0.10104738154613466,0.0038016941613524605,
0.10109725685785537,0.02125022746619251,
0.10114713216957606,0.060409791684295944,
0.10119700748129676,0.031194917141325145,
0.10124688279301745,0.029607080374361276,
0.10129675810473815,0.039834348105920576,
0.10134663341645886,0.026714661704415096,
0.10139650872817955,0.01605446660790797,
0.10144638403990025,0.028775460231089615,
0.10149625935162095,0.002661060256738911,
0.10154613466334164,0.012941030077655532,
0.10159600997506234,0.027410917395682816,
0.10164588528678305,-0.0030019093094523393,
0.10169576059850374,0.051112837952046165,
0.10174563591022444,0.047758712523628524,
0.10179551122194513,0.006928313926579194,
0.10184538653366583,0.027482605749042956,
0.10189526184538654,0.00873236766111259,
0.10194513715710724,0.039500380086051605,
0.10199501246882793,0.018431334997253877,
0.10204488778054863,0.03628272895561526,
0.10209476309226932,0.025695541616226305,
0.10214463840399003,0.01574377522951069,
0.10219451371571073,0.06921557883335806,
0.10224438902743142,0.016778028237677985,
0.10229426433915212,0.021480841495268296,
0.10234413965087281,0.023968133405140705,
0.10239401496259351,0.03151152657585741,
0.10244389027431422,0.02346302092802497,
0.10249376558603492,0.031921179290886795,
0.10254364089775561,-0.00013077480464744953,
0.10259351620947631,0.012287537817924304,
0.102643391521197,0.05531791295144136,
0.10269326683291771,0.011204182199883627,
0.10274314214463841,0.034262062521231554,
0.1027930174563591,0.024216004350794684,
0.1028428927680798,0.026260498754369924,
0.1028927680798005,0.031201766334949442,
0.10294264339152119,0.009384016140554076,
0.1029925187032419,0.021493832180156092,
0.1030423940149626,0.016971541417610096,
0.10309226932668329,0.025722694736206995,
0.10314214463840399,0.026527875038941433,
0.10319201995012468,0.0292679340393434,
0.10324189526184539,0.03874223274652093,
0.10329177057356609,0.02819371354559863,
0.10334164588528678,0.020143898604491332,
0.10339152119700748,0.008104169854875876,
0.10344139650872818,0.0331965024171854,
0.10349127182044887,0.003115932306435528,
0.10354114713216958,0.03699764199625134,
0.10359102244389028,0.02036178574105005,
0.10364089775561097,0.03755171840474666,
0.10369077306733167,0.025886767542846762,
0.10374064837905236,-0.016956393569653037,
0.10379052369077307,0.013112813234600037,
0.10384039900249377,0.03513033004730584,
0.10389027431421446,0.04925367923257051,
0.10394014962593516,-0.002239055592312817,
0.10399002493765586,0.009617648374130802,
0.10403990024937655,0.06614940040775459,
0.10408977556109726,0.03947166221686544,
0.10413965087281796,0.022959821928647893,
0.10418952618453865,0.007779246666643191,
0.10423940149625935,0.017496544578546835,
0.10428927680798004,0.03316948297063755,
0.10433915211970075,0.003808182753181049,
0.10438902743142145,0.03590750173804584,
0.10443890274314215,-0.020746452002435266,
0.10448877805486284,0.00556779928936036,
0.10453865336658354,0.017032802731739804,
0.10458852867830425,0.017301288094630884,
0.10463840399002494,0.02485521681586495,
0.10468827930174564,-3.699034861198887e-05,
0.10473815461346633,0.018640687068475527,
0.10478802992518703,0.015003802459990192,
0.10483790523690772,0.01832278281341089,
0.10488778054862843,0.056588434359616066,
0.10493765586034913,0.027777944194809702,
0.10498753117206983,0.004714857700771577,
0.10503740648379052,0.01095910263033322,
0.10508728179551122,-0.0014672798522719372,
0.10513715710723193,0.011737242772230868,
0.10518703241895262,-0.0038948810201550436,
0.10523690773067332,-0.008459895579711866,
0.10528678304239401,-0.011856018330271566,
0.10533665835411471,0.0226240687216488,
0.1053865336658354,0.029150172536486198,
0.10543640897755611,-0.016291275885100095,
0.10548628428927681,0.0166083406195119,
0.1055361596009975,0.018035391849570197,
0.1055860349127182,0.008657678130881268,
0.1056359102244389,0.01472485767634303,
0.10568578553615961,0.022858878592404895,
0.1057356608478803,0.009451150665008276,
0.105785536159601,-0.02406404124816091,
0.1058354114713217,0.009909656100267374,
0.10588528678304239,0.002453349166357499,
0.10593516209476309,0.0042290280580722225,
0.1059850374064838,0.03469374443764154,
0.10603491271820449,-0.003391775453505482,
0.10608478802992519,0.006169635721732834,
0.10613466334164588,0.011971135432782023,
0.10618453865336658,-0.0007585931100003345,
0.10623441396508729,-0.018505757735323404,
0.10628428927680798,0.010027772423095747,
0.10633416458852868,0.004758543521050735,
0.10638403990024937,-3.467787321052374e-06,
0.10643391521197007,0.009195407497232628,
0.10648379052369077,0.0010176515677407525,
0.10653366583541148,0.009983277394592205,
0.10658354114713217,0.03834193864316374,
0.10663341645885287,0.01002331231840674,
0.10668329177057356,0.008657370122366656,
0.10673316708229426,0.0025940791099975705,
0.10678304239401497,-0.005048437262573031,
0.10683291770573566,-0.016423608404320215,
0.10688279301745636,-0.009535165166690758,
0.10693266832917706,-0.0027369024511176743,
0.10698254364089775,-0.010607235784099585,
0.10703241895261846,-0.022936816610069657,
0.10708229426433916,-0.03738314501463118,
0.10713216957605985,0.018694596827976778,
0.10718204488778055,0.0016525301667089124,
0.10723192019950124,0.009510500862620144,
0.10728179551122194,0.0038100229647668165,
0.10733167082294265,0.003216887131570787,
0.10738154613466334,0.021069973977952794,
0.10743142144638404,0.010134612973960393,
0.10748129675810474,-0.016229459937304357,
0.10753117206982543,0.013171052765907658,
0.10758104738154614,0.011950139255762424,
0.10763092269326684,-0.017445984969842218,
0.10768079800498753,0.006552594657269411,
0.10773067331670823,-0.0008528949323061488,
0.10778054862842892,-0.016183724711015562,
0.10783042394014962,-0.008297508027322733,
0.10788029925187033,0.00834894063646096,
0.10793017456359102,-0.0013263265848843606,
0.10798004987531172,-0.005919805884505233,
0.10802992518703242,0.015944737862348585,
0.10807980049875311,-0.00492322580944831,
0.10812967581047382,-0.025271702333635696,
0.10817955112219452,-0.004575077142615825,
0.10822942643391521,-0.006343777434620447,
0.10827930174563591,-0.019059472433022022,
0.1083291770573566,-0.020520006150370536,
0.1083790523690773,-0.00591923814148785,
0.10842892768079801,-0.007325042042750208,
0.1084788029925187,0.0015878888222518005,
0.1085286783042394,0.0067083874585817955,
0.1085785536159601,0.0016892173899209165,
0.10862842892768079,0.0002598317548386641,
0.1086783042394015,-0.03458610171182169,
0.1087281795511222,-0.005232384960727506,
0.1087780548628429,-0.0218232699073933,
0.10882793017456359,-0.0024348268483303705,
0.10887780548628428,-0.004961679969476245,
0.108927680798005,-0.0043095540868924535,
0.10897755610972569,-0.03648576150619973,
0.10902743142144639,-0.023864422702696703,
0.10907730673316708,-0.007617801798971042,
0.10912718204488778,-0.027095202414278187,
0.10917705735660847,-0.0008112319082702324,
0.10922693266832918,0.025336173718492862,
0.10927680798004988,0.005151721145126091,
0.10932668329177057,-0.006943995101749886,
0.10937655860349127,-0.019724111624057995,
0.10942643391521197,-0.009850165845499387,
0.10947630922693267,-0.025709145894294457,
0.10952618453865337,-0.004591121133832178,
0.10957605985037407,-0.00025875589440018873,
0.10962593516209476,-0.015736267523938658,
0.10967581047381546,-0.010475124216738718,
0.10972568578553615,-0.013734246674547767,
0.10977556109725686,-0.01169471558681916,
0.10982543640897756,-0.021228204926092054,
0.10987531172069825,-0.0204488696188456,
0.10992518703241895,-0.009184856698158078,
0.10997506234413965,-0.009457001470480748,
0.11002493765586036,0.006529365549141781,
0.11007481296758105,-0.007283634134574229,
0.11012468827930175,0.001049934520488285,
0.11017456359102244,-0.014274497075641598,
0.11022443890274314,-0.014260642770812498,
0.11027431421446383,-0.0032706392313047606,
0.11032418952618454,-0.009273510076423998,
0.11037406483790524,-0.02653090315377147,
0.11042394014962593,-0.022601429008072216,
0.11047381546134663,-0.011772924160320327,
0.11052369077306733,0.0024031035160205754,
0.11057356608478804,-0.03244077793074296,
0.11062344139650873,-0.0035196422337997225,
0.11067331670822943,0.005289442881539713,
0.11072319201995012,-0.003473892160583447,
0.11077306733167082,-0.03024021908436228,
0.11082294264339151,0.014716371206724725,
0.11087281795511222,-0.01087810100478279,
0.11092269326683292,-0.011654632492759753,
0.11097256857855362,-0.012777218868871535,
0.11102244389027431,-0.01760956909531674,
0.111072319201995,-0.03229615857821207,
0.11112219451371572,0.0065737852705736125,
0.11117206982543641,-0.02959828676345584,
0.11122194513715711,-0.04177961514906429,
0.1112718204488778,-0.017320514679286286,
0.1113216957605985,-0.018085733528454093,
0.11137157107231921,0.008950604978451475,
0.1114214463840399,-0.059060885420036194,
0.1114713216957606,-0.023636363560137263,
0.1115211970074813,-0.018312517091115303,
0.11157107231920199,-0.008080570531325711,
0.11162094763092269,-0.00592079056665064,
0.1116708229426434,-0.02059855460732695,
0.11172069825436409,0.0037472829062642696,
0.11177057356608479,-0.034148567286593975,
0.11182044887780548,-0.007229454234646422,
0.11187032418952618,-0.014638500894357233,
0.11192019950124689,-0.022697496832314083,
0.11197007481296758,-0.018548390414355857,
0.11201995012468828,0.0170344504200044,
0.11206982543640898,0.004195017471800568,
0.11211970074812967,-0.011176281188430623,
0.11216957605985037,0.002091733181403743,
0.11221945137157108,-0.0030115842446695124,
0.11226932668329177,-0.015324370979443508,
0.11231920199501247,0.017603466231300144,
0.11236907730673316,-0.009105672413443705,
0.11241895261845386,0.0057021607653442285,
0.11246882793017457,0.0010224684877929296,
0.11251870324189527,0.008301160775792673,
0.11256857855361596,-0.02981701902566469,
0.11261845386533666,-0.0064979846424569245,
0.11266832917705735,-0.011706391642756995,
0.11271820448877805,0.0035893483930250925,
0.11276807980049876,-0.01903885047512316,
0.11281795511221945,-0.007172424066814462,
0.11286783042394015,-0.00735317513013211,
0.11291770573566084,0.005766971565471058,
0.11296758104738154,-0.025762088092589144,
0.11301745635910225,-0.013834547327245783,
0.11306733167082295,0.01484572498866267,
0.11311720698254364,0.0008975830046969325,
0.11316708229426434,-0.024935296015402342,
0.11321695760598503,-0.0037433071235812103,
0.11326683291770574,0.001477663022875871,
0.11331670822942644,-0.00016651441856013272,
0.11336658354114713,-0.003630428833971533,
0.11341645885286783,0.002681996538226715,
0.11346633416458853,-0.002127271727883564,
0.11351620947630922,9.078415778604769e-05,
0.11356608478802993,0.026994170457761556,
0.11361596009975063,-0.0030137349997430294,
0.11366583541147132,0.02052397074634648,
0.11371571072319202,-0.008465078910331443,
0.11376558603491271,-0.012902332013359894,
0.11381546134663342,0.009466191270739657,
0.11386533665835412,0.014671910970238072,
0.11391521197007481,0.01388379727794186,
0.11396508728179551,0.01637611494938864,
0.1140149625935162,0.019610730387924637,
0.1140648379052369,0.016558757274786905,
0.11411471321695761,-0.013128325474543548,
0.1141645885286783,0.011114498884614772,
0.114214463840399,0.011017918138850134,
0.1142643391521197,0.023033560224756236,
0.1143142144638404,0.004570789643351805,
0.1143640897755611,0.04945036349818209,
0.1144139650872818,0.0027491720053565197,
0.1144638403990025,0.014578090958424654,
0.11451371571072319,-0.00730791390259133,
0.11456359102244389,-0.003276558082817232,
0.11461346633416458,8.59728124267111e-05,
0.11466334164588529,0.019169319097421176,
0.11471321695760599,0.020234522746841115,
0.11476309226932668,0.01208305349858826,
0.11481296758104738,-0.011409359773488165,
0.11486284289276807,-0.003580758409550173,
0.11491271820448878,0.037567686292027974,
0.11496259351620948,0.02161529485758265,
0.11501246882793018,0.025405773023401787,
0.11506234413965087,0.028116078385244297,
0.11511221945137157,-0.0019874002667067325,
0.11516209476309226,0.042208606615537755,
0.11521197007481297,0.026327939425961677,
0.11526184538653367,0.008668650753548333,
0.11531172069825436,0.0028861057911768228,
0.11536159600997506,0.02794898051658941,
0.11541147132169575,-0.00024281221586485574,
0.11546134663341646,0.006577259649822692,
0.11551122194513716,0.019532861585710427,
0.11556109725685786,0.009860976343010981,
0.11561097256857855,0.02937024421166884,
0.11566084788029925,0.017723914262168326,
0.11571072319201996,0.009046197455195588,
0.11576059850374065,0.023461448107681533,
0.11581047381546135,0.006985798608430407,
0.11586034912718204,0.02620633321406775,
0.11591022443890274,-0.0013664466482661078,
0.11596009975062344,-0.018621788560985553,
0.11600997506234415,0.011500791711570903,
0.11605985037406484,0.032049383138830115,
0.11610972568578554,0.010104858704238474,
0.11615960099750623,-0.0032682751927157264,
0.11620947630922693,0.001350912546142339,
0.11625935162094764,-0.006395027126793134,
0.11630922693266833,0.02157016701052524,
0.11635910224438903,0.03268080287384816,
0.11640897755610972,0.01745874424686608,
0.11645885286783042,0.04308121146156162,
0.11650872817955112,0.00509189029002392,
0.11655860349127183,0.009293400426252093,
0.11660847880299252,0.021583261893498615,
0.11665835411471322,0.021401840472554307,
0.11670822942643391,0.03718642271046018,
0.11675810473815461,0.010230991892899305,
0.11680798004987532,0.03130799630875672,
0.11685785536159601,0.034830831464235865,
0.11690773067331671,0.026596701000414634,
0.1169576059850374,0.022859222719596693,
0.1170074812967581,0.026811447305096523,
0.1170573566084788,0.008935814579773351,
0.1171072319201995,0.03141646331917894,
0.1171571072319202,0.04704009263614131,
0.1172069825436409,0.035677051894999715,
0.1172568578553616,0.03465682522029138,
0.11730673316708229,-0.004860729884710122,
0.117356608478803,0.0327458241892941,
0.1174064837905237,0.03067260577958629,
0.11745635910224439,0.03289320722539297,
0.11750623441396509,0.016020575161251334,
0.11755610972568578,0.008838749195926594,
0.11760598503740648,0.02666374746640854,
0.11765586034912719,0.0585373996410711,
0.11770573566084788,-0.010786100018614943,
0.11775561097256858,0.0485718978270412,
0.11780548628428927,0.04583258876616199,
0.11785536159600997,0.021918880342425954,
0.11790523690773068,0.01743318496520514,
0.11795511221945137,0.028857203915516567,
0.11800498753117207,0.04694034196523896,
0.11805486284289277,0.0032450395347370722,
0.11810473815461346,0.03451301201067742,
0.11815461346633417,0.02175188679588441,
0.11820448877805487,0.0014700574938781158,
0.11825436408977556,0.011380983794734786,
0.11830423940149626,0.032196835776046095,
0.11835411471321695,0.03747453728846732,
0.11840399002493765,0.03125583991950059,
0.11845386533665836,0.010100089529075035,
0.11850374064837906,0.007622745998281444,
0.11855361596009975,0.033053098355486345,
0.11860349127182045,0.023750645775525398,
0.11865336658354114,0.008540600518132945,
0.11870324189526185,0.023962049628426352,
0.11875311720698255,0.01917256981401525,
0.11880299251870324,0.023929874836913934,
0.11885286783042394,0.023412981082911608,
0.11890274314214463,0.05645209660345982,
0.11895261845386533,0.03567814665144825,
0.11900249376558604,0.0274076301326671,
0.11905236907730674,0.006935342682661421,
0.11910224438902743,0.020915636739783996,
0.11915211970074813,0.017222470931080595,
0.11920199501246882,0.026512308006472387,
0.11925187032418953,0.02602530421411529,
0.11930174563591023,0.049766302554464084,
0.11935162094763092,0.047788051191837176,
0.11940149625935162,0.031867843131300186,
0.11945137157107232,0.04406514987608256,
0.11950124688279301,0.008982868919201956,
0.11955112219451372,0.03408781352709898,
0.11960099750623442,0.04422443126923289,
0.11965087281795511,0.019328712190160566,
0.11970074812967581,0.04910963431200924,
0.1197506234413965,0.00854761305323801,
0.11980049875311721,0.015599219153875094,
0.11985037406483791,0.031223349772738832,
0.1199002493765586,0.03343237287476982,
0.1199501246882793,0.05211965180940439,
0.12,-0.0018293745957272955,
0.1200498753117207,0.03818445176421945,
0.1200997506234414,0.045962316724163954,
0.1201496259351621,0.021741400551888838,
0.12019950124688279,0.014662891357581581,
0.12024937655860349,0.022852357768022996,
0.12029925187032418,0.030415787774986172,
0.1203491271820449,0.0323666319692122,
0.12039900249376559,0.028172539174333246,
0.12044887780548628,0.00945342818291699,
0.12049875311720698,0.047573623271826196,
0.12054862842892768,0.013440442797376167,
0.12059850374064839,0.01851956995615385,
0.12064837905236908,0.05089448789911777,
0.12069825436408978,0.012108575482718098,
0.12074812967581047,0.007343244286189127,
0.12079800498753117,0.01833823217701467,
0.12084788029925186,0.02307259258350329,
0.12089775561097257,0.036841397275768274,
0.12094763092269327,0.046087140765980764,
0.12099750623441397,0.043667900310806536,
0.12104738154613466,0.03951474663086007,
0.12109725685785536,0.01450632095357209,
0.12114713216957607,0.021055315208217983,
0.12119700748129676,0.0439452581192182,
0.12124688279301746,0.045054595822394,
0.12129675810473815,0.03994696582249897,
0.12134663341645885,0.005816942772752708,
0.12139650872817954,0.021961198313432552,
0.12144638403990025,0.05978608991380896,
0.12149625935162095,0.03699179241534699,
0.12154613466334165,0.03685682024604158,
0.12159600997506234,0.030947346840829126,
0.12164588528678304,0.03582213995238256,
0.12169576059850375,0.02861653301661658,
0.12174563591022444,0.03173800989069007,
0.12179551122194514,0.030968191483137796,
0.12184538653366583,0.029063000686416797,
0.12189526184538653,0.03388936772311807,
0.12194513715710723,0.020080067790212333,
0.12199501246882793,0.02278619544767581,
0.12204488778054863,0.034379508481550955,
0.12209476309226933,0.03219368234484257,
0.12214463840399002,0.02588784467106044,
0.12219451371571072,0.045155701347877816,
0.12224438902743143,0.035927038261372515,
0.12229426433915212,0.022349355909289395,
0.12234413965087282,0.04091939263574594,
0.12239401496259351,0.023753534685051633,
0.12244389027431421,-0.0048342482815359085,
0.12249376558603492,0.03346892633153526,
0.12254364089775562,0.026977019512905768,
0.12259351620947631,0.04594272622032608,
0.122643391521197,0.03709243726382642,
0.1226932668329177,0.0235947160085863,
0.1227431421446384,0.030791558650039404,
0.12279301745635911,0.015652844914837316,
0.1228428927680798,0.001270359682340929,
0.1228927680798005,0.009008557836025435,
0.1229426433915212,0.0296960231415383,
0.12299251870324189,0.029751990154863836,
0.1230423940149626,-0.012497344050197999,
0.1230922693266833,0.02142310821836137,
0.12314214463840399,0.007268119871089981,
0.12319201995012469,0.03797005604934017,
0.12324189526184538,0.02930960593733376,
0.12329177057356608,0.015667345299708674,
0.12334164588528679,0.011160308538862962,
0.12339152119700748,0.01640184134387388,
0.12344139650872818,0.015112221562727225,
0.12349127182044888,0.0305783944646352,
0.12354114713216957,0.012177058826989481,
0.12359102244389028,0.030475272501139378,
0.12364089775561098,-0.0008921056647263996,
0.12369077306733167,0.020079311984833443,
0.12374064837905237,0.028453030203295433,
0.12379052369077306,0.010699743953889092,
0.12384039900249376,0.003971369206291495,
0.12389027431421447,-0.0085566365404217,
0.12394014962593516,0.009181052824790885,
0.12399002493765586,0.032064428197365186,
0.12403990024937656,0.03272597174091499,
0.12408977556109725,0.009802023103535088,
0.12413965087281796,0.035076577536080525,
0.12418952618453866,0.019548147445431943,
0.12423940149625935,0.013031595201646571,
0.12428927680798005,-0.010434294161784992,
0.12433915211970074,0.02925833595634718,
0.12438902743142144,0.003377135773639562,
0.12443890274314215,0.01763319752651202,
0.12448877805486284,0.0033874635248859683,
0.12453865336658354,-0.01850204070280029,
0.12458852867830424,0.004460139922086029,
0.12463840399002493,0.004180543078660831,
0.12468827930174564,0.020388283619117202,
0.12473815461346634,0.016333597010785204,
0.12478802992518703,0.02083970597851072,
0.12483790523690773,0.02663273150582162,
0.12488778054862842,0.022425250634183762,
0.12493765586034913,0.0006754537002472191,
0.12498753117206983,0.01124579992279091,
0.12503740648379053,0.015758528700061235,
0.12508728179551123,0.004416499483132622,
0.12513715710723192,-0.007609606102553311,
0.12518703241895263,0.003448252839176019,
0.1252369077306733,-0.0013537710188380424,
0.12528678304239402,0.027761044070117813,
0.1253366583541147,-0.023017546259523833,
0.1253865336658354,0.029837095136190116,
0.12543640897755612,0.007128625150441358,
0.1254862842892768,0.0010349797678368636,
0.1255361596009975,-0.001031459098359347,
0.1255860349127182,-0.007545015592384708,
0.1256359102244389,-0.0031671426847686094,
0.1256857855361596,0.027457649614052542,
0.1257356608478803,-0.015369832199256757,
0.125785536159601,-0.013032125865661402,
0.12583541147132168,-0.018804989341495194,
0.1258852867830424,0.012025418188918216,
0.1259351620947631,-0.005504562874869958,
0.12598503740648379,0.016848999724769883,
0.1260349127182045,-0.014161366073526072,
0.12608478802992518,-0.021290942714185093,
0.1261346633416459,0.014985525615648457,
0.1261845386533666,-0.001356683842223175,
0.12623441396508728,0.016375289926052188,
0.126284289276808,-0.04149235379167282,
0.12633416458852867,-0.00612681573631324,
0.12638403990024938,0.0036626979148396462,
0.1264339152119701,-0.0077159755906116255,
0.12648379052369077,0.03781728719020115,
0.12653366583541148,0.005063130821178391,
0.12658354114713216,0.007386211108011639,
0.12663341645885287,-0.00216237986426499,
0.12668329177057355,-0.021962372465361115,
0.12673316708229426,-0.006909696640229779,
0.12678304239401497,0.024245280085854845,
0.12683291770573565,0.007595149167604152,
0.12688279301745636,-0.005448060489959862,
0.12693266832917705,0.014367296721829268,
0.12698254364089775,0.018290655525600795,
0.12703241895261846,0.009717511455070368,
0.12708229426433915,-0.020978147841485172,
0.12713216957605986,-0.005936771384828334,
0.12718204488778054,0.011799607155863739,
0.12723192019950125,-0.0008586800866751341,
0.12728179551122196,-0.006725903751039338,
0.12733167082294264,-0.007261912491034381,
0.12738154613466335,-0.0043891115067496,
0.12743142144638403,-0.0147642454049109,
0.12748129675810474,0.021054586263632893,
0.12753117206982545,0.019963762231997147,
0.12758104738154613,-0.012256668382483578,
0.12763092269326684,-0.0032954245139958944,
0.12768079800498752,0.0287527910553355,
0.12773067331670823,-0.008926727217369975,
0.1277805486284289,-0.011690554509129064,
0.12783042394014962,-0.007813626698357395,
0.12788029925187033,-0.005860399185105358,
0.12793017456359101,-0.029757942724345267,
0.12798004987531172,-0.008207083196804396,
0.1280299251870324,0.012640770777501448,
0.12807980049875312,-0.0038610119358590206,
0.12812967581047383,-0.012631161972266138,
0.1281795511221945,0.00851336696262332,
0.12822942643391522,0.03139185095979614,
0.1282793017456359,-0.019861989659435135,
0.1283291770573566,-0.03005359743707202,
0.12837905236907732,0.02867817099617289,
0.128428927680798,-0.026918495305877484,
0.1284788029925187,-0.0023617152082023272,
0.1285286783042394,0.008078644175705566,
0.1285785536159601,-0.0004935951210021739,
0.1286284289276808,-0.031367298537030124,
0.1286783042394015,-0.008505786510574502,
0.1287281795511222,-0.005035668027859851,
0.12877805486284288,-0.01509507778804874,
0.1288279301745636,-0.012387674731585994,
0.1288778054862843,0.007336180690911496,
0.12892768079800498,-0.04744700975629661,
0.1289775561097257,-0.02056116285334901,
0.12902743142144638,0.008812673025144236,
0.12907730673316709,-0.023296169499963753,
0.12912718204488777,-0.02882937833141888,
0.12917705735660848,-0.012492253828433286,
0.1292269326683292,-0.010789350459818874,
0.12927680798004987,-0.002236500646797145,
0.12932668329177058,-0.017038499456136925,
0.12937655860349126,0.006423922458379611,
0.12942643391521197,-0.02943435016120391,
0.12947630922693268,-0.03060640799206242,
0.12952618453865336,-0.012861306406729067,
0.12957605985037407,-0.010101408251760695,
0.12962593516209475,-0.013053866632444868,
0.12967581047381546,-0.005995145472562475,
0.12972568578553617,-0.016808566681526277,
0.12977556109725685,-0.009012314432998821,
0.12982543640897756,0.02750392897746423,
0.12987531172069824,-0.012278998633761291,
0.12992518703241895,-0.018751553915079947,
0.12997506234413966,0.01745254423936956,
0.13002493765586035,-0.012530622721979537,
0.13007481296758105,-0.016451135105023735,
0.13012468827930174,0.003029211134713246,
0.13017456359102245,-0.012384124576350315,
0.13022443890274316,-0.03070948852527107,
0.13027431421446384,0.003027557569040695,
0.13032418952618455,-0.016804769693729134,
0.13037406483790523,-0.005389727515506604,
0.13042394014962594,0.001109277202067424,
0.13047381546134662,0.008833033061305043,
0.13052369077306733,-0.022062238710632058,
0.13057356608478804,0.0015119165507330758,
0.13062344139650872,0.009491581927384776,
0.13067331670822943,-0.0027754470166939608,
0.1307231920199501,-0.011403195154765322,
0.13077306733167082,-0.0211254042653091,
0.13082294264339153,0.03204573764410753,
0.13087281795511221,-0.0036445954963236268,
0.13092269326683292,0.004781378874206193,
0.1309725685785536,0.010762354895669476,
0.13102244389027431,-0.034821870426265694,
0.13107231920199502,0.004304882494813367,
0.1311221945137157,-0.013160535963304864,
0.13117206982543642,0.024677737852699652,
0.1312219451371571,0.008533624228507845,
0.1312718204488778,0.0043548013728734875,
0.13132169576059852,-0.004016749586068543,
0.1313715710723192,-0.017785677117395114,
0.1314214463840399,0.032369642579898904,
0.1314713216957606,0.0015308438406855182,
0.1315211970074813,0.01628645720886245,
0.13157107231920198,-0.01616410384511844,
0.1316209476309227,-0.036291090777841664,
0.1316708229426434,0.028553242976023026,
0.13172069825436408,-0.0010139783588352996,
0.1317705735660848,-0.00162941439854532,
0.13182044887780547,0.0062841213121261775,
0.13187032418952618,0.009332006279518605,
0.1319201995012469,-0.0026987901839564702,
0.13197007481296757,-0.003148178801603006,
0.13201995012468828,0.0031005562463253533,
0.13206982543640897,-0.01556585717431126,
0.13211970074812968,0.01307434206545989,
0.13216957605985039,-0.001653084387550587,
0.13221945137157107,-0.01414385088261065,
0.13226932668329178,-0.0036452559955452656,
0.13231920199501246,0.020546444213957855,
0.13236907730673317,-0.0017793543294764074,
0.13241895261845388,-0.002846788939620283,
0.13246882793017456,0.013513659072772148,
0.13251870324189527,-0.016207767030663293,
0.13256857855361595,-0.02086891707311081,
0.13261845386533666,0.0034075126849327352,
0.13266832917705737,0.010894758763622675,
0.13271820448877805,-0.01488243467271884,
0.13276807980049876,0.005110847387099771,
0.13281795511221944,0.016143521339173093,
0.13286783042394015,-0.004576498485916191,
0.13291770573566083,-0.0064461882020497635,
0.13296758104738154,-0.02742364748701365,
0.13301745635910225,-0.028217366122068866,
0.13306733167082294,0.01731496316684121,
0.13311720698254365,-0.00042687877013705775,
0.13316708229426433,-0.0064076619518065635,
0.13321695760598504,0.002699717574040702,
0.13326683291770575,-0.0005146608450694184,
0.13331670822942643,-0.0030888208388422395,
0.13336658354114714,0.01692110551704832,
0.13341645885286782,-0.020540547180370104,
0.13346633416458853,0.0015805214715891589,
0.13351620947630924,0.009139432470901368,
0.13356608478802992,-0.0052559067542633005,
0.13361596009975063,0.028355674141117893,
0.1336658354114713,-0.0021477553028217697,
0.13371571072319202,0.026057937748553223,
0.13376558603491273,-0.009485717779978682,
0.1338154613466334,-0.00031355523119736147,
0.13386533665835412,-0.006337825101199265,
0.1339152119700748,0.0033833768848836386,
0.13396508728179551,0.01705592384151656,
0.1340149625935162,-0.012864900640376195,
0.1340648379052369,-0.009647501181054364,
0.13411471321695762,0.0007279360238566328,
0.1341645885286783,0.008060857943702005,
0.134214463840399,0.027829542532011906,
0.1342643391521197,-0.029710149847468264,
0.1343142144638404,-0.00268321846637303,
0.1343640897755611,0.012245279779288968,
0.1344139650872818,0.007055254655811,
0.1344638403990025,-0.04136366434557054,
0.13451371571072318,0.039309985415376426,
0.1345635910224439,-0.02288174730778387,
0.1346134663341646,-0.0019513201267318129,
0.13466334164588528,0.012248824283942535,
0.134713216957606,-0.026504477766713573,
0.13476309226932667,0.010239970682943782,
0.13481296758104738,-0.013800152984352103,
0.1348628428927681,0.00886347908502022,
0.13491271820448877,0.013811807750020395,
0.13496259351620948,-0.001525799521575293,
0.13501246882793017,0.010867531477652478,
0.13506234413965088,-0.011188072856879498,
0.13511221945137158,-0.0005222802842060666,
0.13516209476309227,0.0008275069763401949,
0.13521197007481298,0.03244844838733188,
0.13526184538653366,-0.00587778819868133,
0.13531172069825437,0.010624770709705335,
0.13536159600997505,0.04608512118495288,
0.13541147132169576,-0.01459491855943379,
0.13546134663341647,0.023354963857619766,
0.13551122194513715,0.011371782462729988,
0.13556109725685786,0.039762695662238105,
0.13561097256857854,0.005767609815517958,
0.13566084788029925,0.03826260809798197,
0.13571072319201996,0.010133849467877869,
0.13576059850374064,0.016128634894039342,
0.13581047381546135,0.00924838980793001,
0.13586034912718203,0.007196109193207812,
0.13591022443890274,0.014213978405491363,
0.13596009975062345,-0.002538394084696794,
0.13600997506234414,0.03232459586143677,
0.13605985037406484,0.034510581051958894,
0.13610972568578553,-0.004240847313817716,
0.13615960099750624,0.004396907794811382,
0.13620947630922695,0.02490941366984494,
0.13625935162094763,0.03266170450877863,
0.13630922693266834,0.023819088556756258,
0.13635910224438902,0.0026034701668267365,
0.13640897755610973,0.01390243926916944,
0.1364588528678304,0.01654600973370723,
0.13650872817955112,0.017151912698402275,
0.13655860349127183,0.028227815651031822,
0.1366084788029925,0.016496449905664987,
0.13665835411471322,-0.0037089064162298124,
0.1367082294264339,0.02456156367670559,
0.1367581047381546,0.03309335228806267,
0.13680798004987532,0.020945619091824894,
0.136857855361596,0.028721356459030716,
0.1369077306733167,0.00442876148603699,
0.1369576059850374,0.024131508549189162,
0.1370074812967581,0.0407643477455939,
0.13705735660847881,0.044689228803133564,
0.1371072319201995,0.011574046677065505,
0.1371571072319202,0.027310775311313738,
0.1372069825436409,0.0007284647531161544,
0.1372568578553616,0.07832774048490745,
0.1373067331670823,0.00965582519185431,
0.137356608478803,0.05696247727373202,
0.1374064837905237,0.024257779091479893,
0.13745635910224438,-0.0062509596428753575,
0.1375062344139651,0.0390997556911989,
0.1375561097256858,0.015632508454349485,
0.13760598503740648,0.03466576537494182,
0.1376558603491272,0.018516598953698355,
0.13770573566084787,0.03015598601028647,
0.13775561097256858,0.02394603785293798,
0.13780548628428926,0.023319703432383525,
0.13785536159600997,0.061316023466954035,
0.13790523690773068,0.03651423161373211,
0.13795511221945136,0.004981044335220765,
0.13800498753117207,0.011704027250988111,
0.13805486284289276,0.054417616832248966,
0.13810473815461347,0.01217572552455112,
0.13815461346633418,0.02810073970372677,
0.13820448877805486,0.02387983222948028,
0.13825436408977557,0.027191573028846755,
0.13830423940149625,0.018449690654891382,
0.13835411471321696,0.019654353128827802,
0.13840399002493767,0.024095486504653575,
0.13845386533665835,0.024063494303786705,
0.13850374064837906,0.023850153572248883,
0.13855361596009974,0.032543267093767,
0.13860349127182045,0.03416958284084195,
0.13865336658354116,0.0450449448791203,
0.13870324189526184,-0.0012846222054536116,
0.13875311720698255,0.026547668500156392,
0.13880299251870323,0.03386855263107915,
0.13885286783042394,0.039522438426223994,
0.13890274314214462,0.03142171866261764,
0.13895261845386533,0.03885498421275152,
0.13900249376558604,0.034153093989415,
0.13905236907730673,0.03802460300660224,
0.13910224438902744,0.017074332425711172,
0.13915211970074812,0.05408975147237374,
0.13920199501246883,0.024335729460939145,
0.13925187032418954,0.04749447418789454,
0.13930174563591022,0.0169801991387436,
0.13935162094763093,0.008968125617214762,
0.1394014962593516,0.024760618179260632,
0.13945137157107232,0.02397538175053918,
0.13950124688279303,0.04465961104664318,
0.1395511221945137,0.05034922393567368,
0.13960099750623442,0.013388537259781376,
0.1396508728179551,0.0255362697993827,
0.1397007481296758,0.004906434732365423,
0.13975062344139652,0.03852227232534418,
0.1398004987531172,0.03864424047970788,
0.1398503740648379,0.04338713368564793,
0.1399002493765586,0.039333368923581774,
0.1399501246882793,0.04664700090214614,
0.14,0.05732035190410657,
0.1400498753117207,0.034822132313185844,
0.1400997506234414,0.036425878951947724,
0.1401496259351621,0.0260770563460474,
0.1401995012468828,0.035406003535894605,
0.14024937655860348,0.01882425083710289,
0.1402992518703242,0.06226755218923764,
0.1403491271820449,0.0436669030323311,
0.14039900249376558,0.03678299027455749,
0.1404488778054863,0.0430955250638366,
0.14049875311720697,0.03313950517395851,
0.14054862842892768,0.04708053577189048,
0.1405985037406484,0.028655792527724988,
0.14064837905236907,0.025699772115880048,
0.14069825436408978,0.027697949548271907,
0.14074812967581046,0.027220177755699668,
0.14079800498753117,0.030485720599346965,
0.14084788029925188,0.027135283659071318,
0.14089775561097256,0.019469641724845024,
0.14094763092269327,0.032841268666412335,
0.14099750623441396,0.038228079860558845,
0.14104738154613466,0.030626911861994628,
0.14109725685785537,0.025714995345788527,
0.14114713216957606,0.024500835995380568,
0.14119700748129677,0.04243549998751026,
0.14124688279301745,0.05373030177123858,
0.14129675810473816,0.02278935211898795,
0.14134663341645887,0.023807710269370397,
0.14139650872817955,-0.013369163269581912,
