time,amplitude,label
0.0,-0.02528384836421066,
4.987531172069826e-05,-0.029964824987981156,
9.975062344139652e-05,-0.02915541752832275,
0.00014962593516209475,-0.021929300931136573,
0.00019950124688279303,-0.009963088846565778,
0.00024937655860349125,0.010145711791660976,
0.0002992518703241895,-0.01995223478397152,
0.00034912718204488776,-0.015179024234456303,
0.00039900249376558606,-0.029123536797607357,
0.0004488778054862843,-0.0005640500638350501,
0.0004987531172069825,-0.022589054519482295,
0.0005486284289276808,-0.022527410635698932,
0.000598503740648379,0.01589651874472789,
0.0006483790523690773,0.013085187522257529,
0.0006982543640897755,-0.003451688572003145,
0.0007481296758104738,0.01642910189092438,
0.0007980049875311721,0.0020860256200565183,
0.0008478802992518703,-0.005650968936545092,
0.0008977556109725686,0.0042623515425025335,
0.0009476309226932668,-0.005033713739029587,
0.000997506234413965,-0.023810625317571818,
0.0010473815461346633,-0.010934575262862237,
0.0010972568578553616,-0.001242934421428558,
0.00114713216957606,0.002589108805371447,
0.001197007481296758,-0.016094732936331183,
0.0012468827930174563,0.005792821439452369,
0.0012967581047381546,-0.004008197161533465,
0.001346633416458853,-0.010540582091688098,
0.001396508728179551,0.0003358370257382096,
0.0014463840399002493,0.009413005636127075,
0.0014962593516209476,0.019696134001048277,
0.001546134663341646,0.0021247529725433364,
0.0015960099750623442,-0.01981836653868991,
0.0016458852867830423,-0.005686819939583083,
0.0016957605985037406,0.00530019730614275,
0.001745635910224439,-0.024742195741076087,
0.0017955112219451373,0.008841844669643993,
0.0018453865336658353,0.004846755545226772,
0.0018952618453865336,-0.003986919487963853,
0.001945137157107232,-0.00028561587304098014,
0.00199501246882793,-0.03066803221885347,
0.0020448877805486283,0.0009302061785187226,
0.0020947630922693266,-0.016821436323550994,
0.002144638403990025,-0.04392815705252249,
0.0021945137157107233,0.018571098291650438,
0.0022443890274314216,-0.001541632675446384,
0.00229426433915212,0.032632657496797265,
0.0023441396508728177,0.006221197429387019,
0.002394014962593516,-0.009052089527264691,
0.0024438902743142144,0.00849958742955839,
0.0024937655860349127,0.0018477434266318464,
0.002543640897755611,0.009963784675386882,
0.0025935162094763093,-0.0015154251838154294,
0.0026433915211970076,-0.01651932498140464,
0.002693266832917706,0.01814996870570754,
0.002743142144638404,0.02129338952268927,
0.002793017456359102,-0.011001217744583288,
0.0028428927680798004,0.006461042131654783,
0.0028927680798004987,-0.007439841658724527,
0.002942643391521197,-0.0032170993968786096,
0.0029925187032418953,-0.007476064946405286,
0.0030423940149625936,0.029973241642322,
0.003092269326683292,0.031084886246528373,
0.00314214463840399,0.01583064118914123,
0.0031920199501246885,0.013437030422218062,
0.0032418952618453864,0.02058596561617434,
0.0032917705735660847,-0.009435926319251,
0.003341645885286783,0.014764611953035425,
0.0033915211970074813,0.0027429156729761625,
0.0034413965087281796,-0.02017272739243589,
0.003491271820448878,0.029260227463727563,
0.003541147132169576,0.009795428522617614,
0.0035910224438902745,0.007685607373997471,
0.0036408977556109724,-0.00665787195334119,
0.0036907730673316707,-0.021750745708165514,
0.003740648379052369,-0.004129367111353727,
0.0037905236907730673,0.018352601563433924,
0.0038403990024937656,0.030198324652456372,
0.003890274314214464,0.018144085231190453,
0.003940149625935162,0.014645226694932123,
0.00399002493765586,0.02161343394643584,
0.004039900249376558,0.019428205142500866,
0.004089775561097257,0.004885004988966209,
0.004139650872817955,-0.003807716680245231,
0.004189526184538653,0.00466788385008399,
0.004239401496259352,0.002485805375727148,
0.00428927680798005,0.0009621481139703136,
0.004339152119700748,0.019855483892971273,
0.0043890274314214465,0.006078717097503467,
0.004438902743142145,0.023364143323630383,
0.004488778054862843,0.010064978076536491,
0.004538653366583541,-0.00045031718135887626,
0.00458852867830424,-0.0016775522473393995,
0.004638403990024938,-0.002111341750032943,
0.0046882793017456355,0.022149100919338943,
0.004738154613466334,-0.006766060615988117,
0.004788029925187032,0.016507175598732438,
0.00483790523690773,0.02007171980120445,
0.004887780548628429,0.029462242797110377,
0.004937655860349127,-0.015481821442818143,
0.004987531172069825,-0.008514850179019486,
0.005037406483790524,0.02644569632700071,
0.005087281795511222,0.012364837447838752,
0.00513715710723192,-0.010928427774370144,
0.0051870324189526185,-0.006805035646188319,
0.005236907730673317,0.0006376264151064584,
0.005286783042394015,0.009773872588087647,
0.0053366583541147134,-0.008305278204716032,
0.005386533665835412,-0.012187437661487607,
0.00543640897755611,0.005775715934090453,
0.005486284289276808,-0.0017234710385346831,
0.005536159600997507,0.016085883093187495,
0.005586034912718204,0.017353423786215138,
0.005635910224438902,0.005177260180008074,
0.005685785536159601,0.008404720285684671,
0.005735660847880299,0.03712036136191996,
0.005785536159600997,0.012995582870570805,
0.005835411471321696,0.026030664080881654,
0.005885286783042394,0.018849731115654682,
0.005935162094763092,0.0021497473456985987,
0.0059850374064837905,0.015043793651905567,
0.006034912718204489,0.01622834080605922,
0.006084788029925187,0.01697756252534608,
0.0061346633416458855,0.023675251162527992,
0.006184538653366584,0.013648280802716687,
0.006234413965087282,0.025044430998576547,
0.00628428927680798,0.03536274793469366,
0.006334164588528679,0.024804416694639196,
0.006384039900249377,0.015068652473823722,
0.006433915211970074,0.013913468776394392,
0.006483790523690773,0.03281347720934085,
0.006533665835411471,0.00971796312671284,
0.006583541147132169,0.05039437221978868,
0.006633416458852868,0.020154671829545404,
0.006683291770573566,0.009057686368484825,
0.006733167082294264,0.02751362454130745,
0.0067830423940149626,0.029016545347109714,
0.006832917705735661,0.04688594555429641,
0.006882793017456359,0.031409280900452176,
0.0069326683291770575,-0.0010849210601916945,
0.006982543640897756,0.02853452209674096,
0.007032418952618454,0.0019721103737835206,
0.007082294264339152,0.011679410620561137,
0.007132169576059851,0.020960478419151177,
0.007182044887780549,0.030446201907689232,
0.007231920199501247,0.0366627861003256,
0.007281795511221945,0.012556020205104164,
0.007331670822942643,0.01073388867579882,
0.007381546134663341,0.022306421098917867,
0.00743142144638404,0.001879843211310548,
0.007481296758104738,0.013137787515433782,
0.007531172069825436,0.011333056683216752,
0.007581047381546135,0.027458720940521875,
0.007630922693266833,0.021190088432666877,
0.007680798004987531,0.003750039467864251,
0.0077306733167082295,0.011659964317204065,
0.007780548628428928,0.003466858215814328,
0.007830423940149626,0.04756003875644869,
0.007880299251870324,0.019218788719868995,
0.007930174563591023,0.02720874632074241,
0.00798004987531172,0.047322246109609147,
0.00802992518703242,0.019337822716008667,
0.008079800498753117,0.020069879464958685,
0.008129675810473816,-0.0003859574271136909,
0.008179551122194513,0.013061067023569132,
0.008229426433915213,0.025966858048117398,
0.00827930174563591,0.022088458298861045,
0.00832917705735661,0.031619951293138174,
0.008379052369077307,0.011413013260111422,
0.008428927680798006,0.04380062740998751,
0.008478802992518703,0.014401796280891655,
0.0085286783042394,0.018365232088160797,
0.0085785536159601,0.018702944171112408,
0.008628428927680797,0.023711101390986537,
0.008678304239401496,0.01857187428175725,
0.008728179551122194,0.006563616159637279,
0.008778054862842893,0.04478949450459034,
0.00882793017456359,0.01299732015001416,
0.00887780548628429,0.0010734593953290947,
0.008927680798004987,0.014911661674577872,
0.008977556109725686,-0.0019951931928291027,
0.009027431421446384,0.039125229369576825,
0.009077306733167083,0.022271954559081802,
0.00912718204488778,-0.011449607611246804,
0.00917705735660848,0.010614236944430352,
0.009226932668329177,0.0009063743666066458,
0.009276807980049876,0.009141375605264861,
0.009326683291770574,0.023928899348383707,
0.009376558603491271,0.01365312537440145,
0.00942643391521197,0.03318954091868972,
0.009476309226932668,0.01198436655614827,
0.009526184538653367,0.02062303282903067,
0.009576059850374064,0.014603860947025153,
0.009625935162094763,0.025274910133539923,
0.00967581047381546,0.0051715317425155075,
0.00972568578553616,0.014607155718833989,
0.009775561097256857,0.00867815790207764,
0.009825436408977557,0.009005482751354276,
0.009875311720698254,0.015199275133449408,
0.009925187032418953,-0.009112797254281102,
0.00997506234413965,0.005781703017460827,
0.01002493765586035,0.039132369383055234,
0.010074812967581047,-0.03639803541323321,
0.010124688279301746,0.001155449396188321,
0.010174563591022444,0.0021407350429423645,
0.010224438902743141,0.010544596349609591,
0.01027431421446384,0.018548668291441854,
0.010324189526184538,-0.013125268479478827,
0.010374064837905237,-0.007193289574103109,
0.010423940149625935,0.012457796529603965,
0.010473815461346634,0.012154849711218533,
0.010523690773067331,0.027578569827738465,
0.01057356608478803,0.025515927170317167,
0.010623441396508728,0.017693251083198296,
0.010673316708229427,0.0029172741770532203,
0.010723192019950124,0.023390314583462725,
0.010773067331670824,0.0016806071531285799,
0.010822942643391521,0.012956772663953123,
0.01087281795511222,0.00984096469743261,
0.010922693266832918,0.03336003865885272,
0.010972568578553617,0.016712650916106384,
0.011022443890274314,0.023801018680574222,
0.011072319201995013,0.00913975928811528,
0.01112219451371571,0.020901065524713554,
0.011172069825436408,0.02605305502117202,
0.011221945137157107,0.023590420211506813,
0.011271820448877805,-0.0065509398636511,
0.011321695760598504,-0.0005758174856188604,
0.011371571072319201,0.009049724330113706,
0.0114214463840399,-0.014461172065606934,
0.011471321695760598,0.02555453167174116,
0.011521197007481297,0.008843128920319566,
0.011571072319201995,0.007886775695855433,
0.011620947630922694,-0.0028108924946542834,
0.011670822942643391,0.002486456984597038,
0.01172069825436409,0.030344232054727385,
0.011770573566084788,0.013031642373564425,
0.011820448877805487,-0.005005508152443341,
0.011870324189526184,0.009972939933690054,
0.011920199501246884,-0.005070843176048539,
0.011970074812967581,0.016918755664877175,
0.012019950124688279,-0.018317667541417504,
0.012069825436408978,0.005014523612946542,
0.012119700748129675,0.0283881735513985,
0.012169576059850374,0.00520950749202615,
0.012219451371571072,-0.006755705613182059,
0.012269326683291771,0.00854628821500542,
0.012319201995012468,-0.012590053381847922,
0.012369077306733168,-0.01302211257124381,
0.012418952618453865,0.013308810579767957,
0.012468827930174564,-0.013365571900720422,
0.012518703241895262,0.007028968274460607,
0.01256857855361596,0.009491810617917604,
0.012618453865336658,-0.005268430873834176,
0.012668329177057357,0.006602860230388127,
0.012718204488778055,-0.0038187157700822734,
0.012768079800498754,0.01062367327183997,
0.012817955112219451,-0.03258794589750758,
0.012867830423940149,-0.01099844255382602,
0.012917705735660848,0.006041796275730144,
0.012967581047381545,-0.014762816209840934,
0.013017456359102245,0.01641749872080996,
0.013067331670822942,-0.01628151430915871,
0.013117206982543641,-0.049374354961822645,
0.013167082294264339,-0.0035096120491235673,
0.013216957605985038,0.0040186010412278355,
0.013266832917705735,-0.001753957811163229,
0.013316708229426434,0.0016921408303741201,
0.013366583541147132,-0.010830706480510405,
0.013416458852867831,0.020247771904124807,
0.013466334164588529,-0.0023596562780951115,
0.013516209476309228,-0.002889015857547646,
0.013566084788029925,0.01664289227511741,
0.013615960099750624,-0.042865551358905365,
0.013665835411471322,-0.008267256197565206,
0.01371571072319202,-0.016194192700137198,
0.013765586034912718,-0.0003613469842936312,
0.013815461346633416,0.019140822823707642,
0.013865336658354115,-0.020727783311797743,
0.013915211970074812,-0.03688638090217674,
0.013965087281795512,-0.018189108951425663,
0.014014962593516209,-0.018586477316983503,
0.014064837905236908,-0.01811528736357064,
0.014114713216957606,-0.02509883154195193,
0.014164588528678305,0.003258372053644782,
0.014214463840399002,-0.0004912688940569149,
0.014264339152119701,-0.0025825177710936398,
0.014314214463840399,-0.009386644493245277,
0.014364089775561098,-0.01446745772994671,
0.014413965087281795,-0.05053675219292392,
0.014463840399002495,-0.02393413663917146,
0.014513715710723192,-0.022600800351198706,
0.01456359102244389,0.00352743717412737,
0.014613466334164589,-0.01452070523394576,
0.014663341645885286,-0.006235049423602539,
0.014713216957605985,-0.003194186725138659,
0.014763092269326683,-0.004731477062767375,
0.014812967581047382,-0.0021206348743800577,
0.01486284289276808,-0.020464130123578433,
0.014912718204488778,-0.00020176747739494155,
0.014962593516209476,5.644822471723848e-05,
0.015012468827930175,-0.00835037797110748,
0.015062344139650873,-0.006095408844151854,
0.015112219451371572,-0.01841955186272825,
0.01516209476309227,-0.001279698042948519,
0.015211970074812968,-0.012241452654275063,
0.015261845386533666,-0.07142333520712843,
0.015311720698254365,0.011353763787899804,
0.015361596009975062,-0.020443416268031964,
0.01541147132169576,-0.03900043402310588,
0.015461346633416459,-0.039035980906659315,
0.015511221945137156,0.007073378021237602,
0.015561097256857856,-0.042800182372767746,
0.015610972568578553,-0.0418947337997197,
0.015660847880299252,-0.011489334897104676,
0.01571072319201995,-0.0006900493351676661,
0.015760598503740647,-0.02318327189494801,
0.015810473815461346,-0.010520831324171897,
0.015860349127182045,-0.03645855676582831,
0.015910224438902745,-0.030074415648198155,
0.01596009975062344,-0.0007200986992418751,
0.01600997506234414,-0.008523223585707191,
0.01605985037406484,-0.020141931512976777,
0.016109725685785538,-0.01817584383159961,
0.016159600997506234,-0.02163986720334179,
0.016209476309226933,-0.007329867095967632,
0.016259351620947632,-0.010505981838393706,
0.016309226932668328,0.010788309716702277,
0.016359102244389027,-0.025900228779810793,
0.016408977556109726,0.004578402148292346,
0.016458852867830425,0.00922615399335152,
0.01650872817955112,-0.037861163952603985,
0.01655860349127182,-0.02351620332645594,
0.01660847880299252,-0.03069048371377051,
0.01665835411471322,-0.01292103155668781,
0.016708229426433914,-0.03293541031095541,
0.016758104738154613,-0.0026081485587601504,
0.016807980049875312,0.004181199544454391,
0.01685785536159601,-0.008445489418414564,
0.016907730673316707,-0.029204045452861316,
0.016957605985037406,0.00014772854795659304,
0.017007481296758106,-0.007903516353255592,
0.0170573566084788,-0.02763193303891439,
0.0171072319201995,0.0041383909350019635,
0.0171571072319202,-0.02355522792460034,
0.0172069825436409,-0.0046178345035520815,
0.017256857855361595,0.010807983212254783,
0.017306733167082294,-0.027071748125020875,
0.017356608478802993,-0.014314068949073118,
0.017406483790523692,-0.035174105041146764,
0.017456359102244388,-0.018582976421003043,
0.017506234413965087,-0.0349333659421876,
0.017556109725685786,-0.04531800542351218,
0.017605985037406485,-0.014035116283629915,
0.01765586034912718,-0.01977913310797786,
0.01770573566084788,-0.04854728153188634,
0.01775561097256858,-0.03549796729958435,
0.01780548628428928,-0.018290886179168808,
0.017855361596009974,-0.013690435800253288,
0.017905236907730673,-0.03894149808988367,
0.017955112219451373,-0.016369192912319367,
0.018004987531172068,-0.02485358477181541,
0.018054862842892767,-0.04182131849120932,
0.018104738154613467,-0.02419688485348901,
0.018154613466334166,0.00046886293133648754,
0.01820448877805486,-0.05107611637411092,
0.01825436408977556,-0.008321152639048868,
0.01830423940149626,-0.03333120203269791,
0.01835411471321696,0.0185424566788841,
0.018403990024937655,0.004214239649857714,
0.018453865336658354,-0.010740743039231518,
0.018503740648379053,-0.015231595815825219,
0.018553615960099752,-0.007471529987332559,
0.018603491271820448,-0.036506563172831505,
0.018653366583541147,-0.03568863909036818,
0.018703241895261846,-0.033650111031570645,
0.018753117206982542,-0.024679840381589116,
0.01880299251870324,-0.016282757785716903,
0.01885286783042394,-0.03605017668446445,
0.01890274314214464,-0.021262137731377927,
0.018952618453865335,-0.021929322223312224,
0.019002493765586034,-0.025927159336724778,
0.019052369077306733,0.015514673489883352,
0.019102244389027433,-0.004789503668419837,
0.01915211970074813,-0.014585660096386293,
0.019201995012468828,0.007723158775617352,
0.019251870324189527,-0.011895731816377809,
0.019301745635910226,-0.022768319753291057,
0.01935162094763092,-0.0008289644130852983,
0.01940149625935162,0.0031309538915012935,
0.01945137157107232,-0.021234775974310633,
0.01950124688279302,-0.010779892701443862,
0.019551122194513715,-0.028228130095027393,
0.019600997506234414,-0.02408881181827778,
0.019650872817955113,-0.022848170641314364,
0.01970074812967581,-0.03763150666099017,
0.019750623441396508,-0.023948537111784587,
0.019800498753117207,-0.031561912914652705,
0.019850374064837906,-0.00609730026822069,
0.019900249376558602,-0.015020547021795989,
0.0199501246882793,0.006550325540506026,
0.02,-0.025651587809509435,
0.0200498753117207,-0.013713062699512536,
0.020099750623441395,-0.03328413770023669,
0.020149625935162094,-0.016257590212753276,
0.020199501246882794,-0.014588908690205155,
0.020249376558603493,-0.010493058854661374,
0.02029925187032419,0.002896549013310287,
0.020349127182044888,0.009830185557893133,
0.020399002493765587,0.0029965740908351347,
0.020448877805486283,-0.02493194898688486,
0.02049875311720698,-0.019054679968185273,
0.02054862842892768,-0.01052948075233038,
0.02059850374064838,-0.022621163556962216,
0.020648379052369076,-0.010387131469651787,
0.020698254364089775,-0.016661009459325374,
0.020748129675810474,-0.01254837383590329,
0.020798004987531173,-0.00012794750576583698,
0.02084788029925187,-0.014421247454718056,
0.020897755610972568,-0.0023594048783032416,
0.020947630922693267,0.004541674237152437,
0.020997506234413967,0.010091787040963474,
0.021047381546134662,-0.008639992869046353,
0.02109725685785536,0.00046320398856030016,
0.02114713216957606,0.009089491720611919,
0.02119700748129676,0.002932124318225239,
0.021246882793017455,0.011920632918817078,
0.021296758104738155,-0.011136878084936859,
0.021346633416458854,-0.007807503029303941,
0.02139650872817955,-0.005311096836807755,
0.02144638403990025,0.016629795449382864,
0.021496259351620948,-0.006633477668627806,
0.021546134663341647,-0.020188772826433454,
0.021596009975062343,-0.026561448708944665,
0.021645885286783042,0.01330089929746731,
0.02169576059850374,-0.022696613216285605,
0.02174563591022444,0.0018229395168722342,
0.021795511221945136,-0.0034152103238275625,
0.021845386533665835,0.0059715867164897235,
0.021895261845386534,-0.006353428992175122,
0.021945137157107233,-0.028284684198206296,
0.02199501246882793,-0.027747833762416498,
0.02204488778054863,-0.00944935657651164,
0.022094763092269327,-0.017583042033541704,
0.022144638403990027,-0.014542550618863687,
0.022194513715710722,0.013822452735790778,
0.02224438902743142,-0.0006316489093929402,
0.02229426433915212,-0.015591055827176613,
0.022344139650872816,0.01905848016143788,
0.022394014962593516,-0.0015092384464712439,
0.022443890274314215,0.02470297634285501,
0.022493765586034914,-0.007914716455523071,
0.02254364089775561,-0.014020029112636627,
0.02259351620947631,0.031839541281029775,
0.022643391521197008,0.04520140555896885,
0.022693266832917707,0.016165918554233574,
0.022743142144638403,0.015409208907774388,
0.022793017456359102,0.023727676737268444,
0.0228428927680798,0.016843382459008332,
0.0228927680798005,0.00849709955615828,
0.022942643391521196,0.012078730539984641,
0.022992518703241895,0.01693828440227945,
0.023042394014962594,0.015938463969543293,
0.02309226932668329,-0.010250004876152068,
0.02314214463840399,0.053671036068910265,
0.02319201995012469,0.053906860781309324,
0.023241895261845388,0.028573914127894885,
0.023291770573566083,-0.017885489943684614,
0.023341645885286783,-0.016967596982313406,
0.02339152119700748,0.030701794137805445,
0.02344139650872818,-0.001476579160899747,
0.023491271820448877,0.0003920159685398047,
0.023541147132169576,0.009893978249066312,
0.023591022443890275,0.032833465000226915,
0.023640897755610974,-0.013708260129858332,
0.02369077306733167,-0.022471021108076937,
0.02374064837905237,0.008267859646290707,
0.023790523690773068,0.0026095156718729962,
0.023840399002493767,0.006698406093334036,
0.023890274314214463,0.033872741078469555,
0.023940149625935162,-0.0011636986823434538,
0.02399002493765586,0.019941114567345264,
0.024039900249376557,0.004696940565689402,
0.024089775561097256,0.0064530576476324285,
0.024139650872817955,0.010735848668698669,
0.024189526184538655,0.010369195650228914,
0.02423940149625935,0.009519156372559203,
0.02428927680798005,0.0016133788635050855,
0.02433915211970075,0.021924716200088307,
0.024389027431421448,0.005007113101537992,
0.024438902743142144,-0.028601168000156132,
0.024488778054862843,0.030930718585952487,
0.024538653366583542,0.002391948950153662,
0.02458852867830424,0.035724149999637175,
0.024638403990024937,0.019764790176250907,
0.024688279301745636,0.020211179945555408,
0.024738154613466335,0.04520101049258112,
0.02478802992518703,0.0003951126676805909,
0.02483790523690773,0.012940584858685308,
0.02488778054862843,0.019811117487327088,
0.02493765586034913,0.027343998786136536,
0.024987531172069824,0.0018830419718303716,
0.025037406483790523,0.002796106140811482,
0.025087281795511222,0.015217082120245898,
0.02513715710723192,0.0007461485375763605,
0.025187032418952617,0.02484928323399653,
0.025236907730673316,-0.008795283619243158,
0.025286783042394016,0.032950974625530906,
0.025336658354114715,0.04411804128487625,
0.02538653366583541,0.03912117284345715,
0.02543640897755611,0.025126660442745804,
0.02548628428927681,0.017169825395345985,
0.025536159600997508,0.03133950203093751,
0.025586034912718204,0.05608836071849453,
0.025635910224438903,0.036375359145811595,
0.025685785536159602,0.024685150836657725,
0.025735660847880298,0.004223266017422471,
0.025785536159600997,0.006977798351020107,
0.025835411471321696,0.029626395496566083,
0.025885286783042395,0.03606208494375294,
0.02593516209476309,0.04737907064623972,
0.02598503740648379,0.031527279613133466,
0.02603491271820449,0.00039786016486375794,
0.02608478802992519,0.03092719557471362,
0.026134663341645884,0.03618366267858164,
0.026184538653366583,0.030887884963160375,
0.026234413965087282,-0.005997970443200138,
0.02628428927680798,-0.003290026856146478,
0.026334164588528677,0.008911679593257348,
0.026384039900249377,0.03171947419081807,
0.026433915211970076,0.037884312303042025,
0.02648379052369077,0.009006332791087819,
0.02653366583541147,0.01062694401229513,
0.02658354114713217,0.03639905503009657,
0.02663341645885287,0.025155403400196834,
0.026683291770573565,0.027347140179404615,
0.026733167082294264,-0.006357033927843373,
0.026783042394014963,0.030004451069249365,
0.026832917705735662,0.017694971387429776,
0.026882793017456358,0.03178264709997662,
0.026932668329177057,0.031119515997219876,
0.026982543640897756,0.012271640267370586,
0.027032418952618455,0.005299728519056218,
0.02708229426433915,0.013605438837977563,
0.02713216957605985,0.003079936372589614,
0.02718204488778055,-0.015127795703569816,
0.02723192019950125,0.030908971677390536,
0.027281795511221944,0.028014916558242307,
0.027331670822942643,0.006090072258064596,
0.027381546134663343,0.03328171243966298,
0.02743142144638404,0.03303920348340475,
0.027481296758104738,0.024037730229683668,
0.027531172069825437,0.0076697849771405965,
0.027581047381546136,0.025831620698264064,
0.02763092269326683,0.0012562919063510598,
0.02768079800498753,0.03269012223499528,
0.02773067331670823,0.02044562484536669,
0.02778054862842893,0.028607825575925352,
0.027830423940149625,0.01154545610345029,
0.027880299251870324,0.021159811725348927,
0.027930174563591023,0.02752598018411785,
0.027980049875311722,0.00814218523783272,
0.028029925187032418,0.024031619941029734,
0.028079800498753117,0.011338346635434501,
0.028129675810473816,0.030365893403839897,
0.028179551122194512,0.04968769347090507,
0.02822942643391521,0.01799126395443937,
0.02827930174563591,0.04486762460761942,
0.02832917705735661,0.03372158907867516,
0.028379052369077305,0.03393017933791778,
0.028428927680798004,0.025513274327449816,
0.028478802992518704,0.020629577555387062,
0.028528678304239403,0.00194910822213136,
0.0285785536159601,-0.011980418236322031,
0.028628428927680798,0.015336470030062214,
0.028678304239401497,0.009052235044253973,
0.028728179551122196,0.025737780421553003,
0.02877805486284289,-0.01203112480025285,
0.02882793017456359,0.012473983523373592,
0.02887780548628429,0.004191655904703544,
0.02892768079800499,0.004381928284108081,
0.028977556109725685,0.016106258728182096,
0.029027431421446384,0.023393776682485073,
0.029077306733167083,0.023907714089777602,
0.02912718204488778,0.06074847280870643,
0.029177057356608478,-0.0076773027118696435,
0.029226932668329177,0.005570906088845697,
0.029276807980049877,-0.0006038572033114954,
0.029326683291770572,0.008659960434598562,
0.02937655860349127,0.0005538812188384153,
0.02942643391521197,0.01951049619546624,
0.02947630922693267,-0.005488414649867643,
0.029526184538653365,0.02003809928811313,
0.029576059850374065,0.009857282866498847,
0.029625935162094764,0.010503607186574018,
0.029675810473815463,0.009419635575802507,
0.02972568578553616,0.009873627978627326,
0.029775561097256858,0.018225608935433964,
0.029825436408977557,0.0408065626073785,
0.029875311720698253,-0.004576988021606308,
0.029925187032418952,0.03498516019573234,
0.02997506234413965,-0.003544015969488633,
0.03002493765586035,0.03083706913229975,
0.030074812967581046,0.024794368199867772,
0.030124688279301745,0.0008928001423618211,
0.030174563591022444,0.002642230309468417,
0.030224438902743143,0.01280401237410175,
0.03027431421446384,0.009862433371944986,
0.03032418952618454,0.00025437395667406507,
0.030374064837905237,0.017680782668870212,
0.030423940149625937,0.012007484814341357,
0.030473815461346632,0.028535817628928647,
0.03052369077306733,-0.011300833940407616,
0.03057356608478803,0.023335862383368728,
0.03062344139650873,0.025703230412397006,
0.030673316708229426,0.02580865340391151,
0.030723192019950125,-0.01164625160718816,
0.030773067331670824,-0.0016783134856207908,
0.03082294264339152,-0.006569544429441026,
0.03087281795511222,0.01575842717790478,
0.030922693266832918,0.010658053319803153,
0.030972568578553617,-0.001119761714933441,
0.031022443890274313,0.002949139509004289,
0.031072319201995012,-0.015035218021311749,
0.03112219451371571,-0.00528562685016625,
0.03117206982543641,-0.005384957522009768,
0.031221945137157106,0.03157945829877021,
0.03127182044887781,0.009413841378432899,
0.031321695760598504,0.024664382736892858,
0.0313715710723192,0.014392212954365598,
0.0314214463840399,0.003572590487580897,
0.0314713216957606,0.01819568759860548,
0.031521197007481294,-7.276681420711334e-05,
0.031571072319202,0.004049759152695481,
0.03162094763092269,0.026521009535590383,
0.03167082294264339,-0.015716716556822045,
0.03172069825436409,-0.009018573680966091,
0.03177057356608479,0.009467741629017893,
0.03182044887780549,0.010645302440072231,
0.031870324189526185,-0.006826566897680653,
0.03192019950124688,0.014691144949214193,
0.03197007481296758,0.014977575875361235,
0.03201995012468828,-0.01916902341223381,
0.032069825436408975,-0.005778619180418997,
0.03211970074812968,-0.009516919903761696,
0.03216957605985037,0.005955905652148371,
0.032219451371571076,0.021466585006018918,
0.03226932668329177,0.0028242678219118984,
0.03231920199501247,-0.004935249375502611,
0.03236907730673317,-0.0065175449384234614,
0.032418952618453865,0.021614689907123293,
0.03246882793017456,0.008623755307027067,
0.032518703241895264,0.01368831531206242,
0.03256857855361596,0.006427957220566041,
0.032618453865336655,-0.018202694714865176,
0.03266832917705736,0.010228749127898286,
0.032718204488778053,-0.01881581521445154,
0.032768079800498756,-0.003571883849295853,
0.03281795511221945,0.0017227226817058245,
0.03286783042394015,-0.03477689665179327,
0.03291770573566085,0.009694950241183357,
0.032967581047381546,0.010678101879767051,
0.03301745635910224,-0.021488817095567436,
0.033067331670822944,6.347927423421972e-05,
0.03311720698254364,-0.002625407933207322,
0.03316708229426434,-0.015592076365390818,
0.03321695760598504,-0.004956026184820045,
0.033266832917705734,-0.003186122540140287,
0.03331670822942644,-0.007142781081985811,
0.03336658354114713,0.004691674703405143,
0.03341645885286783,-0.00033535581896621414,
0.03346633416458853,-0.013439083672645747,
0.033516209476309226,-0.01943453127138288,
0.03356608478802992,0.005433980655238626,
0.033615960099750625,-0.005836715553361578,
0.03366583541147132,0.007101922339380414,
0.03371571072319202,0.018137350234780615,
0.03376558603491272,0.007842153288036457,
0.033815461346633414,0.02343699139630025,
0.03386533665835412,0.0017746285957850726,
0.03391521197007481,-0.01630914628376582,
0.03396508728179551,-0.001633093692094789,
0.03401496259351621,0.004421096482148149,
0.03406483790523691,-0.028910819010247796,
0.0341147132169576,0.007850912456261093,
0.034164588528678305,-0.015598731339300571,
0.034214463840399,-0.006841105091688872,
0.034264339152119704,-0.0017606879214199537,
0.0343142144638404,-0.016527631896187223,
0.034364089775561095,-0.007595128313695009,
0.0344139650872818,-0.03915845060708377,
0.03446384039900249,-0.02855410668143484,
0.03451371571072319,0.007978009379154547,
0.03456359102244389,-0.019243781206519303,
0.03461346633416459,0.004977230730235699,
0.03466334164588529,-0.021845169802365935,
0.034713216957605986,0.01723296645519987,
0.03476309226932668,0.00541793547801718,
0.034812967581047384,-0.013359903728346625,
0.03486284289276808,-0.005804071256250049,
0.034912718204488775,-0.03626066281867482,
0.03496259351620948,-0.03242115673200949,
0.035012468827930174,-0.001087656912543188,
0.03506234413965087,-0.021393650115667406,
0.03511221945137157,-0.005826210540847555,
0.03516209476309227,-0.03732242956620055,
0.03521197007481297,-0.020458148291575984,
0.035261845386533666,-0.011337818976600899,
0.03531172069825436,-0.028974807953677906,
0.035361596009975065,-0.025237957194303436,
0.03541147132169576,-0.0023304122105372634,
0.035461346633416456,-0.024436665658720463,
0.03551122194513716,-0.006564475966994062,
0.035561097256857854,-0.0024674178628387826,
0.03561097256857856,-0.03674853928084372,
0.03566084788029925,-0.030935409451073727,
0.03571072319201995,0.0068498374143428666,
0.03576059850374065,-0.031760499681668546,
0.03581047381546135,-0.013550070275189265,
0.03586034912718204,-0.033892501436676596,
0.035910224438902745,-0.030096973925949573,
0.03596009975062344,-0.022835841929530008,
0.036009975062344136,-0.01816942605911847,
0.03605985037406484,0.009253699725320613,
0.036109725685785535,-0.009654329078303634,
0.03615960099750624,-0.016233310184406262,
0.03620947630922693,-0.012599177150081341,
0.03625935162094763,-0.021647747754902528,
0.03630922693266833,-0.03162280601725688,
0.03635910224438903,-0.025415004509213565,
0.03640897755610972,0.003710403626605494,
0.036458852867830426,-0.021390305121830003,
0.03650872817955112,-0.008462494102487434,
0.036558603491271824,-0.019792221282761722,
0.03660847880299252,-0.020377846731034537,
0.036658354114713215,-0.0338642947860219,
0.03670822942643392,-0.03700513118126182,
0.036758104738154614,-0.014647568563315262,
0.03680798004987531,0.005495378831315591,
0.03685785536159601,-0.03646894758127871,
0.03690773067331671,-0.00939836777450859,
0.0369576059850374,0.012902598541452374,
0.037007481296758106,-0.013994430769235167,
0.0370573566084788,-0.0157565528946317,
0.037107231920199504,-0.006126077210078049,
0.0371571072319202,-0.04602671414805743,
0.037206982543640896,-0.010135449686344233,
0.0372568578553616,-0.011971428133760904,
0.037306733167082294,-0.029365699308041893,
0.03735660847880299,-0.02564392203632253,
0.03740648379052369,-0.0024587099971568657,
0.03745635910224439,0.001897112370925335,
0.037506234413965084,-0.015045484889917707,
0.037556109725685786,-0.034748857045279316,
0.03760598503740648,-0.01574940971378847,
0.037655860349127185,-0.026203534074866232,
0.03770573566084788,-0.017444622600477404,
0.037755610972568576,-0.0292961480304081,
0.03780548628428928,-0.012557906736904292,
0.037855361596009975,-0.02841881164934515,
0.03790523690773067,-0.009508940456257813,
0.03795511221945137,-0.03303127990190151,
0.03800498753117207,-0.04849780882788943,
0.03805486284289277,-0.022067339240834663,
0.03810473815461347,0.0051337313915973855,
0.03815461346633416,-0.017508673598382873,
0.038204488778054865,-0.007213150259340972,
0.03825436408977556,-0.016145811011773335,
0.03830423940149626,-0.0005746428463396895,
0.03835411471321696,-0.0015176608766436332,
0.038403990024937655,-0.010258026225328502,
0.03845386533665835,-0.007574447033211159,
0.03850374064837905,-0.020098521508717042,
0.03855361596009975,-0.044136730283995534,
0.03860349127182045,-0.003587737468904763,
0.03865336658354115,0.006815669205401366,
0.03870324189526184,-0.01570940374023938,
0.038753117206982546,-0.03298605175240482,
0.03880299251870324,0.006611719281154322,
0.03885286783042394,0.0004321545755908377,
0.03890274314214464,-0.005780309437071612,
0.038952618453865336,-0.01440287168810471,
0.03900249376558604,-0.02499892572076781,
0.039052369077306734,0.00018230928647253349,
0.03910224438902743,-0.009499762695330847,
0.03915211970074813,-0.024408841651442918,
0.03920199501246883,-0.0020457093956382025,
0.039251870324189524,-0.0025945408408107624,
0.039301745635910226,-0.017237791438706507,
0.03935162094763092,-0.01171862968587452,
0.03940149625935162,-0.018612222629586016,
0.03945137157107232,-0.010034105783024818,
0.039501246882793016,0.002625642509149,
0.03955112219451372,0.010913749930231871,
0.039600997506234414,0.012869591942736822,
0.03965087281795511,-0.021333633149318118,
0.03970074812967581,-0.006993676245332746,
0.03975062344139651,-0.018736681558400938,
0.039800498753117204,-0.022407588837599933,
0.03985037406483791,-0.02224558186989181,
0.0399002493765586,-0.016567201540287804,
0.039950124688279305,-0.014890684203090476,
0.04,-0.019351876263581747,
0.0400498753117207,-0.04719635203862444,
0.0400997506234414,-0.026628498177352744,
0.040149625935162095,-0.0008171498562751876,
0.04019950124688279,-0.008471861885328098,
0.04024937655860349,0.002365327881491311,
0.04029925187032419,0.018187555724155244,
0.040349127182044885,-0.01968216306619224,
0.04039900249376559,-0.03593624115584125,
0.04044887780548628,0.022521960891947204,
0.040498753117206986,0.002944617867208413,
0.04054862842892768,-0.01036812378391298,
0.04059850374064838,0.0005705077110911647,
0.04064837905236908,-0.0014983978987048625,
0.040698254364089775,0.002475511289063797,
0.04074812967581047,0.006885931889895218,
0.040798004987531174,-0.016674012937519106,
0.04084788029925187,0.003379994992946382,
0.040897755610972565,0.033141573385500236,
0.04094763092269327,-0.0019786456123077807,
0.04099750623441396,-0.0144411525181098,
0.041047381546134666,-0.002382706019289353,
0.04109725685785536,-0.002759529401527699,
0.04114713216957606,-0.005633052324668406,
0.04119700748129676,0.004567267079958257,
0.041246882793017456,0.021314074790598443,
0.04129675810473815,0.0032491117896606895,
0.041346633416458854,-0.0033419090705330287,
0.04139650872817955,-0.008790445794964708,
0.04144638403990025,0.005863652807937204,
0.04149625935162095,-0.001936534817614183,
0.041546134663341644,0.008012898726595684,
0.04159600997506235,-0.001144501201634682,
0.04164588528678304,-0.021970342944056316,
0.04169576059850374,0.004550347080157224,
0.04174563591022444,-0.015977276828534254,
0.041795511221945136,-0.006014872537735016,
0.04184538653366583,0.004937239247824242,
0.041895261845386535,-0.006089620690341305,
0.04194513715710723,-0.005430906044324371,
0.04199501246882793,-0.002298514972988585,
0.04204488778054863,-0.014567413434740929,
0.042094763092269324,-0.016794236451881245,
0.04214463840399003,0.020039075060952295,
0.04219451371571072,-0.00843362395057429,
0.04224438902743142,0.004470389974975132,
0.04229426433915212,0.009630684208442946,
0.04234413965087282,0.006631969875856215,
0.04239401496259352,0.0071784495302801565,
0.042443890274314215,0.021072724796312968,
0.04249376558603491,-0.010758834713881784,
0.042543640897755614,0.005986535286959687,
0.04259351620947631,0.0039824219489268614,
0.042643391521197005,0.012383149579620022,
0.04269326683291771,0.009463164321743187,
0.0427431421446384,-0.003588758075710718,
0.0427930174563591,0.0034651236453092328,
0.0428428927680798,0.012391967775817195,
0.0428927680798005,0.024789996536189615,
0.0429426433915212,0.0022795381628179434,
0.042992518703241896,0.025891346731748324,
0.04304239401496259,0.041638272670263446,
0.043092269326683294,-0.010126587451836288,
0.04314214463840399,0.028830179876213148,
0.043192019950124685,0.019234923098876568,
0.04324189526184539,0.036465603851202566,
0.043291770573566084,0.03241586403549994,
0.043341645885286786,0.013043855448116815,
0.04339152119700748,0.019717753117556035,
0.04344139650872818,0.020950984460552262,
0.04349127182044888,0.011321784015044124,
0.043541147132169576,0.046507669522033925,
0.04359102244389027,-0.009135760631977415,
0.043640897755610975,0.0062685382834599245,
0.04369077306733167,0.017580469588049166,
0.043740648379052366,0.010307244229868036,
0.04379052369077307,0.025262860920772783,
0.043840399002493764,0.017249659851756808,
0.04389027431421447,0.00041004397528125736,
0.04394014962593516,0.004539286185675843,
0.04399002493765586,-0.002654646448952457,
0.04403990024937656,-0.004192896842064801,
0.04408977556109726,0.010615840973714836,
0.04413965087281795,0.029088450516955872,
0.044189526184538655,0.012732157562056194,
0.04423940149625935,0.017793749238749955,
0.04428927680798005,0.005175374294341012,
0.04433915211970075,-0.006506719738485274,
0.044389027431421445,-0.010438133814023604,
0.04443890274314215,0.015889669912195457,
0.04448877805486284,0.01589765431912188,
0.04453865336658354,0.031486774885278006,
0.04458852867830424,0.0051696276875514285,
0.04463840399002494,0.035192956086128206,
0.04468827930174563,0.007328606598424325,
0.044738154613466335,0.010315809453788592,
0.04478802992518703,-0.005265517690511156,
0.044837905236907734,0.016530573803218596,
0.04488778054862843,0.045539188638065844,
0.044937655860349125,0.030123007226015165,
0.04498753117206983,0.0032724742660050765,
0.045037406483790524,0.009951914016260078,
0.04508728179551122,0.018080572961415357,
0.04513715710723192,0.029478098359488145,
0.04518703241895262,0.025971946121893963,
0.04523690773067331,-0.006793928523987483,
0.045286783042394016,-0.005787995904641661,
0.04533665835411471,0.027410656868205308,
0.045386533665835414,0.022175417384468883,
0.04543640897755611,0.03368299096693067,
0.045486284289276806,0.009563535484665802,
0.04553615960099751,0.005214257074576038,
0.045586034912718204,0.002792211901669419,
0.0456359102244389,0.021294585106295994,
0.0456857855361596,0.03649486058527039,
0.0457356608478803,0.026034190486198476,
0.045785536159601,0.018662030574485088,
0.045835411471321696,-7.652835017912807e-05,
0.04588528678304239,0.02902059780343144,
0.045935162094763095,0.02318910540236759,
0.04598503740648379,0.03359481780305642,
0.046034912718204486,0.018218482734934777,
0.04608478802992519,0.01617016944079611,
0.046134663341645885,0.009096313747684652,
0.04618453865336658,0.014276218374261336,
0.04623441396508728,0.021962119617549868,
0.04628428927680798,0.026830826707404498,
0.04633416458852868,0.034186103351519524,
0.04638403990024938,0.045073376595815624,
0.04643391521197007,0.01517007651276714,
0.046483790523690775,0.03246098864117419,
0.04653366583541147,0.050118402032245116,
0.04658354114713217,0.023588556780151478,
0.04663341645885287,0.030586828623145393,
0.046683291770573565,0.03403196175689781,
0.04673316708229427,0.02099656206862379,
0.04678304239401496,0.026908920860684183,
0.04683291770573566,-0.01403864369553072,
0.04688279301745636,0.024334015581979975,
0.04693266832917706,0.040648649250536,
0.04698254364089775,0.026897384132034186,
0.047032418952618456,0.03494315455449089,
0.04708229426433915,0.01527408928366889,
0.04713216957605985,0.02499917250685038,
0.04718204488778055,0.016665993279749318,
0.047231920199501246,0.020647368129328835,
0.04728179551122195,0.02270968674061746,
0.047331670822942644,0.029102455026665794,
0.04738154613466334,0.01245567542445762,
0.04743142144638404,0.038699581168566345,
0.04748129675810474,0.011589460633359628,
0.047531172069825434,0.03438516400493459,
0.047581047381546136,0.01821252515665902,
0.04763092269326683,0.034525264741310416,
0.047680798004987535,0.03761867848295262,
0.04773067331670823,0.03342934689257869,
0.047780548628428926,0.022697048774699153,
0.04783042394014963,0.012371408186774716,
0.047880299251870324,0.0137616622167152,
0.04793017456359102,0.02073782094398465,
0.04798004987531172,0.04017072269613027,
0.04802992518703242,0.03176203721018636,
0.048079800498753114,0.03620851747775186,
0.04812967581047382,0.03158935591193844,
0.04817955112219451,-0.00047128979660864337,
0.048229426433915215,0.021770500419736955,
0.04827930174563591,0.046824167690976276,
0.048329177057356607,0.029864268191915084,
0.04837905236907731,0.016647760026420037,
0.048428927680798005,0.023842347863962027,
0.0484788029925187,0.0501040852245746,
0.0485286783042394,0.0038256169104013034,
0.0485785536159601,0.04301133298409612,
0.048628428927680795,0.02438745872402036,
0.0486783042394015,0.03394642497724941,
0.04872817955112219,0.012136956562842954,
0.048778054862842896,0.015105215599372323,
0.04882793017456359,0.020851670979271635,
0.04887780548628429,0.002771529549231447,
0.04892768079800499,0.019679507368852617,
0.048977556109725685,0.040109500804648576,
0.04902743142144638,0.00997476848700499,
0.049077306733167084,0.033487449600012535,
0.04912718204488778,0.022246725666665433,
0.04917705735660848,0.02086271374445171,
0.04922693266832918,0.020572385123198398,
0.04927680798004987,0.014844711881351854,
0.049326683291770576,0.019457798516428794,
0.04937655860349127,0.04497277356483648,
0.04942643391521197,0.009741789427209454,
0.04947630922693267,0.036742611307235225,
0.049526184538653366,0.06736306437012045,
0.04957605985037406,0.029719365548847403,
0.049625935162094764,0.024298650479833664,
0.04967581047381546,0.02572054454581998,
0.04972568578553616,0.039525399571024175,
0.04977556109725686,0.012935542316701031,
0.049825436408977554,0.0003701892067044209,
0.04987531172069826,0.03757900490133162,
0.04992518703241895,-0.004223750734865948,
0.04997506234413965,0.005509104443263751,
0.05002493765586035,0.020416237164059357,
0.050074812967581046,0.02409045029569317,
0.05012468827930175,0.002306902944390083,
0.050174563591022445,-0.010040423786835027,
0.05022443890274314,0.0012919351111981142,
0.05027431421446384,0.031537317885497795,
0.05032418952618454,0.02367118020847931,
0.050374064837905234,0.02339822680557483,
0.05042394014962594,0.020936469903671928,
0.05047381546134663,0.025806846208987995,
0.05052369077306733,0.0166760505768447,
0.05057356608478803,0.0009765901372404146,
0.05062344139650873,0.02675517806028747,
0.05067331670822943,0.005886283542717424,
0.050723192019950125,0.03068050256388069,
0.05077306733167082,-0.040435709060221633,
0.050822942643391524,0.00993801737946615,
0.05087281795511222,-0.0013024970266976212,
0.050922693266832915,0.020479271204083833,
0.05097256857855362,-0.01335803761396181,
0.05102244389027431,-0.007221274906037701,
0.051072319201995016,0.011876028806087475,
0.05112219451371571,-0.007458542850667682,
0.05117206982543641,0.023380639296779818,
0.05122194513715711,0.012128083600810241,
0.051271820448877806,0.05357109259172178,
0.0513216957605985,0.005572136578822032,
0.051371571072319204,-0.005142342591759393,
0.0514214463840399,0.008816521665805875,
0.051471321695760595,0.012359082877149444,
0.0515211970074813,0.0072275581085811495,
0.051571072319201994,-0.002632698067827911,
0.051620947630922696,0.002841005798639961,
0.05167082294264339,-0.005367244307972852,
0.05172069825436409,0.02398718875456459,
0.05177057356608479,0.01634764445093615,
0.051820448877805486,0.026433034946906603,
0.05187032418952618,0.022623871224803867,
0.051920199501246884,0.026894619582310892,
0.05197007481296758,0.00012818253004482066,
0.052019950124688276,0.004061043308424649,
0.05206982543640898,-0.0037054175594793595,
0.052119700748129674,0.010579970002200482,
0.05216957605985038,-0.0028233665936339873,
0.05221945137157107,-0.035479756636409364,
0.05226932668329177,-0.022230640140652506,
0.05231920199501247,0.024449871282820838,
0.05236907730673317,-0.016787125517128056,
0.05241895261845386,0.013825431634818787,
0.052468827930174565,0.015737795609908817,
0.05251870324189526,0.008040596964370468,
0.05256857855361596,-0.005141449553866486,
0.05261845386533666,0.05051665941880862,
0.052668329177057355,0.014324971453089268,
0.05271820448877806,0.025506487873415043,
0.05276807980049875,-3.9987122072710456e-05,
0.05281795511221945,0.005216018507840524,
0.05286783042394015,-0.012456389244793373,
0.05291770573566085,0.018414352259165167,
0.05296758104738154,-0.002794715967756671,
0.053017456359102245,-0.007351313705182125,
0.05306733167082294,-0.005543796095844749,
0.053117206982543644,-0.015262032131609534,
0.05316708229426434,0.005416474196863927,
0.053216957605985035,0.0014558705101068272,
0.05326683291770574,0.011836447280745763,
0.053316708229426434,0.009970814752128007,
0.05336658354114713,0.0026243523024537087,
0.05341645885286783,-0.013582189186677467,
0.05346633416458853,0.0017365980697205902,
0.05351620947630923,0.014422410977740448,
0.053566084788029926,0.01625376482419414,
0.05361596009975062,-0.00010652946455064335,
0.053665835411471324,-0.020113589051867956,
0.05371571072319202,0.007119460631023966,
0.053765586034912716,-0.026808618614629857,
0.05381546134663342,-0.03669818774634803,
0.053865336658354114,0.014958853834163613,
0.05391521197007481,0.007297436188519362,
0.05396508728179551,0.025943255131884092,
0.05401496259351621,-0.026989613819109283,
0.05406483790523691,-0.029007065754166544,
0.054114713216957606,-0.009675487114158941,
0.0541645885286783,-0.01917425429890558,
0.054214463840399005,0.007704952597614307,
0.0542643391521197,0.018475378800745065,
0.054314214463840396,-0.007615800684797878,
0.0543640897755611,0.0021593933748393947,
0.054413965087281795,0.01009944966577302,
0.0544638403990025,-0.023918916946812682,
0.05451371571072319,-0.008150439169616414,
0.05456359102244389,-0.00835077395408737,
0.05461346633416459,0.007511691011906255,
0.05466334164588529,-0.031171844898586806,
0.05471321695760598,0.0075430738720856545,
0.054763092269326685,-0.023098106269997483,
0.05481296758104738,0.005925060386371585,
0.05486284289276808,-0.018230661421847164,
0.05491271820448878,-0.02900131815135022,
0.054962593516209475,-0.014270129099065387,
0.05501246882793018,-0.019162499513550202,
0.05506234413965087,0.014895232250987767,
0.05511221945137157,0.01071372306027401,
0.05516209476309227,0.017103879926894845,
0.05521197007481297,-0.03329989141452683,
0.05526184538653366,0.008737425850689963,
0.055311720698254366,-0.017559351866962974,
0.05536159600997506,-0.005108453476993529,
0.05541147132169576,-0.017747801146081387,
0.05546134663341646,0.02200037597248484,
0.055511221945137156,-0.021294858357387203,
0.05556109725685786,-0.0003475725072446239,
0.055610972568578554,-0.039613755840580675,
0.05566084788029925,-0.02076891514414171,
0.05571072319201995,-0.029371473464065233,
0.05576059850374065,-0.03796536738741417,
0.055810473815461344,-0.01784719395426878,
0.055860349127182046,-0.010933782564951994,
0.05591022443890274,-0.0025143071073964827,
0.055960099750623445,-0.01649241851312755,
0.05600997506234414,0.006512969669276215,
0.056059850374064836,-0.010241311156157135,
0.05610972568578554,-0.01756196547262758,
0.056159600997506234,-0.030910560106832335,
0.05620947630922693,-0.03217399079563609,
0.05625935162094763,-0.004504653086701277,
0.05630922693266833,-0.021803838973502753,
0.056359102244389024,-0.026682144875345624,
0.05640897755610973,0.006716766047053964,
0.05645885286783042,-0.00899694030281593,
0.056508728179551125,-0.011049391136752542,
0.05655860349127182,-0.026629175713835235,
0.056608478802992516,-0.028679355515026837,
0.05665835411471322,-0.01205175988986276,
0.056708229426433915,-0.027484781484959635,
0.05675810473815461,-0.03905181715942911,
0.05680798004987531,-0.03309340365075379,
0.05685785536159601,-0.014951994549951293,
0.05690773067331671,-0.010047306912647394,
0.05695760598503741,-0.014469837911876126,
0.0570074812967581,-0.02365228623300602,
0.057057356608478806,-0.021874717587087547,
0.0571072319201995,-0.007864649382049215,
0.0571571072319202,-0.009965637479029503,
0.0572069825436409,-0.013236817521145494,
0.057256857855361595,-0.01984386158397558,
0.05730673316708229,-0.0070777684285108725,
0.057356608478802994,-0.025805682078087096,
0.05740648379052369,-0.01624441082709223,
0.05745635910224439,-0.024014975954655505,
0.05750623441396509,-0.03010891683960249,
0.05755610972568578,-0.020541777686224217,
0.057605985037406486,-0.03452565916874118,
0.05765586034912718,-0.010834082722151278,
0.05770573566084788,0.008595963142520313,
0.05775561097256858,-0.02540095987963159,
0.057805486284289276,-0.011147692411181936,
0.05785536159600998,0.010727853997496489,
0.057905236907730674,0.004469598757761921,
0.05795511221945137,-0.0074645914542669795,
0.05800498753117207,-0.011070700152092128,
0.05805486284289277,0.0013093034558913814,
0.058104738154613464,-0.005750899576649092,
0.05815461346633417,-0.02501470589990546,
0.05820448877805486,-0.02052937692148249,
0.05825436408977556,-0.03378495571580954,
0.05830423940149626,-0.018190319268287444,
0.058354114713216956,0.019692974406834176,
0.05840399002493766,-0.007476702190504136,
0.058453865336658355,-0.025191889748548985,
0.05850374064837905,-0.014869045394094178,
0.05855361596009975,-0.011733456269007852,
0.05860349127182045,-0.003333850899254939,
0.058653366583541144,-0.002887494835723446,
0.05870324189526185,-0.017478217232125344,
0.05875311720698254,-0.02382336949563072,
0.05880299251870324,-0.021285015529577792,
0.05885286783042394,-0.02790638937530776,
0.05890274314214464,-0.005821721091238735,
0.05895261845386534,0.0016780082998677191,
0.059002493765586035,-0.0025639758796132967,
0.05905236907730673,-0.01640124353818426,
0.059102244389027433,-0.01156901255663723,
0.05915211970074813,-0.016305184965300236,
0.059201995012468825,-0.02470442995485289,
0.05925187032418953,-0.0039656028722553395,
0.05930174563591022,-0.02049164786977753,
0.059351620947630926,-0.018669915216622292,
0.05940149625935162,-0.01165040942846217,
0.05945137157107232,-0.023622732781191258,
0.05950124688279302,-0.016697264974595033,
0.059551122194513716,-0.026658622583289222,
0.05960099750623441,0.01170950472476024,
0.059650872817955114,-0.030845707820328257,
0.05970074812967581,-0.012239590901230219,
0.059750623441396505,-0.017479130159229764,
0.05980049875311721,-0.020730903259124148,
0.059850374064837904,-0.02152465478019406,
0.059900249376558606,-0.026428794024548723,
0.0599501246882793,-0.008223291517386579,
0.06,-0.011145531532687745,
0.0600498753117207,-0.027836860674143052,
0.060099750623441396,-0.0156393939228539,
0.06014962593516209,0.00355247296752202,
0.060199501246882794,0.025899902855424917,
0.06024937655860349,-0.022046979532576415,
0.06029925187032419,-0.02079853111183221,
0.06034912718204489,0.02101609454051217,
0.060399002493765584,0.003331322122837191,
0.06044887780548629,-0.01105459343884272,
0.06049875311720698,-0.005181471089969725,
0.06054862842892768,-0.018358893994431153,
0.06059850374064838,-0.012705509820609868,
0.06064837905236908,-0.016811680764745467,
0.06069825436408977,-0.022953026794520857,
0.060748129675810475,-0.017419511547949865,
0.06079800498753117,-0.006734603062738868,
0.06084788029925187,-0.01077024509498341,
0.06089775561097257,-0.008765012766315144,
0.060947630922693265,-0.0010349515140945964,
0.06099750623441397,-0.01779681651742602,
0.06104738154613466,0.017631241205591338,
0.06109725685785536,-0.005962281494598251,
0.06114713216957606,0.007266757957471316,
0.06119700748129676,0.009009964609505974,
0.06124688279301746,0.00668699654631161,
0.061296758104738155,-0.0023779203837413845,
0.06134663341645885,-0.019370543799158344,
0.061396508728179554,-0.006031264412277289,
0.06144638403990025,-0.02776656712050255,
0.061496259351620945,-0.018342902580115776,
0.06154613466334165,0.011223827857548555,
0.061596009975062344,-0.004267698693717852,
0.06164588528678304,0.004354258764210247,
0.06169576059850374,0.021257416898985058,
0.06174563591022444,-0.002264234828597229,
0.06179551122194514,0.022575016723834496,
0.061845386533665836,-0.01706277939888995,
0.06189526184538653,0.02916335545740745,
0.061945137157107234,0.000548771170803639,
0.06199501246882793,0.011020877039125774,
0.062044887780548626,0.022245421870860357,
0.06209476309226933,-0.003875725961190808,
0.062144638403990024,0.01595652664548837,
0.06219451371571072,-0.008355530913514219,
0.06224438902743142,0.005252362198285132,
0.06229426433915212,0.004938864531142006,
0.06234413965087282,0.02492689304049957,
0.062394014962593516,-0.0015100699147984134,
0.06244389027431421,0.0198720921322256,
0.062493765586034915,-0.01645760095043022,
0.06254364089775562,0.008143019500469594,
0.06259351620947631,0.008841365163726238,
0.06264339152119701,0.008929007924872992,
0.0626932668329177,0.002321748539600422,
0.0627431421446384,-0.007227475177960941,
0.0627930174563591,-0.0072679605384896595,
0.0628428927680798,-0.015202060400297675,
0.0628927680798005,0.013930986781588389,
0.0629426433915212,0.024414122564564773,
0.06299251870324189,-0.0142418618617515,
0.06304239401496259,0.015908639162427483,
0.0630922693266833,0.017566246436569833,
0.063142144638404,0.03149306653076209,
0.06319201995012469,0.0001729023450979146,
0.06324189526184539,0.019339071340596568,
0.06329177057356608,-0.014957796257558687,
0.06334164588528678,0.0233793802987863,
0.06339152119700749,0.016828043420482434,
0.06344139650872818,-0.0017480474498233964,
0.06349127182044888,0.028824956425825863,
0.06354114713216957,0.02209156900182209,
0.06359102244389027,0.027360133591543143,
0.06364089775561098,0.025040789864458696,
0.06369077306733167,-0.01262311177487481,
0.06374064837905237,0.03798702645941171,
0.06379052369077307,0.002660354403687745,
0.06384039900249376,0.00038119148151488993,
0.06389027431421446,0.0027804279156049636,
0.06394014962593517,0.013564442029962211,
0.06399002493765586,0.023099717015191402,
0.06403990024937656,0.012957084259835367,
0.06408977556109725,0.013140888052339442,
0.06413965087281795,0.011387676123175367,
0.06418952618453866,0.02007907209190924,
0.06423940149625935,-0.0018112495355579426,
0.06428927680798005,0.005883890418677129,
0.06433915211970075,0.012222450057368304,
0.06438902743142144,0.014636176652335605,
0.06443890274314215,0.0014287613211469378,
0.06448877805486285,0.0026517752754554955,
0.06453865336658354,0.01876304233740723,
0.06458852867830424,0.015460513164901523,
0.06463840399002493,0.010290446676217514,
0.06468827930174563,0.018012108741523942,
0.06473815461346634,0.03087811008923979,
0.06478802992518704,0.03557739903919721,
0.06483790523690773,0.027612359789072637,
0.06488778054862843,0.04081662276356389,
0.06493765586034912,0.033212338226407415,
0.06498753117206983,0.03572965010026821,
0.06503740648379053,0.05760843814028846,
0.06508728179551122,0.010902176560658785,
0.06513715710723192,0.013970150183190106,
0.06518703241895261,0.03475063122980544,
0.06523690773067331,0.04507320527455555,
0.06528678304239402,0.03675895320106942,
0.06533665835411472,0.013093885570041935,
0.06538653366583541,0.007908042813672923,
0.06543640897755611,0.03838926621108639,
0.0654862842892768,0.035530350674934603,
0.06553615960099751,0.015281789197701467,
0.06558603491271821,0.0036609603961219005,
0.0656359102244389,0.020788948922997902,
0.0656857855361596,0.0317054226575116,
0.0657356608478803,0.022758445577874903,
0.06578553615960099,0.013942899288601606,
0.0658354114713217,0.019573227751426416,
0.0658852867830424,0.02297337930853971,
0.06593516209476309,0.056899958144248926,
0.06598503740648379,0.02769388164085401,
0.06603491271820448,0.0191688781935132,
0.06608478802992519,0.013368871475373216,
0.06613466334164589,0.019471442613358723,
0.06618453865336658,0.034225671440262326,
0.06623441396508728,0.014735217187642929,
0.06628428927680798,0.011462261862882765,
0.06633416458852869,0.05635168335987861,
0.06638403990024938,0.03670564217802731,
0.06643391521197008,0.010000378855718759,
0.06648379052369077,0.0031104741027360577,
0.06653366583541147,0.030902420330301314,
0.06658354114713216,0.013072952901574451,
0.06663341645885287,-0.0029317165026630856,
0.06668329177057357,0.009658672319270261,
0.06673316708229426,0.04332286815305977,
0.06678304239401496,0.0073983942598897234,
0.06683291770573566,0.0057501521069805855,
0.06688279301745637,-0.014641741684994096,
0.06693266832917706,0.03134673692611631,
0.06698254364089776,-0.02369422637456789,
0.06703241895261845,0.026429244475362035,
0.06708229426433915,0.013040268246181395,
0.06713216957605984,0.020921212637790825,
0.06718204488778055,0.019227845929834557,
0.06723192019950125,0.018747475911076776,
0.06728179551122195,0.03972600730906415,
0.06733167082294264,0.023837089889828616,
0.06738154613466334,-0.021706145796434397,
0.06743142144638405,-0.0003095248136248535,
0.06748129675810474,0.018916594944391553,
0.06753117206982544,0.01678142550045433,
0.06758104738154613,0.05111048913460847,
0.06763092269326683,0.01737967259553548,
0.06768079800498752,0.031794113196563584,
0.06773067331670823,0.0311396358024449,
0.06778054862842893,0.015639357318972202,
0.06783042394014963,0.027550344950964728,
0.06788029925187032,0.0148310647657499,
0.06793017456359102,0.01508193071245304,
0.06798004987531173,0.012618210727526632,
0.06802992518703242,0.023613826811584457,
0.06807980049875312,0.029929395861600268,
0.06812967581047381,0.04008214729517914,
0.06817955112219451,0.046328229833141416,
0.0682294264339152,0.03747479521705404,
0.06827930174563591,0.025961918869525712,
0.06832917705735661,0.031750284278231705,
0.0683790523690773,0.02824823284708983,
0.068428927680798,0.04223866551498367,
0.0684788029925187,0.05487494022866636,
0.06852867830423941,0.016340337288009845,
0.0685785536159601,0.03502016481331406,
0.0686284289276808,0.016057865353984326,
0.0686783042394015,0.029732907345635703,
0.06872817955112219,0.045282424189774635,
0.0687780548628429,0.010733748035465309,
0.0688279301745636,0.054652882382400264,
0.06887780548628429,0.033646089655268496,
0.06892768079800499,0.028186344036908135,
0.06897755610972568,0.014899469219220193,
0.06902743142144638,0.02379791545938224,
0.06907730673316709,0.03952974140709907,
0.06912718204488778,0.020048798813994993,
0.06917705735660848,0.03330761705106913,
0.06922693266832917,0.028968921381201343,
0.06927680798004987,0.004818437896053147,
0.06932668329177058,0.016647574106487012,
0.06937655860349128,0.013629000731920984,
0.06942643391521197,0.02694033658218606,
0.06947630922693267,0.04963309082550528,
0.06952618453865336,0.0022873901952090436,
0.06957605985037406,0.013907203271280517,
0.06962593516209477,0.009074623599856653,
0.06967581047381546,0.0028344407831420726,
0.06972568578553616,0.007984049093229209,
0.06977556109725686,-0.007945370279370988,
0.06982543640897755,0.0383824752269186,
0.06987531172069826,0.023045626896518696,
0.06992518703241896,0.01823160441378464,
0.06997506234413965,0.006551991592193255,
0.07002493765586035,0.01109266355315535,
0.07007481296758104,0.03185447840204689,
0.07012468827930174,0.005225661963392043,
0.07017456359102245,0.04521830795923399,
0.07022443890274314,-0.010828819968694062,
0.07027431421446384,0.01852626367074421,
0.07032418952618454,0.03198420073322966,
0.07037406483790523,0.03110602560486475,
0.07042394014962594,0.03925689470894968,
0.07047381546134664,0.022841320506292347,
0.07052369077306733,3.478814535007313e-05,
0.07057356608478803,0.005292203892034412,
0.07062344139650872,0.008989412639673728,
0.07067331670822943,0.030539437147763214,
0.07072319201995013,0.025971772943572682,
0.07077306733167082,0.003966837500435498,
0.07082294264339152,0.008249717618262216,
0.07087281795511222,0.0070234549065185115,
0.07092269326683291,0.011037383484667124,
0.07097256857855362,-0.0009984640093341005,
0.07102244389027432,0.009954049548770359,
0.07107231920199501,-0.0006301196667499748,
0.07112219451371571,0.013129123848178726,
0.0711720698254364,8.096248297355738e-06,
0.07122194513715711,0.02561799942636766,
0.07127182044887781,0.0008018319979556862,
0.0713216957605985,-0.0012403623808271893,
0.0713715710723192,0.029060660502298385,
0.0714214463840399,0.034069110017567225,
0.07147132169576059,0.038716422647115015,
0.0715211970074813,-0.010896466325556341,
0.071571072319202,0.007304335766281605,
0.0716209476309227,-0.005706359630380879,
0.07167082294264339,-0.0024880460704494786,
0.07172069825436408,0.016662821035105305,
0.0717705735660848,0.003722919726692841,
0.07182044887780549,0.021145339928472263,
0.07187032418952619,0.01562716199689422,
0.07192019950124688,0.007492621630296927,
0.07197007481296758,0.01501410523922483,
0.07201995012468827,0.015923976961584554,
0.07206982543640898,0.004850340728973842,
0.07211970074812968,-0.0035221243535060107,
0.07216957605985037,0.006754992904623548,
0.07221945137157107,-0.004240465953521785,
0.07226932668329177,0.0016106073195707874,
0.07231920199501247,-0.0008504827971553188,
0.07236907730673317,-0.013366218826435676,
0.07241895261845387,0.007539473761356245,
0.07246882793017456,0.013427391967603184,
0.07251870324189526,-0.0011987235985427003,
0.07256857855361595,0.003817352836021345,
0.07261845386533666,0.017676065639797206,
0.07266832917705736,0.006505104168250309,
0.07271820448877805,0.027759891075020388,
0.07276807980049875,0.01154247143951136,
0.07281795511221945,0.007400162216540787,
0.07286783042394016,0.0015216462121727926,
0.07291770573566085,-0.015764647031405423,
0.07296758104738155,-0.013568578910705321,
0.07301745635910224,0.006671131680613452,
0.07306733167082294,-0.01168036695420557,
0.07311720698254365,0.02922457492775561,
0.07316708229426434,0.015012927882876687,
0.07321695760598504,-0.010532079302726635,
0.07326683291770573,0.0090565800952798,
0.07331670822942643,0.014487693575840462,
0.07336658354114713,-0.011088312368531278,
0.07341645885286784,-0.0005841359085817935,
0.07346633416458853,-0.009112913373070226,
0.07351620947630923,-0.009234734028847325,
0.07356608478802992,0.0040778905343944105,
0.07361596009975062,-0.026074127814879788,
0.07366583541147133,-0.00965262186431565,
0.07371571072319202,-0.013068283323096876,
0.07376558603491272,0.0026999040818655434,
0.07381546134663342,-0.01582844441917401,
0.07386533665835411,-0.007815453040168157,
0.0739152119700748,-0.006938895704360067,
0.07396508728179552,0.014527160008639857,
0.07401496259351621,-0.018423085211720314,
0.07406483790523691,0.0004904253132419377,
0.0741147132169576,0.002320331331298624,
0.0741645885286783,-0.007141478652632219,
0.07421446384039901,-0.013882230069170498,
0.0742643391521197,0.008319168847392918,
0.0743142144638404,-0.011624390073998394,
0.0743640897755611,0.015401968211734578,
0.07441396508728179,-0.03959500343008155,
0.07446384039900249,-0.02039657139325833,
0.0745137157107232,-0.003976666342090859,
0.07456359102244389,0.014146791841991937,
0.07461346633416459,-0.014364731050246118,
0.07466334164588528,-0.026976378600712857,
0.07471321695760598,-0.010381931317398256,
0.07476309226932669,-0.017174984134560582,
0.07481296758104738,-0.02140450154785481,
0.07486284289276808,-0.024623072205011417,
0.07491271820448878,-0.0231446443434358,
0.07496259351620947,-0.006845753181613514,
0.07501246882793017,0.0017329760625888757,
0.07506234413965088,-0.017597849555304454,
0.07511221945137157,-0.0016985498863436059,
0.07516209476309227,0.011801003567633847,
0.07521197007481296,0.015228403513427947,
0.07526184538653366,-0.004851276576872583,
0.07531172069825437,-0.022719044200086032,
0.07536159600997507,-0.0043526374924103455,
0.07541147132169576,-0.008580659665432335,
0.07546134663341646,-0.008958050563380615,
0.07551122194513715,0.006788739856904053,
0.07556109725685786,0.012551967902218141,
0.07561097256857856,-0.015217758956875407,
0.07566084788029925,0.014983324901628044,
0.07571072319201995,0.003290129062961493,
0.07576059850374064,-0.02108529194900973,
0.07581047381546134,0.022179830409233048,
0.07586034912718205,-0.015185828441571167,
0.07591022443890275,-0.0022592507512915645,
0.07596009975062344,-0.026234869621888285,
0.07600997506234414,-0.021394415705028712,
0.07605985037406483,-0.040512869027892626,
0.07610972568578554,-0.023040323904559068,
0.07615960099750624,0.015263942361051521,
0.07620947630922693,-0.023143149224799785,
0.07625935162094763,-0.016057374214059117,
0.07630922693266833,-0.030979713243887257,
0.07635910224438902,-0.03679403076090882,
0.07640897755610973,-0.005998143821941883,
0.07645885286783043,-0.0045426314493071,
0.07650872817955112,-0.030652947816818897,
0.07655860349127182,-0.011679441563404528,
0.07660847880299251,-0.0031100881323713175,
0.07665835411471322,-0.03129404838739044,
0.07670822942643392,-0.020382599948277572,
0.07675810473815461,-0.02671065493046121,
0.07680798004987531,-0.0056114805597237815,
0.076857855361596,-0.007957195219517765,
0.0769077306733167,-0.00777922322148954,
0.07695760598503741,-0.04190631058106154,
0.0770074812967581,-0.026613575863629085,
0.0770573566084788,-0.022714718211403702,
0.0771072319201995,-0.019249222526820098,
0.0771571072319202,-0.008541434713970102,
0.0772069825436409,-0.029950512113032006,
0.0772568578553616,0.0007939619523559763,
0.0773067331670823,0.022903518781258247,
0.07735660847880299,0.007292936982106408,
0.07740648379052369,-0.03392348702689074,
0.0774563591022444,0.022073392458394757,
0.07750623441396509,-0.004632215748176013,
0.07755610972568579,-0.01755594352147206,
0.07760598503740648,0.0002858108180086305,
0.07765586034912718,-0.03571724584505191,
0.07770573566084787,0.02934973509498739,
0.07775561097256858,-0.05872050594465225,
0.07780548628428928,-0.011111386999530919,
0.07785536159600998,0.0008149735512699673,
0.07790523690773067,-0.010402025115644413,
0.07795511221945137,-0.025672851497709433,
0.07800498753117208,-0.00012808493041917106,
0.07805486284289277,-0.022506122812747276,
0.07810473815461347,-0.018929096967530243,
0.07815461346633416,-0.02342731793294917,
0.07820448877805486,0.0027154505745871846,
0.07825436408977555,-0.040602267419842804,
0.07830423940149626,0.003838660412302953,
0.07835411471321696,-0.0337681202272435,
0.07840399002493766,0.0012448281885745933,
0.07845386533665835,-0.022495351788124437,
0.07850374064837905,-0.0055988651003067175,
0.07855361596009976,0.007412421248708591,
0.07860349127182045,-0.009447272155241722,
0.07865336658354115,-0.00037328286522518225,
0.07870324189526184,0.005850946462960697,
0.07875311720698254,0.006636792558633191,
0.07880299251870324,-0.006114859301717663,
0.07885286783042394,-0.005586688936061003,
0.07890274314214464,-0.019593223643364247,
0.07895261845386534,-0.0409990868116403,
0.07900249376558603,-0.015721715466598903,
0.07905236907730673,0.006260882391942958,
0.07910224438902744,-0.02783997278970389,
0.07915211970074813,-0.009197623735557634,
0.07920199501246883,0.003279707020055046,
0.07925187032418952,-0.012790595858916828,
0.07930174563591022,-0.008662753856307654,
0.07935162094763092,-0.040112918588191306,
0.07940149625935163,0.017252342997594726,
0.07945137157107232,-0.028152590591561343,
0.07950124688279302,0.014293373144417778,
0.07955112219451371,-0.017439852245501528,
0.07960099750623441,-0.0032149714049892492,
0.07965087281795512,-0.0015546457592012647,
0.07970074812967581,0.011567519120580837,
0.07975062344139651,-0.018350523360845132,
0.0798004987531172,0.009623664367706017,
0.0798503740648379,0.0022416612388479664,
0.07990024937655861,0.002874827997119994,
0.0799501246882793,0.014972895356861962,
0.08,0.020763545101792975,
0.0800498753117207,-0.01636168588203893,
0.0800997506234414,-0.01600326908060093,
0.08014962593516209,-0.012288820860937189,
0.0801995012468828,-0.022292677836754024,
0.0802493765586035,-0.010258770825290925,
0.08029925187032419,-0.005916957996504118,
0.08034912718204489,-0.00613568858280026,
0.08039900249376558,0.009275837159535696,
0.08044887780548629,-0.02397823055556222,
0.08049875311720699,-0.008102089818363804,
0.08054862842892768,0.01654828185119469,
0.08059850374064838,-0.01611805965800613,
0.08064837905236907,0.002597925551829733,
0.08069825436408977,-0.0002494254147398789,
0.08074812967581048,0.00771621902428811,
0.08079800498753117,-0.03245299146064375,
0.08084788029925187,-0.02238657632629541,
0.08089775561097257,0.013054550057894356,
0.08094763092269326,-0.0018839137525297946,
0.08099750623441397,-0.004288805723670031,
0.08104738154613467,-0.020524460477865002,
0.08109725685785536,-0.02177899767282423,
0.08114713216957606,0.014510775844421404,
0.08119700748129675,0.0057735292228078255,
0.08124688279301745,0.009523095637933437,
0.08129675810473816,-0.01196300069958426,
0.08134663341645886,0.013638910993003881,
0.08139650872817955,0.009945958491467916,
0.08144638403990025,0.01861010834843383,
0.08149625935162094,-0.017150362063359834,
0.08154613466334165,0.0070264977104943765,
0.08159600997506235,0.005140544504036006,
0.08164588528678304,-0.006635132353848873,
0.08169576059850374,-0.018116245210981114,
0.08174563591022443,0.0025345104183167925,
0.08179551122194513,-0.0038613913724738673,
0.08184538653366584,0.016439867642425627,
0.08189526184538654,-0.022792333587516662,
0.08194513715710723,-0.0029555444207168833,
0.08199501246882793,0.018505345217203283,
0.08204488778054862,0.024961927082614663,
0.08209476309226933,0.00761059044578021,
0.08214463840399003,0.006822926864869241,
0.08219451371571072,-0.001870297039519903,
0.08224438902743142,0.013587029254903748,
0.08229426433915212,0.011724632561802756,
0.08234413965087282,0.009805726526154798,
0.08239401496259352,0.015039139630102644,
0.08244389027431422,-0.014607478827476136,
0.08249376558603491,0.0021062749151088056,
0.08254364089775561,-0.003728712583868584,
0.0825935162094763,-0.003329738195457078,
0.08264339152119701,0.011225419143487531,
0.08269326683291771,6.421684445342794e-05,
0.0827431421446384,0.0037495273248607823,
0.0827930174563591,0.018120189429621278,
0.0828428927680798,0.019368078354627616,
0.0828927680798005,0.024584028616221935,
0.0829426433915212,0.003452693077339669,
0.0829925187032419,0.013843173518349483,
0.08304239401496259,0.047016297676592815,
0.08309226932668329,0.021546182390572093,
0.08314214463840398,0.0031056694192467503,
0.0831920199501247,0.015456043714283834,
0.08324189526184539,-0.01847476045877908,
0.08329177057356608,0.00853978205785526,
0.08334164588528678,0.013127680761318152,
0.08339152119700748,0.027635324057397277,
0.08344139650872819,0.01595872517876921,
0.08349127182044888,0.01973031468172294,
0.08354114713216958,0.01316731947324062,
0.08359102244389027,0.02254013520926497,
0.08364089775561097,0.025615749244915942,
0.08369077306733166,0.005660649626832416,
0.08374064837905237,-0.0006868305936003332,
0.08379052369077307,0.008078642535786086,
0.08384039900249377,0.027805726881710277,
0.08389027431421446,0.007776234380067604,
0.08394014962593516,0.01807970030380405,
0.08399002493765587,0.01101535533580571,
0.08403990024937656,0.022660201060245362,
0.08408977556109726,0.0014031597647485398,
0.08413965087281795,0.01791027259380261,
0.08418952618453865,0.004770555508788731,
0.08423940149625936,0.0037359978788108032,
0.08428927680798005,-0.02740364290169955,
0.08433915211970075,0.046936326852197716,
0.08438902743142145,0.01059477290092856,
0.08443890274314214,0.02337547957678565,
0.08448877805486284,-0.006741025552454753,
0.08453865336658355,0.029434702731844536,
0.08458852867830424,0.029150328660786925,
0.08463840399002494,0.02523691874346668,
0.08468827930174563,0.03755799247667091,
0.08473815461346633,0.007738776324208095,
0.08478802992518704,0.003318463107048999,
0.08483790523690773,0.03442610495463468,
0.08488778054862843,0.018320526727217477,
0.08493765586034913,0.02736843443127403,
0.08498753117206982,0.0118217080327301,
0.08503740648379052,0.0018400449817526088,
0.08508728179551123,0.025534088732049102,
0.08513715710723192,0.011921895319440753,
0.08518703241895262,0.01901495349992831,
0.08523690773067331,0.02087773572170941,
0.08528678304239401,0.0009615358201352647,
0.08533665835411472,0.035816054009095384,
0.08538653366583542,0.027494753295076186,
0.08543640897755611,0.025877108771513058,
0.0854862842892768,0.01742344575202685,
0.0855361596009975,0.022778912857273098,
0.0855860349127182,0.02181818784765595,
0.08563591022443891,0.020383231068166245,
0.0856857855361596,0.0276514646119635,
0.0857356608478803,0.008976711341960406,
0.085785536159601,0.026455359484787826,
0.08583541147132169,0.014384664094397405,
0.0858852867830424,0.019097288862558754,
0.0859351620947631,0.01818939689081696,
0.08598503740648379,0.01755668827188437,
0.08603491271820449,0.011157380580159642,
0.08608478802992518,0.03961242136402598,
0.08613466334164588,0.032886958548330826,
0.08618453865336659,0.028598960788851876,
0.08623441396508728,0.037438456021890665,
0.08628428927680798,-0.003791936045558806,
0.08633416458852868,0.007428050021287623,
0.08638403990024937,0.036996788607755154,
0.08643391521197008,0.004514891693669629,
0.08648379052369078,-0.00260003463964582,
0.08653366583541147,0.04615270672607791,
0.08658354114713217,0.0426249158924393,
0.08663341645885286,0.024412316257233196,
0.08668329177057357,0.015367619865870352,
0.08673316708229427,0.04161596438049761,
0.08678304239401496,0.014031023371946564,
0.08683291770573566,0.044944007993733576,
0.08688279301745636,0.00844051937322559,
0.08693266832917705,-0.008371837263739485,
0.08698254364089776,0.009945837036160317,
0.08703241895261846,0.04235536221256543,
0.08708229426433915,0.032179568559870225,
0.08713216957605985,0.03410839879482422,
0.08718204488778054,0.03837594082019688,
0.08723192019950125,0.01962070550663863,
0.08728179551122195,0.018061001551418827,
0.08733167082294264,0.0029443650447225737,
0.08738154613466334,0.016644730709550193,
0.08743142144638404,0.017366031199360095,
0.08748129675810473,0.03342033272426905,
0.08753117206982544,0.00014107714823982306,
0.08758104738154614,0.009549505054187304,
0.08763092269326683,0.028333221125417463,
0.08768079800498753,0.03038450155116665,
0.08773067331670822,0.03665173252479009,
0.08778054862842893,0.022071844289580023,
0.08783042394014963,-0.007347108164846482,
0.08788029925187033,0.04045475976103122,
0.08793017456359102,0.02706394488098409,
0.08798004987531172,0.02351306143755979,
0.08802992518703241,0.02022597370646128,
0.08807980049875312,0.0377088569480927,
0.08812967581047382,0.018617373083716138,
0.08817955112219451,0.00580171230511739,
0.08822942643391521,0.029173328547463667,
0.0882793017456359,0.038723065943143745,
0.08832917705735661,-0.0061639586007959865,
0.08837905236907731,0.007908265449747338,
0.088428927680798,0.00847557468232885,
0.0884788029925187,0.018683571837106724,
0.0885286783042394,0.04528853540903456,
0.0885785536159601,0.030617591405489995,
0.0886284289276808,0.01541982131177373,
0.0886783042394015,0.024401865947671998,
0.0887281795511222,0.021274781238126338,
0.08877805486284289,0.011710935003132045,
0.08882793017456359,0.03751509272159054,
0.0888778054862843,0.03623532517890509,
0.08892768079800499,0.01858181487793242,
0.08897755610972569,0.04126143592048338,
0.08902743142144638,-0.007542395318758284,
0.08907730673316708,0.034400347659135924,
0.08912718204488779,0.017178402605146168,
0.08917705735660848,0.013353232251990279,
0.08922693266832918,-0.03020898041210163,
0.08927680798004987,0.024479348006481255,
0.08932668329177057,0.04532406508056694,
0.08937655860349127,0.031207828242356808,
0.08942643391521198,0.018799843993169835,
0.08947630922693267,0.02517355790366029,
0.08952618453865337,-0.0007423654567682049,
0.08957605985037406,0.043263083785182316,
0.08962593516209476,0.03701347891754052,
0.08967581047381547,0.0018578791352844917,
0.08972568578553616,0.01210911123814074,
0.08977556109725686,0.026886606966002778,
0.08982543640897755,0.011305510786291465,
0.08987531172069825,0.01912591216666771,
0.08992518703241895,0.032081304514766575,
0.08997506234413966,0.04975518149676672,
0.09002493765586035,-0.006716996650586497,
0.09007481296758105,0.007801252485252269,
0.09012468827930174,0.022129300570152298,
0.09017456359102244,0.01904095072244496,
0.09022443890274315,-0.00999507519259776,
0.09027431421446384,0.00787905459961761,
0.09032418952618454,0.0013224160428387671,
0.09037406483790524,0.030802400931186247,
0.09042394014962593,0.0331693802041389,
0.09047381546134663,0.018878015010729086,
0.09052369077306734,-0.003092532418897412,
0.09057356608478803,0.025826293692940414,
0.09062344139650873,-0.016335705474527465,
0.09067331670822942,0.039045797035811,
0.09072319201995012,0.009260103620036611,
0.09077306733167083,0.024174418962099153,
0.09082294264339152,0.030650367098284646,
0.09087281795511222,0.010601620868867342,
0.09092269326683292,0.028006563518420756,
0.09097256857855361,0.0008694386465182453,
0.09102244389027432,0.017618319834593797,
0.09107231920199502,0.024554239575195196,
0.09112219451371571,0.02999352840113992,
0.09117206982543641,-0.003737488317777999,
0.0912219451371571,-0.00651447728353028,
0.0912718204488778,0.004788465873122082,
0.09132169576059851,0.03023649151478437,
0.0913715710723192,0.02282200676223268,
0.0914214463840399,0.017733154239545877,
0.0914713216957606,0.0016289603115557123,
0.09152119700748129,-0.0006391802037110754,
0.091571072319202,-0.006567917984383449,
0.0916209476309227,0.02015578979230495,
0.09167082294264339,0.01968920034122412,
0.09172069825436409,0.016937562340161087,
0.09177057356608478,0.022445668963277134,
0.09182044887780548,0.02898492030990403,
0.09187032418952619,-0.005574509082680748,
0.09192019950124689,0.014568381106068971,
0.09197007481296758,0.02681155425163253,
0.09201995012468828,-0.0010593099780185373,
0.09206982543640897,0.015575012021448759,
0.09211970074812968,0.03115490000353173,
0.09216957605985038,0.027448477175512104,
0.09221945137157107,-0.01656281734349925,
0.09226932668329177,4.45468315942929e-05,
0.09231920199501246,-0.004633225435511378,
0.09236907730673316,-0.013505308744658873,
0.09241895261845387,0.014270163969228911,
0.09246882793017457,-0.026321400103023074,
0.09251870324189526,0.03275044143760876,
0.09256857855361596,0.017906287662494302,
0.09261845386533665,0.021862319990674853,
0.09266832917705736,0.0005678404594875704,
0.09271820448877806,0.006069143599049379,
0.09276807980049875,-0.02786113577479091,
0.09281795511221945,-0.005885418705402236,
0.09286783042394015,-0.006319802175703909,
0.09291770573566084,0.0064041937155499,
0.09296758104738155,0.00570572791918826,
0.09301745635910225,-0.015142184628895584,
0.09306733167082294,0.0053923332034310975,
0.09311720698254364,-0.005661608866315386,
0.09316708229426433,0.007832127408968707,
0.09321695760598504,-0.010001222276428998,
0.09326683291770574,0.0019092327971649632,
0.09331670822942643,-0.02002631784440109,
0.09336658354114713,-0.02703668262193636,
0.09341645885286783,0.03876583193594643,
0.09346633416458854,0.026163794853036063,
0.09351620947630923,-0.009465014401779473,
0.09356608478802993,0.021671006557047394,
0.09361596009975062,-0.009010588841698232,
0.09366583541147132,-0.005244415665270921,
0.09371571072319201,-0.021810669809437182,
0.09376558603491272,-0.012071550261900005,
0.09381546134663342,0.004965991468889007,
0.09386533665835411,-0.013385728078463142,
0.09391521197007481,-0.026412049394892882,
0.0939650872817955,0.013769101927894876,
0.09401496259351622,-0.018983220020219356,
0.09406483790523691,-0.0054555695878842,
0.09411471321695761,-0.000153659280844075,
0.0941645885286783,-0.018329023434197334,
0.094214463840399,0.02392028574596393,
0.0942643391521197,-0.016275345844079823,
0.0943142144638404,-0.02625358544604718,
0.0943640897755611,-0.021344120877233638,
0.0944139650872818,-0.020834498954314364,
0.09446384039900249,-0.020853161384416334,
0.09451371571072319,-0.020117132213055153,
0.0945635910224439,0.025926073754228583,
0.09461346633416459,-0.0027029596435232126,
0.09466334164588529,-0.00701971395890749,
0.09471321695760598,-0.005698408499547589,
0.09476309226932668,0.012910109438679575,
0.09481296758104737,-0.01402154343850391,
0.09486284289276808,-0.008031072772381943,
0.09491271820448878,0.006534695740981768,
0.09496259351620948,0.005840988796757525,
0.09501246882793017,-0.003963928261997504,
0.09506234413965087,-0.016704931771215674,
0.09511221945137158,-0.010062803671487475,
0.09516209476309227,-0.01945881454952377,
0.09521197007481297,0.0037185119585440678,
0.09526184538653366,0.006743880580057869,
0.09531172069825436,-0.009044273442163837,
0.09536159600997507,-0.003953976433996774,
0.09541147132169576,0.013564908777013001,
0.09546134663341646,-0.022105219359255197,
0.09551122194513716,-0.00508690995892932,
0.09556109725685785,-0.013984756613843184,
0.09561097256857855,0.01022307232552221,
0.09566084788029926,-0.014731051768046868,
0.09571072319201995,0.011289141658393545,
0.09576059850374065,-0.01934867745934079,
0.09581047381546134,-0.03042639396331311,
0.09586034912718204,-0.019575761787613583,
0.09591022443890275,-0.029067527184882,
0.09596009975062345,-0.010861058417084261,
0.09600997506234414,-0.025266367578735703,
0.09605985037406484,-0.017583273802865958,
0.09610972568578553,-0.0384060928272839,
0.09615960099750623,-0.014684184398445597,
0.09620947630922694,-0.03604337183866452,
0.09625935162094763,-0.026181081122924055,
0.09630922693266833,-0.0025188919355250833,
0.09635910224438902,-0.010239553724032768,
0.09640897755610972,-0.029494226642854796,
0.09645885286783043,0.006039525988215718,
0.09650872817955113,-0.008331749203796824,
0.09655860349127182,-0.0039025675787457796,
0.09660847880299252,-0.0210557296454042,
0.09665835411471321,-0.007409352059145249,
0.09670822942643391,-0.008643880105264944,
0.09675810473815462,-0.024998875062030385,
0.09680798004987531,-0.0027162790985485255,
0.09685785536159601,-0.009447282805721999,
0.0969077306733167,-0.007521103538042425,
0.0969576059850374,-0.014252752818049871,
0.09700748129675811,-0.022613079000404712,
0.0970573566084788,-0.01383912856991,
0.0971072319201995,-0.011090305516081027,
0.0971571072319202,-0.014414933691763936,
0.0972069825436409,-0.006468670449965513,
0.09725685785536159,0.0033772541337860756,
0.0973067331670823,0.009279131502187262,
0.097356608478803,-0.004732349413780623,
0.09740648379052369,-0.01956560005291206,
0.09745635910224439,-0.012659891341097025,
0.09750623441396508,-0.031188586610211136,
0.09755610972568579,-0.021709894276908177,
0.09760598503740649,-0.015444444336051334,
0.09765586034912718,-0.004329232635466454,
0.09770573566084788,-0.02590207751539568,
0.09775561097256857,-0.03212056848964718,
0.09780548628428928,-0.021095248455093214,
0.09785536159600998,-0.011261597724609732,
0.09790523690773068,-0.018830678891680924,
0.09795511221945137,-0.025700363686020168,
0.09800498753117207,-0.00744291240928411,
0.09805486284289276,-0.005846841115982267,
0.09810473815461347,-0.008629795169174427,
0.09815461346633417,0.009710089909548789,
0.09820448877805486,-0.003381080305423393,
0.09825436408977556,-0.028683336881939962,
0.09830423940149625,-0.02485466783677169,
0.09835411471321696,-0.010750486880926733,
0.09840399002493766,-0.01864907370114031,
0.09845386533665836,-0.025071035276171418,
0.09850374064837905,-0.00574201664698293,
0.09855361596009975,-0.016356266601418402,
0.09860349127182044,-0.017673133047010257,
0.09865336658354115,0.015004025100805705,
0.09870324189526185,-0.02497358901232984,
0.09875311720698254,-0.020918308688425015,
0.09880299251870324,-0.020647077927745304,
0.09885286783042393,-0.011358539799773644,
0.09890274314214464,-0.029298736881852666,
0.09895261845386534,-0.0019877139607531596,
0.09900249376558604,-0.008918295445909254,
0.09905236907730673,-0.023001273314315295,
0.09910224438902743,-0.006775155097346331,
0.09915211970074812,0.0014350155191555393,
0.09920199501246883,0.004603255284693426,
0.09925187032418953,-0.005532905795093067,
0.09930174563591022,0.0006008619070491696,
0.09935162094763092,0.00882918424379107,
0.09940149625935162,-0.02288338089980462,
0.09945137157107233,-0.016865695980252955,
0.09950124688279302,-0.004525177003673947,
0.09955112219451372,-0.01654845592119656,
0.09960099750623441,-0.014146212199453712,
0.09965087281795511,-0.021637337543282852,
0.0997007481296758,-0.017212298514367178,
0.09975062344139651,0.008762160993704561,
0.09980049875311721,-0.017791915539320424,
0.0998503740648379,-0.005874282580669468,
0.0999002493765586,0.005159204119329734,
0.0999501246882793,-0.018901536301044415,
0.1,-0.02031352402363495,
0.1000498753117207,0.008075050669933786,
0.1000997506234414,-0.007960277215123277,
0.10014962593516209,-0.004950369007248833,
0.10019950124688279,0.01206886102456815,
0.1002493765586035,-0.019305111362063747,
0.1002992518703242,-0.01723869755290817,
0.10034912718204489,0.014891158177364782,
0.10039900249376559,-0.0012683188951179837,
0.10044887780548628,-0.00827905020455547,
0.10049875311720698,-0.00030529015819552195,
0.10054862842892769,-0.015809818003669894,
0.10059850374064838,-0.005870131365841497,
0.10064837905236908,-0.003561191455385788,
0.10069825436408977,0.0014907026259619186,
0.10074812967581047,0.00930538644174187,
0.10079800498753118,-0.012785266830426334,
0.10084788029925187,-0.000868856776093741,
0.10089775561097257,0.0034177421700995704,
0.10094763092269327,0.02216734930134888,
0.10099750623441396,-0.0003773707466614771,
0.10104738154613466,-0.02945142860189354,
0.10109725685785537,-0.005011787207235436,
0.10114713216957606,-0.004873743283889619,
0.10119700748129676,0.007310329183745328,
0.10124688279301745,-0.01923237136810097,
0.10129675810473815,-0.0025332162904606794,
0.10134663341645886,0.011221766066553958,
0.10139650872817955,-0.005484393105844939,
0.10144638403990025,-0.017170828663017786,
0.10149625935162095,-0.014762596053972933,
0.10154613466334164,0.007335339883609813,
0.10159600997506234,0.005488590565676361,
0.10164588528678305,0.0008469028714361772,
0.10169576059850374,0.0024195961962278152,
0.10174563591022444,0.011883464801823115,
0.10179551122194513,0.007423322512945465,
0.10184538653366583,0.007955937620479733,
0.10189526184538654,0.017084158437584276,
0.10194513715710724,0.016010202761733067,
0.10199501246882793,0.00417089289238321,
0.10204488778054863,-0.016016143732694076,
0.10209476309226932,-0.012954550424829948,
0.10214463840399003,-0.002772471299748138,
0.10219451371571073,0.01699047671034812,
0.10224438902743142,-0.001474637709230761,
0.10229426433915212,-0.007501392239655558,
0.10234413965087281,-0.005630608844945461,
0.10239401496259351,0.011546104581082422,
0.10244389027431422,0.01535581681134492,
0.10249376558603492,0.016221049631475897,
0.10254364089775561,0.0032875704573450334,
0.10259351620947631,0.007000647089956237,
0.102643391521197,0.01579596950843941,
0.10269326683291771,0.019888710779589147,
0.10274314214463841,-0.02421945291587224,
0.1027930174563591,0.024338103500412385,
0.1028428927680798,-0.0013740289192405459,
0.1028927680798005,0.0056110598046584526,
0.10294264339152119,-0.0005086408390389055,
0.1029925187032419,0.013488501042271417,
0.1030423940149626,0.0034625967807325984,
0.10309226932668329,0.0019868528004761844,
0.10314214463840399,0.006344706851463405,
0.10319201995012468,0.018754843417458054,
0.10324189526184539,-0.030814031899367076,
0.10329177057356609,0.0132818165448562,
0.10334164588528678,0.023618794839376754,
0.10339152119700748,0.01593043801540485,
0.10344139650872818,0.01835385326053921,
0.10349127182044887,0.028465860958350322,
0.10354114713216958,0.027437426041324334,
0.10359102244389028,0.000535428845353101,
0.10364089775561097,0.004264208965204949,
0.10369077306733167,0.009236318400361033,
0.10374064837905236,0.017319976192580928,
0.10379052369077307,0.0198168773574224,
0.10384039900249377,0.009147018096995925,
0.10389027431421446,-0.0029450988031189743,
0.10394014962593516,-0.0010689113264846124,
0.10399002493765586,0.015773670096373794,
0.10403990024937655,0.034071268896527354,
0.10408977556109726,0.04149950906828845,
0.10413965087281796,-0.01283801330906658,
0.10418952618453865,0.02257637069389517,
0.10423940149625935,0.005821148220711201,
0.10428927680798004,0.011791514346369578,
0.10433915211970075,0.02058538186494851,
0.10438902743142145,0.05456877332842884,
0.10443890274314215,-0.0017928451141186116,
0.10448877805486284,0.017064742559113704,
0.10453865336658354,0.017570344592241,
0.10458852867830425,0.002262600523656521,
0.10463840399002494,0.025022106266191634,
0.10468827930174564,0.01695561004572515,
0.10473815461346633,0.029585664662942636,
0.10478802992518703,0.04837957285971388,
0.10483790523690772,0.010817843465461018,
0.10488778054862843,1.012247198187502e-05,
0.10493765586034913,0.04646517446575666,
0.10498753117206983,0.02868144725557464,
0.10503740648379052,0.014746765928346985,
0.10508728179551122,0.026809827299161412,
0.10513715710723193,0.01630446605103036,
0.10518703241895262,0.02227992697287204,
0.10523690773067332,0.03378788336528406,
0.10528678304239401,0.03662033610981697,
0.10533665835411471,0.009002529225338798,
0.1053865336658354,0.04401344600439504,
0.10543640897755611,0.008975804590319807,
0.10548628428927681,0.006726568220820399,
0.1055361596009975,0.03613706317683982,
0.1055860349127182,0.0376237736261603,
0.1056359102244389,0.007395663566210353,
0.10568578553615961,0.009932177395512816,
0.1057356608478803,0.021965331340504726,
0.105785536159601,0.053405357779653884,
0.1058354114713217,0.01743470995791216,
0.10588528678304239,0.003958324346686682,
0.10593516209476309,0.0009415727010660575,
0.1059850374064838,0.040253689426267836,
0.10603491271820449,0.033166036643185244,
0.10608478802992519,0.008738927057174665,
0.10613466334164588,0.0045979431863568294,
0.10618453865336658,0.009883296027626592,
0.10623441396508729,0.011338390202303737,
0.10628428927680798,0.0073670639653539115,
0.10633416458852868,0.017859018093870797,
0.10638403990024937,0.03914138173211826,
0.10643391521197007,0.01923883341691373,
0.10648379052369077,0.014928549554905243,
0.10653366583541148,0.0310274316176605,
0.10658354114713217,0.02989503270225143,
0.10663341645885287,0.0330981718034808,
0.10668329177057356,0.05373341550628731,
0.10673316708229426,0.03633040928258146,
0.10678304239401497,0.02086025891254908,
0.10683291770573566,0.009279733317791153,
0.10688279301745636,0.05079831692272303,
0.10693266832917706,0.04882846598862973,
0.10698254364089775,0.04535403390017676,
0.10703241895261846,0.007605637397235049,
0.10708229426433916,0.027211322527265124,
0.10713216957605985,0.03241921367207036,
0.10718204488778055,0.04682667890603105,
0.10723192019950124,0.0687204448172988,
0.10728179551122194,0.016458833764732665,
0.10733167082294265,0.024168119844533615,
0.10738154613466334,0.039459562022452,
0.10743142144638404,0.0387421987183273,
0.10748129675810474,0.014016680535033722,
0.10753117206982543,0.053194686923952864,
0.10758104738154614,0.026979202296600415,
0.10763092269326684,0.03597400576135818,
0.10768079800498753,0.030536207332555514,
0.10773067331670823,0.01574557965834912,
0.10778054862842892,0.009069270841636026,
0.10783042394014962,0.02793427082271606,
0.10788029925187033,0.02251577815273829,
0.10793017456359102,0.03110065586218618,
0.10798004987531172,0.02888161532863035,
0.10802992518703242,0.005097798573704959,
0.10807980049875311,0.013259568537997007,
0.10812967581047382,0.02904261679442761,
0.10817955112219452,0.044459997683518736,
0.10822942643391521,0.04605919140210697,
0.10827930174563591,0.017311550434200393,
0.1083291770573566,0.013159655475147646,
0.1083790523690773,0.03574028853213984,
0.10842892768079801,0.06491639496542895,
0.1084788029925187,0.050375833471055176,
0.1085286783042394,0.01967082524644482,
0.1085785536159601,0.025482216711753786,
0.10862842892768079,0.027883101744961548,
0.1086783042394015,0.019272658338585578,
0.1087281795511222,0.03839817899605339,
0.1087780548628429,0.01969821318132573,
0.10882793017456359,0.02629813566286035,
0.10887780548628428,0.005213297629168032,
0.108927680798005,0.05456277309213499,
0.10897755610972569,0.018297404913443248,
0.10902743142144639,0.026496176999268248,
0.10907730673316708,0.029588240197414656,
0.10912718204488778,0.02264770947515786,
0.10917705735660847,0.027767320552289188,
0.10922693266832918,0.03098096147443129,
0.10927680798004988,0.03148269317049583,
0.10932668329177057,0.02381568554480522,
0.10937655860349127,0.03773461368279731,
0.10942643391521197,0.0026267852524228877,
0.10947630922693267,0.02026628260981365,
0.10952618453865337,0.024349556914626688,
0.10957605985037407,0.006299189668850777,
0.10962593516209476,0.012147701074199792,
0.10967581047381546,0.016525636393187774,
0.10972568578553615,0.01830680919109863,
0.10977556109725686,0.01125469192030495,
0.10982543640897756,0.0024816331541913338,
0.10987531172069825,0.007823756878112093,
0.10992518703241895,0.02942623899382366,
0.10997506234413965,0.0031457615005854728,
0.11002493765586036,0.008533478864900334,
0.11007481296758105,0.017165147541576144,
0.11012468827930175,0.05406803313564265,
0.11017456359102244,0.024091436612071512,
0.11022443890274314,-0.00019297703251290946,
0.11027431421446383,0.03182293143119495,
0.11032418952618454,0.016637234690145983,
0.11037406483790524,0.026297177134051893,
0.11042394014962593,0.0278176800044508,
0.11047381546134663,-0.001501176623324222,
0.11052369077306733,0.020558831238987975,
0.11057356608478804,0.01360777388868302,
0.11062344139650873,-0.0028443851728434597,
0.11067331670822943,0.027050235784388494,
0.11072319201995012,0.034873239622807015,
0.11077306733167082,0.03529105733401183,
0.11082294264339151,0.03763429552818527,
0.11087281795511222,0.04543475365218071,
0.11092269326683292,0.029808492033270288,
0.11097256857855362,0.0019145198967071009,
0.11102244389027431,-0.0029192802123372066,
0.111072319201995,-0.002530658214023776,
0.11112219451371572,0.026158150092612704,
0.11117206982543641,-0.007946285217760383,
0.11122194513715711,0.009437773398716444,
0.1112718204488778,0.005179537204315682,
0.1113216957605985,0.023799146676755804,
0.11137157107231921,0.03406570076690209,
0.1114214463840399,0.01954633671487378,
0.1114713216957606,0.0017142507675022341,
0.1115211970074813,0.022204278435237174,
0.11157107231920199,0.033115532080972496,
0.11162094763092269,0.004627704812484236,
0.1116708229426434,0.02324914003317291,
0.11172069825436409,0.01486673303706208,
0.11177057356608479,0.027357425816965424,
0.11182044887780548,0.011170359778464728,
0.11187032418952618,0.0031846259466933,
0.11192019950124689,0.016724416016185704,
0.11197007481296758,0.002111455886594898,
0.11201995012468828,-0.001372472545420795,
0.11206982543640898,0.02728584383924479,
0.11211970074812967,0.016165716906925434,
0.11216957605985037,0.015306105007728894,
0.11221945137157108,-0.01546497626035318,
0.11226932668329177,0.031918449958643236,
0.11231920199501247,-0.0251068543603018,
0.11236907730673316,0.01782349854324428,
0.11241895261845386,0.01005476190617468,
0.11246882793017457,0.00850600419108932,
0.11251870324189527,0.0013491964254364244,
0.11256857855361596,0.019471071110722802,
0.11261845386533666,0.002576536461226261,
0.11266832917705735,-0.013039827969865192,
0.11271820448877805,0.0011919808974336261,
0.11276807980049876,0.0009236940380109694,
0.11281795511221945,0.004072942294021988,
0.11286783042394015,-0.01767317275479306,
0.11291770573566084,0.013348111550046813,
0.11296758104738154,-0.016120623954160973,
0.11301745635910225,-0.010019984922636886,
0.11306733167082295,0.008437344142786001,
0.11311720698254364,0.016715353706985757,
0.11316708229426434,-0.00714758056679379,
0.11321695760598503,-0.009608881415168863,
0.11326683291770574,-0.021181230790319618,
0.11331670822942644,-0.0183638165421098,
0.11336658354114713,0.0011324549386765301,
0.11341645885286783,0.033551852102560245,
0.11346633416458853,0.014026448312425393,
0.11351620947630922,-0.02237509171242127,
0.11356608478802993,0.006080357575339143,
0.11361596009975063,0.03006847026472133,
0.11366583541147132,-0.005876550906639133,
0.11371571072319202,0.02451113666290539,
0.11376558603491271,0.008459024455411565,
0.11381546134663342,-0.03114181226590844,
0.11386533665835412,0.01918463825766198,
0.11391521197007481,-0.014654065397424336,
0.11396508728179551,-0.014193060949460231,
0.1140149625935162,0.009078426884132157,
0.1140648379052369,-0.010467487432668164,
0.11411471321695761,0.011427822992150144,
0.1141645885286783,0.0058755802521691155,
0.114214463840399,0.011427731343383193,
0.1142643391521197,-0.000702580760862818,
0.1143142144638404,-0.006962664730955436,
0.1143640897755611,0.009880500647695295,
0.1144139650872818,-0.002064431054721944,
0.1144638403990025,0.0006063652662571667,
0.11451371571072319,-0.006939565260587907,
0.11456359102244389,-0.013581018230169424,
0.11461346633416458,-0.013848444486510536,
0.11466334164588529,-0.010065535460974454,
0.11471321695760599,-0.00039834532542843814,
0.11476309226932668,0.007999910668898696,
0.11481296758104738,-0.01138497524103519,
0.11486284289276807,-0.007069705240528701,
0.11491271820448878,-0.0227296696354278,
0.11496259351620948,-0.023166278820092687,
0.11501246882793018,-0.04209670850449281,
0.11506234413965087,-0.020026401592020557,
0.11511221945137157,-0.03042502471505195,
0.11516209476309226,0.004530924662123747,
0.11521197007481297,0.0313548699230815,
0.11526184538653367,0.005495402335201427,
0.11531172069825436,-0.03782544938174325,
0.11536159600997506,-0.017565683869209717,
0.11541147132169575,0.055012042143075375,
0.11546134663341646,-0.01968889379263127,
0.11551122194513716,-0.01323964477760784,
0.11556109725685786,-0.014709723704578292,
0.11561097256857855,0.0006110679141626205,
0.11566084788029925,-0.016277623687682326,
0.11571072319201996,-0.018734753740543557,
0.11576059850374065,-0.015565247808800104,
0.11581047381546135,-0.0022288481513231366,
0.11586034912718204,0.00114942201409211,
0.11591022443890274,-0.007356384254176728,
0.11596009975062344,0.0044057375374451715,
0.11600997506234415,-0.0070106916093626,
0.11605985037406484,-0.005849711498728627,
0.11610972568578554,-0.022888421733423744,
0.11615960099750623,-0.002794575620642825,
0.11620947630922693,-0.02570112689866416,
0.11625935162094764,-0.01493495182942629,
0.11630922693266833,-0.014251697831270319,
0.11635910224438903,0.006468425024269192,
0.11640897755610972,-0.019892064818986345,
0.11645885286783042,-0.009655625219019862,
0.11650872817955112,0.02208607781740648,
0.11655860349127183,-0.02203166985501251,
0.11660847880299252,0.011514451170653252,
0.11665835411471322,0.006743373836940731,
0.11670822942643391,-0.020092555589103663,
0.11675810473815461,-0.005850650390168834,
0.11680798004987532,-0.020507793189056017,
0.11685785536159601,-0.04180211090131304,
0.11690773067331671,0.007417913558992547,
0.1169576059850374,0.0022617125681728273,
0.1170074812967581,-0.013753672717946124,
0.1170573566084788,0.0032665871597268425,
0.1171072319201995,-0.0316930011912918,
0.1171571072319202,0.011850042400293383,
0.1172069825436409,-0.017189966538140453,
0.1172568578553616,-0.006904517137725369,
0.11730673316708229,-0.02423344273072276,
0.117356608478803,0.000750937108991186,
0.1174064837905237,0.02686572003636626,
0.11745635910224439,0.0064083542496239515,
0.11750623441396509,-0.014798547770877662,
0.11755610972568578,0.0018681873038444013,
0.11760598503740648,-0.01898197462187102,
0.11765586034912719,-0.0015463678654809264,
0.11770573566084788,0.000683941072101393,
0.11775561097256858,-0.008762035543750183,
0.11780548628428927,-0.03569445258177695,
0.11785536159600997,-0.014619010728803354,
0.11790523690773068,-0.006851703596552443,
0.11795511221945137,-0.013937186299954834,
0.11800498753117207,-0.04111411675493504,
0.11805486284289277,-0.025436740144719278,
0.11810473815461346,-0.017110319829063886,
0.11815461346633417,-0.01815438605641569,
0.11820448877805487,-0.0019798394326468356,
0.11825436408977556,-0.008293799670484516,
0.11830423940149626,0.0014937045431778293,
0.11835411471321695,-0.017583261102990015,
0.11840399002493765,-0.011504146537792914,
0.11845386533665836,-0.008358432803877025,
0.11850374064837906,-0.0036470887994118333,
0.11855361596009975,-0.021359000279632584,
0.11860349127182045,-0.001160860628755445,
0.11865336658354114,-0.011685015679825404,
0.11870324189526185,-0.018485973399131446,
0.11875311720698255,-0.01431493842504833,
0.11880299251870324,-0.04398501209373137,
0.11885286783042394,-0.025851840335477806,
0.11890274314214463,-0.01205951883067679,
0.11895261845386533,-0.004103122133575601,
0.11900249376558604,-0.010220661418846404,
0.11905236907730674,-0.014424117077290577,
0.11910224438902743,-0.009786486197968824,
0.11915211970074813,0.010580141929977693,
0.11920199501246882,0.005637661322442108,
0.11925187032418953,-0.014791458858706554,
0.11930174563591023,-0.00124569569174074,
0.11935162094763092,-0.011731086839739405,
0.11940149625935162,-0.0023281285799739886,
0.11945137157107232,-0.017982324962805437,
0.11950124688279301,-0.0006488152935117172,
0.11955112219451372,-0.013604771853359138,
0.11960099750623442,0.00666771744578693,
0.11965087281795511,-0.020843596308766515,
0.11970074812967581,0.022700172970462625,
0.1197506234413965,-0.014920787563899217,
0.11980049875311721,0.022038228172269227,
0.11985037406483791,-0.005520343245195096,
0.1199002493765586,-0.0031018408675373434,
0.1199501246882793,-0.02012709316375206,
0.12,-0.0065885108268308335,
0.1200498753117207,-0.0149253572301929,
0.1200997506234414,0.0029899511583630634,
0.1201496259351621,-0.01652793356414394,
0.12019950124688279,0.0001310457465780357,
0.12024937655860349,0.018350355980338538,
0.12029925187032418,-0.025443999268922702,
0.1203491271820449,0.004353682634746267,
0.12039900249376559,-0.0060804650278404645,
0.12044887780548628,0.011116480884549994,
0.12049875311720698,-0.008847342748371904,
0.12054862842892768,-0.018036726288559787,
0.12059850374064839,-0.03117092096934081,
0.12064837905236908,0.004949423865269392,
0.12069825436408978,-0.0006295842447561959,
0.12074812967581047,-0.007492718784999434,
0.12079800498753117,-0.016716424668042865,
0.12084788029925186,-0.024264645854035816,
0.12089775561097257,-0.008032290281869692,
0.12094763092269327,0.010265040043534441,
0.12099750623441397,-0.02094420681918583,
0.12104738154613466,0.012390137105591191,
0.12109725685785536,0.02062315233919327,
0.12114713216957607,-0.006591529518842885,
0.12119700748129676,-0.002614858862545027,
0.12124688279301746,0.0045618742903227386,
0.12129675810473815,0.0014953362498781545,
0.12134663341645885,-0.00481400343850351,
0.12139650872817954,-0.009533415807992319,
0.12144638403990025,0.04645381458587476,
0.12149625935162095,-0.0033389137519114747,
0.12154613466334165,0.018022898081076842,
0.12159600997506234,0.00984278356764849,
0.12164588528678304,0.003179612057547671,
0.12169576059850375,0.030522195805086434,
0.12174563591022444,-0.006319759394421818,
0.12179551122194514,0.0032613728473301624,
0.12184538653366583,0.01913557877965632,
0.12189526184538653,-0.00665596872792664,
0.12194513715710723,0.013963707904716592,
0.12199501246882793,-0.020189470302869023,
0.12204488778054863,-0.007836994255132014,
0.12209476309226933,-0.009677091441396246,
0.12214463840399002,0.017469840171015095,
0.12219451371571072,0.009253430554746195,
0.12224438902743143,-0.01442917865428167,
0.12229426433915212,0.0024712310472271327,
0.12234413965087282,0.02048136064206917,
0.12239401496259351,0.01437443416066276,
0.12244389027431421,0.00010833992072539246,
0.12249376558603492,-0.0033596701364619896,
0.12254364089775562,-0.0009849784393912778,
0.12259351620947631,0.01909649595860643,
0.122643391521197,0.016766815683089444,
0.1226932668329177,-0.01787693324242819,
0.1227431421446384,-0.0061171947480142975,
0.12279301745635911,0.021927587103625964,
0.1228428927680798,0.014221740701675157,
0.1228927680798005,0.022051730491452363,
0.1229426433915212,0.0008561584409952985,
0.12299251870324189,0.01486411979740095,
0.1230423940149626,0.026054683269961895,
0.1230922693266833,0.018864728661319594,
0.12314214463840399,0.021469546628847883,
0.12319201995012469,0.01947147889364491,
0.12324189526184538,0.015027133163339071,
0.12329177057356608,0.029140482125989173,
0.12334164588528679,0.009859911383835858,
0.12339152119700748,0.014096658816397458,
0.12344139650872818,0.04245141713791474,
0.12349127182044888,-0.008494586585404185,
0.12354114713216957,0.026909755284282737,
0.12359102244389028,0.026804427298495845,
0.12364089775561098,-0.009801607956328572,
0.12369077306733167,0.0069868996531175665,
0.12374064837905237,-0.027015390484250057,
0.12379052369077306,0.020675613288346176,
0.12384039900249376,0.024853362417184346,
0.12389027431421447,0.03905109273226505,
0.12394014962593516,0.039728632947668555,
0.12399002493765586,0.0007815534915979715,
0.12403990024937656,0.028043416080791413,
0.12408977556109725,0.022123176678753267,
0.12413965087281796,0.012379466184092148,
0.12418952618453866,0.014648825703296602,
0.12423940149625935,0.004986648679103338,
0.12428927680798005,0.004583770574023795,
0.12433915211970074,0.005690757809258009,
0.12438902743142144,0.013121800690256329,
0.12443890274314215,0.016648249229517385,
0.12448877805486284,0.024577304035408254,
0.12453865336658354,0.011424116906338447,
0.12458852867830424,-0.0002449996465524948,
0.12463840399002493,0.0356743117621688,
0.12468827930174564,0.03168110250452892,
0.12473815461346634,0.019606445983816733,
0.12478802992518703,-0.016811978847959416,
0.12483790523690773,0.04130547952001104,
0.12488778054862842,0.05826567349092234,
0.12493765586034913,0.03529580785909489,
0.12498753117206983,0.04055331140785211,
0.12503740648379053,0.021182175020552734,
0.12508728179551123,0.0232575936191294,
0.12513715710723192,0.04847194676351956,
0.12518703241895263,0.010368758098298214,
0.1252369077306733,0.010711953569991786,
0.12528678304239402,0.011974366060357374,
0.1253366583541147,0.03083041868046897,
0.1253865336658354,0.04850552343244574,
0.12543640897755612,0.04194527336386389,
0.1254862842892768,0.019115817194825385,
0.1255361596009975,0.007153872101828676,
0.1255860349127182,0.03583789127003949,
0.1256359102244389,0.037396948591259756,
0.1256857855361596,0.05665663670425622,
0.1257356608478803,0.029048723195357357,
0.125785536159601,0.019336417174682277,
0.12583541147132168,0.041055017085724885,
0.1258852867830424,0.024378016378805614,
0.1259351620947631,0.05980387435090988,
0.12598503740648379,0.038753598804440265,
0.1260349127182045,0.039988892599676,
0.12608478802992518,0.022727889846475238,
0.1261346633416459,0.013619605460950385,
0.1261845386533666,0.04308633812837603,
0.12623441396508728,0.0044095555035248285,
0.126284289276808,0.014570736024115285,
0.12633416458852867,0.008293097014494908,
0.12638403990024938,0.038838485543956636,
0.1264339152119701,0.0032820525163717307,
0.12648379052369077,-0.005232413838221504,
0.12653366583541148,0.023054672112063076,
0.12658354114713216,0.029344535649066972,
0.12663341645885287,0.04457674718652867,
0.12668329177057355,-0.013649450928857346,
0.12673316708229426,0.04781113280586561,
0.12678304239401497,0.037544446684742,
0.12683291770573565,0.03531774115570237,
0.12688279301745636,0.03465651412372608,
0.12693266832917705,0.026802309522203617,
0.12698254364089775,0.009626741124559052,
0.12703241895261846,0.04473716103806833,
0.12708229426433915,0.037635847593911254,
0.12713216957605986,0.013609222281759589,
0.12718204488778054,0.048386630460668836,
0.12723192019950125,0.020924778001279676,
0.12728179551122196,0.01847332580469722,
0.12733167082294264,0.050759813919169096,
0.12738154613466335,0.02630550001927343,
0.12743142144638403,0.03191485434949538,
0.12748129675810474,0.006740167415856972,
0.12753117206982545,0.014385556587992189,
0.12758104738154613,0.03137445408105793,
0.12763092269326684,0.020306353749828414,
0.12768079800498752,0.04980709574570904,
0.12773067331670823,0.026855783119545486,
0.1277805486284289,0.013630684669316617,
0.12783042394014962,0.031108836842539244,
0.12788029925187033,-0.0047180903397296275,
0.12793017456359101,0.05324126042781521,
0.12798004987531172,0.024703957858610494,
0.1280299251870324,0.03308142935887667,
0.12807980049875312,0.01704416261492068,
0.12812967581047383,0.032895238122114034,
0.1281795511221945,0.04267003834929485,
0.12822942643391522,0.03943415456239092,
0.1282793017456359,0.028362968048652747,
0.1283291770573566,0.016426753345925586,
0.12837905236907732,0.02492584597245558,
0.128428927680798,0.005779819239627639,
0.1284788029925187,0.033327928100857336,
0.1285286783042394,0.01364860238200767,
0.1285785536159601,0.04432403906249625,
0.1286284289276808,0.0018861973019954487,
0.1286783042394015,0.026695629046757544,
0.1287281795511222,0.035745436367066646,
0.12877805486284288,0.030857082196440178,
0.1288279301745636,0.024993036276064577,
0.1288778054862843,0.03703574033301172,
0.12892768079800498,0.02971628528017985,
0.1289775561097257,0.01066452738426778,
0.12902743142144638,0.030333522151481482,
0.12907730673316709,-0.005330958836640847,
0.12912718204488777,0.04948449897048846,
0.12917705735660848,0.05149506231939117,
0.1292269326683292,0.037347231287079466,
0.12927680798004987,0.012263700937903235,
0.12932668329177058,0.026849565364534405,
0.12937655860349126,0.01943141758968911,
0.12942643391521197,0.0012021059471180318,
0.12947630922693268,-0.0017902325590609357,
0.12952618453865336,0.02784915899366682,
0.12957605985037407,0.026484853247495492,
0.12962593516209475,0.02043673462136365,
0.12967581047381546,0.041350014200201055,
0.12972568578553617,0.008450591793914348,
0.12977556109725685,-0.0006508642238063321,
0.12982543640897756,0.02026693783011756,
0.12987531172069824,0.02112806987856239,
0.12992518703241895,0.0430604213840965,
0.12997506234413966,0.040736317283934426,
0.13002493765586035,0.0031817473811704376,
0.13007481296758105,0.04088519509587866,
0.13012468827930174,0.025158724700775528,
0.13017456359102245,0.02655307860984031,
0.13022443890274316,0.033560193810977995,
0.13027431421446384,0.015702948815513845,
0.13032418952618455,-0.0021129610218494563,
0.13037406483790523,-0.003818632857061202,
0.13042394014962594,0.023613621925665965,
0.13047381546134662,0.03639254311734881,
0.13052369077306733,0.04652707423257353,
0.13057356608478804,0.004962984830906047,
0.13062344139650872,-0.005290965026583921,
0.13067331670822943,0.0033520164945260306,
0.1307231920199501,0.009885577074395635,
0.13077306733167082,0.0775449804891789,
0.13082294264339153,0.015996588256493232,
0.13087281795511221,0.042665249004697085,
0.13092269326683292,0.02299525202090881,
0.1309725685785536,0.019529580916205894,
0.13102244389027431,0.017353077218811328,
0.13107231920199502,0.020485580894757768,
0.1311221945137157,0.030055802007026164,
0.13117206982543642,0.021893502412586686,
0.1312219451371571,0.02529575627778058,
0.1312718204488778,0.029977912308303135,
0.13132169576059852,0.031989398448442105,
0.1313715710723192,-0.018258022473007944,
0.1314214463840399,-0.0005839629628804077,
0.1314713216957606,0.022923167208129355,
0.1315211970074813,0.0002618405872586438,
0.13157107231920198,0.02167315678648289,
0.1316209476309227,0.014037055920837179,
0.1316708229426434,0.01257353701493728,
0.13172069825436408,-0.0035800023316859726,
0.1317705735660848,0.002562144546362213,
0.13182044887780547,0.002787442743964889,
0.13187032418952618,0.007772740190185585,
0.1319201995012469,0.02253628137344524,
0.13197007481296757,0.0007040040643173616,
0.13201995012468828,0.030370483195283918,
0.13206982543640897,0.052082576627917175,
0.13211970074812968,-0.005360576141043174,
0.13216957605985039,0.010232582600315914,
0.13221945137157107,0.018635360202943742,
0.13226932668329178,0.01398218424548662,
0.13231920199501246,0.03280312812922541,
0.13236907730673317,-0.001354433939246202,
0.13241895261845388,0.022896118758946843,
0.13246882793017456,0.025911008742588504,
0.13251870324189527,0.017870823037623662,
0.13256857855361595,0.0014161970135079596,
0.13261845386533666,0.009591699488657303,
0.13266832917705737,0.011964850532383768,
0.13271820448877805,-0.008027124671601505,
0.13276807980049876,-0.027130960509517552,
0.13281795511221944,0.0019982449811469013,
0.13286783042394015,0.024437048731341567,
0.13291770573566083,0.020341807124965604,
0.13296758104738154,0.018024797908713232,
0.13301745635910225,0.02314765388919281,
0.13306733167082294,0.013904753312897481,
0.13311720698254365,0.016444420243027016,
0.13316708229426433,-0.004082392889542012,
0.13321695760598504,-0.019098735250943945,
0.13326683291770575,-0.017312262068352027,
0.13331670822942643,-0.013569411022885471,
0.13336658354114714,0.0016203131701340609,
0.13341645885286782,0.03021604627819193,
0.13346633416458853,-0.0024092966971510296,
0.13351620947630924,0.03420813463529383,
0.13356608478802992,0.004226979707942453,
0.13361596009975063,-0.014157301862131055,
0.1336658354114713,-0.031395392030594604,
0.13371571072319202,0.025115290632132328,
0.13376558603491273,0.0011546320200623485,
0.1338154613466334,0.007324239270252159,
0.13386533665835412,-0.0151327900762904,
0.1339152119700748,-0.007820373545219673,
0.13396508728179551,0.006023055324485539,
0.1340149625935162,0.00483129419315409,
0.1340648379052369,-0.0291573938864746,
0.13411471321695762,0.005035392385819473,
0.1341645885286783,-0.009088342398602324,
0.134214463840399,0.026389873460550533,
0.1342643391521197,0.01843403338903323,
0.1343142144638404,-0.003669329135959941,
0.1343640897755611,0.010073082635063313,
0.1344139650872818,0.007876009650333993,
0.1344638403990025,0.013701019867877496,
0.13451371571072318,0.005017576821028783,
0.1345635910224439,-0.031033623873058098,
0.1346134663341646,0.005104045548244349,
0.13466334164588528,0.002065375293274046,
0.134713216957606,0.009771301405682095,
0.13476309226932667,-0.015561791453066699,
0.13481296758104738,-0.002102943867282993,
0.1348628428927681,0.0033506469545647585,
0.13491271820448877,-0.00600315552448098,
0.13496259351620948,-0.014993460638343009,
0.13501246882793017,-0.03100905619961615,
0.13506234413965088,-0.019625942762170518,
0.13511221945137158,0.017009965478977027,
0.13516209476309227,-0.005807637118016101,
0.13521197007481298,-0.01717604098233999,
0.13526184538653366,0.002670013864738958,
0.13531172069825437,-0.012358139014585365,
0.13536159600997505,-0.004088134064490947,
0.13541147132169576,-0.004294065170450999,
0.13546134663341647,-0.019327187983650886,
0.13551122194513715,0.004891745642441865,
0.13556109725685786,-0.030752853619641158,
0.13561097256857854,0.0037711867143029945,
0.13566084788029925,-0.009039974923615612,
0.13571072319201996,-0.016692748665079842,
0.13576059850374064,-0.0017458261267343476,
0.13581047381546135,0.007840363024930163,
0.13586034912718203,-0.03200076939001255,
0.13591022443890274,-0.02596220047882748,
0.13596009975062345,-0.01351734739665202,
0.13600997506234414,0.006297906339881363,
0.13605985037406484,0.011138378397201708,
0.13610972568578553,0.001161558555271152,
0.13615960099750624,0.003830493063876266,
0.13620947630922695,0.008590876245318213,
0.13625935162094763,-0.018252272948733994,
0.13630922693266834,-0.017091663206503946,
0.13635910224438902,-0.005040759626847838,
0.13640897755610973,-0.006320438557833652,
0.1364588528678304,-0.023998786477941476,
0.13650872817955112,-0.013737606059347256,
0.13655860349127183,0.0030574680235469238,
0.1366084788029925,-0.008684332634537899,
0.13665835411471322,0.017314767159241004,
0.1367082294264339,-0.002872643040098569,
0.1367581047381546,0.030084084467016485,
0.13680798004987532,-0.006616141800529672,
0.136857855361596,-0.018427492703991417,
0.1369077306733167,-0.004612409069584218,
0.1369576059850374,-0.00852003529230489,
0.1370074812967581,-0.04884700960426265,
0.13705735660847881,0.0018769772823712966,
0.1371072319201995,0.001056134297773504,
0.1371571072319202,-0.02052325986943932,
0.1372069825436409,-0.025364992739529003,
0.1372568578553616,0.0043143256275341435,
0.1373067331670823,0.024272824570043545,
0.137356608478803,-0.035989053940887465,
0.1374064837905237,-0.0018473681194086343,
0.13745635910224438,0.013080824227620974,
0.1375062344139651,0.0002503777272822305,
0.1375561097256858,-0.009034171944418091,
0.13760598503740648,-0.0038186012745978753,
0.1376558603491272,-0.007186264955999635,
0.13770573566084787,-0.006669605660197056,
0.13775561097256858,-0.005533298074967315,
0.13780548628428926,-0.004010192536525589,
0.13785536159600997,0.018181639330549195,
0.13790523690773068,0.005122678770736286,
0.13795511221945136,-0.0015842399802529217,
0.13800498753117207,-0.033477806218787654,
0.13805486284289276,-0.03403519106006029,
0.13810473815461347,-0.01623383722490315,
0.13815461346633418,-0.002303630229930395,
0.13820448877805486,-0.027409729751454455,
0.13825436408977557,-0.015305945943631456,
0.13830423940149625,-0.023632816342021266,
0.13835411471321696,0.0022165026652043434,
0.13840399002493767,-0.014466890540685184,
0.13845386533665835,0.0014860650341958926,
0.13850374064837906,0.009360378109484122,
0.13855361596009974,-0.012161960878024876,
0.13860349127182045,-0.019585932368958944,
0.13865336658354116,0.014551042021955816,
0.13870324189526184,-0.010202646218977736,
0.13875311720698255,-0.022775622853999068,
0.13880299251870323,0.0012934809363733014,
0.13885286783042394,0.00791903317815247,
0.13890274314214462,-0.007104693953540655,
0.13895261845386533,-0.007809707241655249,
0.13900249376558604,0.007079804407323689,
0.13905236907730673,0.01694127363732151,
0.13910224438902744,-0.0037336120715946892,
0.13915211970074812,0.0013386317131694227,
0.13920199501246883,-0.0016243494530283403,
0.13925187032418954,0.028752342068251155,
0.13930174563591022,0.00438638378801552,
0.13935162094763093,-0.014027786573484385,
0.1394014962593516,0.006534951522980014,
0.13945137157107232,-0.01910388336823501,
0.13950124688279303,0.0002654959685433871,
0.1395511221945137,-0.006773311163790837,
0.13960099750623442,-0.006064026065136379,
0.1396508728179551,-0.008649131369908365,
0.1397007481296758,0.016808243915645164,
0.13975062344139652,-0.024931503878475113,
0.1398004987531172,-0.0209345015155658,
0.1398503740648379,-0.009621248898192013,
0.1399002493765586,-0.01777433099704076,
0.1399501246882793,0.01654548176986258,
0.14,0.010864604341872884,
0.1400498753117207,0.0016678500924124443,
0.1400997506234414,-0.02523780500731707,
0.1401496259351621,-0.009365085744191936,
0.1401995012468828,0.013306464873272375,
0.14024937655860348,-0.01712499404900887,
0.1402992518703242,-0.022963955328762057,
0.1403491271820449,0.006379821926545895,
0.14039900249376558,0.002804186754637594,
0.1404488778054863,0.0031946802405067544,
0.14049875311720697,0.003870232693774938,
0.14054862842892768,-0.014169100506963104,
0.1405985037406484,-0.0015161841114292893,
0.14064837905236907,0.011360729615701429,
0.14069825436408978,0.019705363350442442,
0.14074812967581046,-0.008233939904255975,
0.14079800498753117,-0.027717233049921935,
0.14084788029925188,0.013412053725319666,
0.14089775561097256,-0.008954087768226312,
0.14094763092269327,0.007899144793261429,
0.14099750623441396,-0.014354610462174903,
0.14104738154613466,0.008997344559523123,
0.14109725685785537,-0.010838252865354718,
0.14114713216957606,-0.00011533341083029081,
0.14119700748129677,-0.010802179219194751,
0.14124688279301745,0.0029526671078776863,
