time,amplitude,label
0.0,-0.03927325537801815,
4.987531172069826e-05,-0.029640186282768287,
9.975062344139652e-05,0.012944569275289721,
0.00014962593516209475,-0.006140367439981403,
0.00019950124688279303,-0.013157633243079845,
0.00024937655860349125,-0.01501360296602638,
0.0002992518703241895,-0.01188668150414867,
0.00034912718204488776,-0.019034318107620227,
0.00039900249376558606,-0.02956778492298175,
0.0004488778054862843,-0.028088475428577148,
0.0004987531172069825,0.006645740746323696,
0.0005486284289276808,-0.0020107004082754246,
0.000598503740648379,-0.002410825794773957,
0.0006483790523690773,-0.025785847390142124,
0.0006982543640897755,-0.02714457512097014,
0.0007481296758104738,0.0010569823438603063,
0.0007980049875311721,-0.03960871019291016,
0.0008478802992518703,-0.01240922624357995,
0.0008977556109725686,-0.026051560788366533,
0.0009476309226932668,-0.03894302622569033,
0.000997506234413965,0.002622516159432712,
0.0010473815461346633,0.0071723383657038755,
0.0010972568578553616,-0.018446637842105294,
0.00114713216957606,-0.010624592343647616,
0.001197007481296758,0.016101010462098025,
0.0012468827930174563,-0.01572649890881617,
0.0012967581047381546,-0.013609635033285598,
0.001346633416458853,-0.020240789363434077,
0.001396508728179551,1.8573855918907825e-05,
0.0014463840399002493,0.000629839463969958,
0.0014962593516209476,-0.005842137481145416,
0.001546134663341646,-0.017916590081605142,
0.0015960099750623442,-0.02630392681533739,
0.0016458852867830423,0.013237935401578863,
0.0016957605985037406,0.03438311406943027,
0.001745635910224439,-0.007055699468334656,
0.0017955112219451373,-0.026928436367791367,
0.0018453865336658353,-0.01446918166596628,
0.0018952618453865336,0.023793202373214584,
0.001945137157107232,-0.020692287011482496,
0.00199501246882793,-0.011172574776617743,
0.0020448877805486283,0.0014967487438588114,
0.0020947630922693266,-0.029722172854663127,
0.002144638403990025,-0.0013155661918813231,
0.0021945137157107233,-0.002942382656670624,
0.0022443890274314216,0.01353170050245048,
0.00229426433915212,-0.0006682837295698086,
0.0023441396508728177,0.015134739344238694,
0.002394014962593516,0.029927707316140216,
0.0024438902743142144,-0.011467700341955583,
0.0024937655860349127,-0.005549054903012984,
0.002543640897755611,-0.008771240919305465,
0.0025935162094763093,-0.025874224610563955,
0.0026433915211970076,-0.027485105722573996,
0.002693266832917706,0.014469428492922773,
0.002743142144638404,0.02847806734442661,
0.002793017456359102,-0.013524219841288156,
0.0028428927680798004,0.0006975880875651013,
0.0028927680798004987,0.0004635053185240588,
0.002942643391521197,0.011526102838791177,
0.0029925187032418953,0.003503581926360078,
0.0030423940149625936,-0.010730960542656457,
0.003092269326683292,-0.001462917596279417,
0.00314214463840399,-0.017611924107719498,
0.0031920199501246885,-0.013974542360852596,
0.0032418952618453864,-0.0027524957319904507,
0.0032917705735660847,0.008484518689449792,
0.003341645885286783,0.009493566640912474,
0.0033915211970074813,0.005595524616993959,
0.0034413965087281796,0.039311160858025176,
0.003491271820448878,-0.011866252053310551,
0.003541147132169576,0.013137278688110068,
0.0035910224438902745,-0.001937128880533415,
0.0036408977556109724,-0.004731663199564542,
0.0036907730673316707,0.019519791420772155,
0.003740648379052369,-0.016701290238020965,
0.0037905236907730673,0.006756598164094558,
0.0038403990024937656,0.006100375877250664,
0.003890274314214464,0.017078140543970034,
0.003940149625935162,0.029307934269270388,
0.00399002493765586,-0.002714331574796334,
0.004039900249376558,0.019003449861134062,
0.004089775561097257,-0.0021448721966030593,
0.004139650872817955,0.0048901963433668205,
0.004189526184538653,0.018156234140687847,
0.004239401496259352,-0.004866369576783742,
0.00428927680798005,0.016659867363059327,
0.004339152119700748,-0.006446776616009493,
0.0043890274314214465,0.01426711555271798,
0.004438902743142145,-0.01698442447360455,
0.004488778054862843,0.010998594895601042,
0.004538653366583541,0.020424099793303417,
0.00458852867830424,0.01729018370788618,
0.004638403990024938,-0.000172862337047993,
0.0046882793017456355,0.0181131168036499,
0.004738154613466334,0.020761817114236823,
0.004788029925187032,0.0036698579004250083,
0.00483790523690773,-0.0009565150910014423,
0.004887780548628429,0.025843584628209418,
0.004937655860349127,0.017631724921077802,
0.004987531172069825,-0.002518124424372232,
0.005037406483790524,-0.028552896651989852,
0.005087281795511222,0.017955865835367544,
0.00513715710723192,0.017867426662089993,
0.0051870324189526185,0.016218943121889286,
0.005236907730673317,0.018036627267446363,
0.005286783042394015,-0.013366815020058716,
0.0053366583541147134,0.027050470630692686,
0.005386533665835412,0.004404189969758349,
0.00543640897755611,0.030010114789632322,
0.005486284289276808,0.025237472225780426,
0.005536159600997507,0.008657188412187917,
0.005586034912718204,-0.0011827704086924372,
0.005635910224438902,0.040417506074719924,
0.005685785536159601,0.03316561316222963,
0.005735660847880299,0.017480394952541115,
0.005785536159600997,-0.009424679048530558,
0.005835411471321696,0.02344891510190426,
0.005885286783042394,0.004169402870812709,
0.005935162094763092,0.007057740792987138,
0.0059850374064837905,-0.00842105770463275,
0.006034912718204489,0.003293692233481093,
0.006084788029925187,-0.0015745894033770969,
0.0061346633416458855,-0.002794072066874924,
0.006184538653366584,0.02305938346050245,
0.006234413965087282,0.02746215186428111,
0.00628428927680798,0.011304566325105323,
0.006334164588528679,0.013664861123195943,
0.006384039900249377,0.037145278094794884,
0.006433915211970074,0.029868783612912023,
0.006483790523690773,0.024144758748613836,
0.006533665835411471,0.035480147204296,
0.006583541147132169,0.012020814035374021,
0.006633416458852868,0.035199748096405484,
0.006683291770573566,0.005481972263937311,
0.006733167082294264,0.03496616958729457,
0.0067830423940149626,0.022300908929839075,
0.006832917705735661,0.02446737364106883,
0.006882793017456359,0.024869455633236587,
0.0069326683291770575,0.04979108774302744,
0.006982543640897756,0.012116180299783636,
0.007032418952618454,0.033854132821769356,
0.007082294264339152,0.034378772636271517,
0.007132169576059851,-0.0019930242607926404,
0.007182044887780549,0.020640112606054396,
0.007231920199501247,0.0016822168523668787,
0.007281795511221945,0.0036319944247249943,
0.007331670822942643,0.05530016007593663,
0.007381546134663341,0.02800294455364461,
0.00743142144638404,0.02868884105707087,
0.007481296758104738,0.048502938645690885,
0.007531172069825436,0.0328108022780423,
0.007581047381546135,0.015038866959414095,
0.007630922693266833,0.028953700120876842,
0.007680798004987531,0.020409384549182685,
0.0077306733167082295,0.014854417553813946,
0.007780548628428928,0.03736749276360267,
0.007830423940149626,0.002424892406756158,
0.007880299251870324,-0.026579732358935404,
0.007930174563591023,0.002951081669114425,
0.00798004987531172,0.011058069245707156,
0.00802992518703242,0.02767763986757764,
0.008079800498753117,0.0337608180527357,
0.008129675810473816,-0.006941165902551883,
0.008179551122194513,0.021772424581724296,
0.008229426433915213,0.01647177066615539,
0.00827930174563591,0.01228266089929659,
0.00832917705735661,0.015209027838450673,
0.008379052369077307,0.02059161551168319,
0.008428927680798006,-0.003911541703294521,
0.008478802992518703,0.02328546159598993,
0.0085286783042394,0.03343043172490129,
0.0085785536159601,0.010838421626977212,
0.008628428927680797,0.010141463506311697,
0.008678304239401496,0.032861403695213794,
0.008728179551122194,0.022353028377174046,
0.008778054862842893,0.02297264960689111,
0.00882793017456359,0.008583114710886148,
0.00887780548628429,0.01723628390120302,
0.008927680798004987,0.006290814385570227,
0.008977556109725686,0.02648481105284782,
0.009027431421446384,0.035873109810701145,
0.009077306733167083,0.04074512492665901,
0.00912718204488778,-0.012654174349934193,
0.00917705735660848,0.024577843932715646,
0.009226932668329177,0.022658350150770213,
0.009276807980049876,0.014699566067648589,
0.009326683291770574,0.02538408465397237,
0.009376558603491271,0.015586594966375608,
0.00942643391521197,0.020722561704720418,
0.009476309226932668,0.03483570696674047,
0.009526184538653367,0.009685078562294266,
0.009576059850374064,0.004292761192609237,
0.009625935162094763,0.03572726593183036,
0.00967581047381546,0.04487182077381881,
0.00972568578553616,0.023567399872183092,
0.009775561097256857,0.010515054101824387,
0.009825436408977557,0.021968376821617147,
0.009875311720698254,0.017832537826106658,
0.009925187032418953,0.012745966223653734,
0.00997506234413965,0.032480820041147204,
0.01002493765586035,0.010177847740302816,
0.010074812967581047,0.01024984040953479,
0.010124688279301746,0.018217921600367386,
0.010174563591022444,0.03237324723082403,
0.010224438902743141,0.028251593548906113,
0.01027431421446384,0.007194918510610651,
0.010324189526184538,-0.002320069203495038,
0.010374064837905237,0.026327361255658002,
0.010423940149625935,0.018547877048974586,
0.010473815461346634,0.03071936361471671,
0.010523690773067331,0.039042163339266835,
0.01057356608478803,0.010911235804455428,
0.010623441396508728,0.003824902268201001,
0.010673316708229427,0.0260366443548167,
0.010723192019950124,-0.004873616067963899,
0.010773067331670824,-0.004835198130268271,
0.010822942643391521,0.005436796667262404,
0.01087281795511222,0.009027064861596296,
0.010922693266832918,-0.0014509568801537413,
0.010972568578553617,0.025244913480696345,
0.011022443890274314,0.0019148404497933268,
0.011072319201995013,0.005854971233908087,
0.01112219451371571,0.006224713406318535,
0.011172069825436408,-0.009050897643355954,
0.011221945137157107,-0.0032700684927805083,
0.011271820448877805,0.02398149483222723,
0.011321695760598504,0.03920685174673582,
0.011371571072319201,0.003641315119648961,
0.0114214463840399,0.04767535018449068,
0.011471321695760598,0.03240978406315185,
0.011521197007481297,0.0049686460980938015,
0.011571072319201995,0.04963252692559717,
0.011620947630922694,0.024372073094265295,
0.011670822942643391,0.021835027851910556,
0.01172069825436409,0.03370095251811507,
0.011770573566084788,0.007220100684799541,
0.011820448877805487,0.021162202380937897,
0.011870324189526184,0.019726681586497603,
0.011920199501246884,0.02522992395079434,
0.011970074812967581,0.02822934822723283,
0.012019950124688279,0.002034572730154914,
0.012069825436408978,0.0007740017906524461,
0.012119700748129675,0.02886620387481349,
0.012169576059850374,0.025921194142668986,
0.012219451371571072,0.0029622114167060865,
0.012269326683291771,0.015404123734157655,
0.012319201995012468,0.01847679905124408,
0.012369077306733168,0.006848370709323441,
0.012418952618453865,0.009873754446248453,
0.012468827930174564,0.01794637451449186,
0.012518703241895262,0.008393190604905686,
0.01256857855361596,0.00691104553548069,
0.012618453865336658,-0.005177576393896415,
0.012668329177057357,-0.009112666949979076,
0.012718204488778055,0.017911510020051872,
0.012768079800498754,-0.006132955934531175,
0.012817955112219451,0.009734363968065093,
0.012867830423940149,-0.010027735815128419,
0.012917705735660848,0.008711427935298076,
0.012967581047381545,-0.0023491733055086535,
0.013017456359102245,0.005107086552735439,
0.013067331670822942,0.016818999325500385,
0.013117206982543641,0.018656691437744285,
0.013167082294264339,0.02754685411334862,
0.013216957605985038,0.007948422322948847,
0.013266832917705735,-0.0034352231963261067,
0.013316708229426434,0.00602474105954694,
0.013366583541147132,0.02390623304222962,
0.013416458852867831,0.022806859276353498,
0.013466334164588529,0.011741797297375352,
0.013516209476309228,-0.0016959886234332675,
0.013566084788029925,-0.0067075340862488295,
0.013615960099750624,-0.004543247744525007,
0.013665835411471322,0.013090710633720604,
0.01371571072319202,-0.0016347557676006665,
0.013765586034912718,-0.013411078700617692,
0.013815461346633416,-0.007287824407470661,
0.013865336658354115,0.014897268823236493,
0.013915211970074812,-0.01458804489150213,
0.013965087281795512,-0.008572941338681622,
0.014014962593516209,-0.00834493503404025,
0.014064837905236908,0.013063032985213451,
0.014114713216957606,-0.02345098127361303,
0.014164588528678305,0.015024598667062607,
0.014214463840399002,-0.010386983755869435,
0.014264339152119701,-0.007875138830612843,
0.014314214463840399,-0.019944318237878202,
0.014364089775561098,0.020394891478341056,
0.014413965087281795,0.009108594073843736,
0.014463840399002495,0.01365151911428285,
0.014513715710723192,-0.0011170437738384524,
0.01456359102244389,-0.0244900822020823,
0.014613466334164589,-0.014612014448269695,
0.014663341645885286,0.0022855881900274364,
0.014713216957605985,0.01404406695053593,
0.014763092269326683,-0.003234153030507495,
0.014812967581047382,-0.0068012833025789966,
0.01486284289276808,0.00911926194506467,
0.014912718204488778,0.018114390536502815,
0.014962593516209476,0.004630169585590146,
0.015012468827930175,-0.014393705430009358,
0.015062344139650873,-0.005984671812130113,
0.015112219451371572,-0.014156494628119555,
0.01516209476309227,-0.021511803476224788,
0.015211970074812968,-0.03204606417710522,
0.015261845386533666,-0.009664058843949322,
0.015311720698254365,-0.012176480425849985,
0.015361596009975062,0.0037043345193591704,
0.01541147132169576,0.0189258706103847,
0.015461346633416459,-0.018330599500835917,
0.015511221945137156,0.004266859921377588,
0.015561097256857856,0.006843758641474193,
0.015610972568578553,-0.027179570543580264,
0.015660847880299252,0.0005259211677309025,
0.01571072319201995,-0.02983461876502818,
0.015760598503740647,0.0003606838950618342,
0.015810473815461346,-0.01722349264018609,
0.015860349127182045,-0.01050846993373527,
0.015910224438902745,-0.016425562891286005,
0.01596009975062344,-0.0003735981796765299,
0.01600997506234414,-0.023422782551166272,
0.01605985037406484,-0.014397788755242365,
0.016109725685785538,-0.015054156110115173,
0.016159600997506234,-0.0110993509922911,
0.016209476309226933,-0.03518554223607529,
0.016259351620947632,-0.00949060796884486,
0.016309226932668328,0.012198361404419603,
0.016359102244389027,-0.00981786986694652,
0.016408977556109726,-0.0023742151929377585,
0.016458852867830425,-0.01769263593559408,
0.01650872817955112,-0.006041366528535914,
0.01655860349127182,-0.018985292525812887,
0.01660847880299252,-0.013585957419859372,
0.01665835411471322,0.010795089718667595,
0.016708229426433914,-0.002025352697423398,
0.016758104738154613,-0.023417015267724866,
0.016807980049875312,-0.03941573733426107,
0.01685785536159601,-0.009833436699851573,
0.016907730673316707,-0.03517752823119151,
0.016957605985037406,-0.008740582132335728,
0.017007481296758106,0.004530366978874115,
0.0170573566084788,-0.008448817206896119,
0.0171072319201995,-0.032839808271638384,
0.0171571072319202,-0.04874971725294204,
0.0172069825436409,-0.00999444073575062,
0.017256857855361595,-0.012710598588269693,
0.017306733167082294,-0.012321755074125763,
0.017356608478802993,-0.01636949636317653,
0.017406483790523692,-0.029120318441315095,
0.017456359102244388,-0.03347186980522135,
0.017506234413965087,-0.028320939288615888,
0.017556109725685786,-0.017328252493698116,
0.017605985037406485,0.0017213249898142963,
0.01765586034912718,-0.024055249449013702,
0.01770573566084788,-0.03582657089818668,
0.01775561097256858,-0.050828083995092276,
0.01780548628428928,-0.024404333893473757,
0.017855361596009974,-0.013942358734147916,
0.017905236907730673,0.016298546996562326,
0.017955112219451373,-0.0053966058468289755,
0.018004987531172068,-0.02885965822125955,
0.018054862842892767,-0.03715801725867706,
0.018104738154613467,-0.01482019665332446,
0.018154613466334166,-0.012321468570319077,
0.01820448877805486,-0.041574294576193084,
0.01825436408977556,-0.014875652069492535,
0.01830423940149626,-2.5086311441980397e-05,
0.01835411471321696,-0.008643965092727047,
0.018403990024937655,-0.029416275127466904,
0.018453865336658354,0.005680479188915292,
0.018503740648379053,-0.0011554470522395395,
0.018553615960099752,-0.023967776021215453,
0.018603491271820448,-0.02051707887667016,
0.018653366583541147,0.016150476495125448,
0.018703241895261846,-0.030620305822913134,
0.018753117206982542,-0.021409434386267537,
0.01880299251870324,-0.009302400599007027,
0.01885286783042394,-0.004522825581845875,
0.01890274314214464,-0.032923702496019905,
0.018952618453865335,-0.026883248460409126,
0.019002493765586034,-0.036122055922753395,
0.019052369077306733,-0.03149189579648997,
0.019102244389027433,-0.026617407100713666,
0.01915211970074813,-0.019982650049213048,
0.019201995012468828,0.006039441552998483,
0.019251870324189527,-0.014584561010147754,
0.019301745635910226,-0.021602435315596146,
0.01935162094763092,-0.01718267784316288,
0.01940149625935162,-0.020963278910831662,
0.01945137157107232,-0.036207477357905936,
0.01950124688279302,0.0055076087462178555,
0.019551122194513715,-0.008731355925415388,
0.019600997506234414,-0.007751623567195949,
0.019650872817955113,-0.03722763058363948,
0.01970074812967581,-0.027906382728387434,
0.019750623441396508,-0.0015681455616321695,
0.019800498753117207,-0.01316382970244917,
0.019850374064837906,-0.03813964946303957,
0.019900249376558602,-0.0032924993861197776,
0.0199501246882793,0.008520431728040605,
0.02,-0.023261970444077698,
0.0200498753117207,-0.036571209706675725,
0.020099750623441395,-0.0437572504517644,
0.020149625935162094,-0.0050736400925157545,
0.020199501246882794,-0.0022468372755788703,
0.020249376558603493,0.004097710988441786,
0.02029925187032419,-0.01943209187510093,
0.020349127182044888,-0.011458931857803376,
0.020399002493765587,-0.011193048098877988,
0.020448877805486283,-0.014628041372685557,
0.02049875311720698,-0.02661832450484676,
0.02054862842892768,-0.01271830170868985,
0.02059850374064838,-0.007572863046514913,
0.020648379052369076,-0.016013645215285924,
0.020698254364089775,0.010361764972888663,
0.020748129675810474,-0.012084969492365736,
0.020798004987531173,-0.01716628337941295,
0.02084788029925187,0.006446846183789644,
0.020897755610972568,-0.04061565772953605,
0.020947630922693267,-0.016158230920896723,
0.020997506234413967,-0.019679620472816933,
0.021047381546134662,-0.042091748770646115,
0.02109725685785536,-0.017061078378255087,
0.02114713216957606,-0.0009247487477655573,
0.02119700748129676,-0.0024712976797136507,
0.021246882793017455,-0.008316071711982193,
0.021296758104738155,-0.028119612649463895,
0.021346633416458854,-0.019933382590881517,
0.02139650872817955,-0.0012992196545628214,
0.02144638403990025,0.006968467985299896,
0.021496259351620948,0.010122801101522713,
0.021546134663341647,0.00031161467780538993,
0.021596009975062343,-0.020117225380986262,
0.021645885286783042,0.013678603251320295,
0.02169576059850374,-0.023884283798143086,
0.02174563591022444,-0.00039834239852635546,
0.021795511221945136,-0.005304117696751763,
0.021845386533665835,-0.0008822759503151964,
0.021895261845386534,-0.02641201559887115,
0.021945137157107233,-0.007766934532451527,
0.02199501246882793,-0.014535502683929124,
0.02204488778054863,0.01880992237123947,
0.022094763092269327,0.0037159120630096175,
0.022144638403990027,-0.020320881637319536,
0.022194513715710722,0.014146902284948592,
0.02224438902743142,-0.005896138271001201,
0.02229426433915212,-0.01043833073277307,
0.022344139650872816,-0.01701589776518269,
0.022394014962593516,0.0004846242566997573,
0.022443890274314215,0.0024349101251738285,
0.022493765586034914,-0.004098697903894063,
0.02254364089775561,-0.007808438481289668,
0.02259351620947631,-0.01074320490512154,
0.022643391521197008,-0.024775046870308133,
0.022693266832917707,-0.003325750335616162,
0.022743142144638403,-0.02269021167184493,
0.022793017456359102,-0.02619272990676719,
0.0228428927680798,0.010753769724885093,
0.0228927680798005,0.011282082472584914,
0.022942643391521196,0.01422304989828725,
0.022992518703241895,-0.013289521917119478,
0.023042394014962594,0.011715068074028721,
0.02309226932668329,0.007037384146722498,
0.02314214463840399,0.036335427528761295,
0.02319201995012469,-0.005327960786007457,
0.023241895261845388,0.043345926484716656,
0.023291770573566083,-0.011477396637188844,
0.023341645885286783,-0.01785721764399536,
0.02339152119700748,0.002785946224768577,
0.02344139650872818,0.03698991299347727,
0.023491271820448877,0.005120934998476203,
0.023541147132169576,-0.011607260799440213,
0.023591022443890275,0.010125572992158258,
0.023640897755610974,0.023197320440125596,
0.02369077306733167,0.0003340879239402761,
0.02374064837905237,0.013767870543166517,
0.023790523690773068,0.011364724366082147,
0.023840399002493767,-0.014822542661425228,
0.023890274314214463,0.010812072096278873,
0.023940149625935162,0.027046573825948283,
0.02399002493765586,0.001505317921097417,
0.024039900249376557,0.011393649412458642,
0.024089775561097256,0.0070340300977499645,
0.024139650872817955,0.03542665099553418,
0.024189526184538655,-0.0003784095344266606,
0.02423940149625935,0.023853844243256914,
0.02428927680798005,-0.0169152551273265,
0.02433915211970075,-0.00517777431701489,
0.024389027431421448,0.007695728994644773,
0.024438902743142144,-0.010104423018782368,
0.024488778054862843,-0.0046837728635155795,
0.024538653366583542,0.007106342951271551,
0.02458852867830424,0.02671240766459352,
0.024638403990024937,0.010034586381200162,
0.024688279301745636,0.0033853082720152784,
0.024738154613466335,0.017602114098931202,
0.02478802992518703,0.005126238097722307,
0.02483790523690773,0.024461086613645523,
0.02488778054862843,0.007560708134776179,
0.02493765586034913,0.033128396270481364,
0.024987531172069824,0.028699613882221017,
0.025037406483790523,-0.0009565275875680311,
0.025087281795511222,0.011581922310828678,
0.02513715710723192,0.017712368422551392,
0.025187032418952617,0.011176007781972745,
0.025236907730673316,-0.0017155593812368131,
0.025286783042394016,0.03144391120848032,
0.025336658354114715,0.0024975157802764603,
0.02538653366583541,-0.004146090860587221,
0.02543640897755611,0.026972398397742504,
0.02548628428927681,-0.008140782087264412,
0.025536159600997508,0.01880367793940771,
0.025586034912718204,0.03765409197811432,
0.025635910224438903,0.015238004979362119,
0.025685785536159602,-0.0021784699823467757,
0.025735660847880298,0.031234946166250242,
0.025785536159600997,0.03500731568182876,
0.025835411471321696,0.021850843785413288,
0.025885286783042395,0.001830052704232638,
0.02593516209476309,-0.009136597729959176,
0.02598503740648379,0.013050204715404131,
0.02603491271820449,0.038986769149686545,
0.02608478802992519,0.012879689728390396,
0.026134663341645884,0.0005035422755847938,
0.026184538653366583,0.03645156388634232,
0.026234413965087282,0.03502523018691897,
0.02628428927680798,0.032833540788291996,
0.026334164588528677,0.004267796730154353,
0.026384039900249377,0.012549610017942534,
0.026433915211970076,0.028232808897199563,
0.02648379052369077,0.025636944614602204,
0.02653366583541147,0.04378187775079777,
0.02658354114713217,0.008232339498176946,
0.02663341645885287,0.0062976629154916485,
0.026683291770573565,0.0351617871128464,
0.026733167082294264,0.011046130962317421,
0.026783042394014963,0.030930838299140957,
0.026832917705735662,0.006328873599353888,
0.026882793017456358,0.023164432586613756,
0.026932668329177057,0.012705721159782782,
0.026982543640897756,0.010839272231134275,
0.027032418952618455,-0.00614749463520136,
0.02708229426433915,-0.01067162393067474,
0.02713216957605985,0.011623914989624909,
0.02718204488778055,0.02615053500842909,
0.02723192019950125,0.0014247271946978765,
0.027281795511221944,-0.007480691687276022,
0.027331670822942643,0.011393398968448596,
0.027381546134663343,0.027629676293630254,
0.02743142144638404,0.030501212976149758,
0.027481296758104738,0.01538943117127509,
0.027531172069825437,-0.008303396459938092,
0.027581047381546136,-0.01366426757829775,
0.02763092269326683,0.028287763525318158,
0.02768079800498753,0.015101604201475301,
0.02773067331670823,0.019577378525899625,
0.02778054862842893,0.043969821890876594,
0.027830423940149625,0.008824149983107942,
0.027880299251870324,0.02043142445082852,
0.027930174563591023,-0.008564241874396333,
0.027980049875311722,-0.000974778704283006,
0.028029925187032418,-0.0004251124720156818,
0.028079800498753117,0.00025028955756620924,
0.028129675810473816,-0.0006360217384103646,
0.028179551122194512,0.010370818406667861,
0.02822942643391521,0.03638741562803456,
0.02827930174563591,0.01096127114779636,
0.02832917705735661,0.01754388279889571,
0.028379052369077305,0.0254770314870933,
0.028428927680798004,0.01785272263421245,
0.028478802992518704,0.03863923103912846,
0.028528678304239403,0.027456049780096223,
0.0285785536159601,0.036693287925019774,
0.028628428927680798,0.045397915842133874,
0.028678304239401497,0.03826322519701238,
0.028728179551122196,0.04987020366166549,
0.02877805486284289,0.016996886460734106,
0.02882793017456359,0.00452128278496847,
0.02887780548628429,0.016092027221282564,
0.02892768079800499,0.013527458229266685,
0.028977556109725685,0.03697605270247181,
0.029027431421446384,0.03988508610259556,
0.029077306733167083,0.019271582501612965,
0.02912718204488778,0.017066794644738637,
0.029177057356608478,0.06371325204583533,
0.029226932668329177,0.015652075543070916,
0.029276807980049877,0.01363793599177187,
0.029326683291770572,0.049424240159327296,
0.02937655860349127,0.021799406264693368,
0.02942643391521197,0.013197627516342727,
0.02947630922693267,0.040769211466486883,
0.029526184538653365,0.031203101113361047,
0.029576059850374065,-0.0071700476431305095,
0.029625935162094764,0.03749831021197339,
0.029675810473815463,0.00789914728427381,
0.02972568578553616,0.028862024847414028,
0.029775561097256858,-0.01948561750469912,
0.029825436408977557,0.04600857173019271,
0.029875311720698253,0.029204185652299774,
0.029925187032418952,0.020665843690073942,
0.02997506234413965,0.02702214747195935,
0.03002493765586035,0.00708356594264783,
0.030074812967581046,0.015602159248414196,
0.030124688279301745,0.03141265723862542,
0.030174563591022444,0.04323988081888013,
0.030224438902743143,0.030311813522612453,
0.03027431421446384,0.009746018961802856,
0.03032418952618454,0.021099104475187685,
0.030374064837905237,0.006981293840439766,
0.030423940149625937,0.008806361501434077,
0.030473815461346632,-0.0009918579203165821,
0.03052369077306733,-0.0022262231531210187,
0.03057356608478803,0.015201301761624916,
0.03062344139650873,0.008309288254889842,
0.030673316708229426,0.032787644433415294,
0.030723192019950125,0.0033296918439982438,
0.030773067331670824,0.011032906814191897,
0.03082294264339152,0.0275704116327617,
0.03087281795511222,0.021775512245697556,
0.030922693266832918,0.019026274133063313,
0.030972568578553617,0.022206816240808017,
0.031022443890274313,-0.006849868686179213,
0.031072319201995012,0.024206277543453097,
0.03112219451371571,0.023536132897350917,
0.03117206982543641,0.028265371625564015,
0.031221945137157106,0.03880725450724179,
0.03127182044887781,-0.03498060777747812,
0.031321695760598504,0.015439148065941561,
0.0313715710723192,0.03818417295437812,
0.0314214463840399,0.012078216250684424,
0.0314713216957606,0.021466063471963056,
0.031521197007481294,0.006058945734315344,
0.031571072319202,0.018087431598837543,
0.03162094763092269,0.035654228809990196,
0.03167082294264339,-0.0035700687722403403,
0.03172069825436409,0.017339629411299157,
0.03177057356608479,0.023743944367164496,
0.03182044887780549,0.019642360341719282,
0.031870324189526185,0.016781002531568147,
0.03192019950124688,-0.006513547473811537,
0.03197007481296758,0.01149106811069093,
0.03201995012468828,-0.010228240216655051,
0.032069825436408975,0.008694060312805169,
0.03211970074812968,0.010388430944937807,
0.03216957605985037,0.006065778368232593,
0.032219451371571076,0.016968837092468735,
0.03226932668329177,-0.0012366533686718369,
0.03231920199501247,0.016824740044014075,
0.03236907730673317,0.011086470850997836,
0.032418952618453865,0.04173189580955011,
0.03246882793017456,0.009545481068330017,
0.032518703241895264,0.03446299206312328,
0.03256857855361596,-0.0015225222036558093,
0.032618453865336655,-0.003979088167392682,
0.03266832917705736,0.03485380252954743,
0.032718204488778053,-0.02187494457909244,
0.032768079800498756,-0.012229121898856995,
0.03281795511221945,0.014535983640819015,
0.03286783042394015,0.003275636758843069,
0.03291770573566085,-0.025558010834087215,
0.032967581047381546,0.0012365664943331136,
0.03301745635910224,0.009056765617040958,
0.033067331670822944,-0.0005307894321550494,
0.03311720698254364,0.010636051052652452,
0.03316708229426434,0.017549237850631033,
0.03321695760598504,-0.011057043444664062,
0.033266832917705734,-0.005989007409236119,
0.03331670822942644,0.009489549185192188,
0.03336658354114713,-0.015231068393381468,
0.03341645885286783,-0.0018479558658390783,
0.03346633416458853,-0.002023242370600069,
0.033516209476309226,0.0174060438023597,
0.03356608478802992,-0.004950565136845471,
0.033615960099750625,-0.02391705943430883,
0.03366583541147132,0.007260743265929272,
0.03371571072319202,-4.112758753376639e-05,
0.03376558603491272,0.015728565405887244,
0.033815461346633414,0.003752240012845764,
0.03386533665835412,0.028105099663319026,
0.03391521197007481,0.008646171933404582,
0.03396508728179551,-0.0015129222464754712,
0.03401496259351621,0.016468206279494548,
0.03406483790523691,0.02640776244432007,
0.0341147132169576,-0.006415248537792956,
0.034164588528678305,0.01728384804747826,
0.034214463840399,0.023242605250253696,
0.034264339152119704,-0.021933422447453665,
0.0343142144638404,0.0010934649237475998,
0.034364089775561095,-0.014893237012354727,
0.0344139650872818,-0.029392391951150773,
0.03446384039900249,-0.03534677627119371,
0.03451371571072319,0.005919681046957288,
0.03456359102244389,-0.023682696921289215,
0.03461346633416459,-0.007540486916723103,
0.03466334164588529,0.02407514886474589,
0.034713216957605986,0.012593858782364851,
0.03476309226932668,-0.002215065237985362,
0.034812967581047384,-0.029231445227513406,
0.03486284289276808,-0.018601461035137597,
0.034912718204488775,-0.012565231947426932,
0.03496259351620948,-0.009508034852108776,
0.035012468827930174,0.010739088903725484,
0.03506234413965087,-0.0073973655916275615,
0.03511221945137157,0.002712909953517185,
0.03516209476309227,-0.02757221420494957,
0.03521197007481297,-0.027657065287257854,
0.035261845386533666,-0.010745255721617074,
0.03531172069825436,-0.003961006483048915,
0.035361596009975065,-0.011936663782821474,
0.03541147132169576,-0.02278144117064891,
0.035461346633416456,0.01679739220906546,
0.03551122194513716,0.004291271320142929,
0.035561097256857854,-0.029209080611151864,
0.03561097256857856,-0.012018187354966176,
0.03566084788029925,-0.01133035055582854,
0.03571072319201995,-0.02858509581193488,
0.03576059850374065,0.00183287934630255,
0.03581047381546135,-0.016281209136412136,
0.03586034912718204,-0.01794351063504431,
0.035910224438902745,0.0026397834364708,
0.03596009975062344,-0.020127309700897152,
0.036009975062344136,-0.02168846658003124,
0.03605985037406484,-0.0015623729507602997,
0.036109725685785535,-0.025410293226254772,
0.03615960099750624,-0.00894491531056925,
0.03620947630922693,-0.05983394675175026,
0.03625935162094763,-0.016674271244642665,
0.03630922693266833,0.014438104109542396,
0.03635910224438903,-0.008977873074368576,
0.03640897755610972,-0.032406172406562635,
0.036458852867830426,-0.014355751045654905,
0.03650872817955112,-0.02058225471673511,
0.036558603491271824,-0.008678769038447614,
0.03660847880299252,-0.01096665572187858,
0.036658354114713215,-0.029105525198596403,
0.03670822942643392,0.00854706082902514,
0.036758104738154614,-0.0022491531186268326,
0.03680798004987531,-0.02828211971926088,
0.03685785536159601,-0.03282639104054057,
0.03690773067331671,-0.01867050074170229,
0.0369576059850374,-0.018177279671504322,
0.037007481296758106,-0.011420232118078062,
0.0370573566084788,-0.022853697021815805,
0.037107231920199504,-0.0020293607922089504,
0.0371571072319202,-0.017302048107032782,
0.037206982543640896,-0.018419663399238426,
0.0372568578553616,-0.022586019995829907,
0.037306733167082294,0.00651070449827033,
0.03735660847880299,-0.0300696621910881,
0.03740648379052369,-0.01416440564462228,
0.03745635910224439,-0.028038937391680466,
0.037506234413965084,0.0004453907893005489,
0.037556109725685786,-0.005963085791453876,
0.03760598503740648,-0.010108919265571344,
0.037655860349127185,-0.03680622289417969,
0.03770573566084788,-0.010189841378882849,
0.037755610972568576,-0.012495753959951414,
0.03780548628428928,-0.016439168380800628,
0.037855361596009975,-0.004774076340616161,
0.03790523690773067,-0.043360421393759896,
0.03795511221945137,-0.015981814975390255,
0.03800498753117207,-0.018673602553954567,
0.03805486284289277,-0.02002439364594792,
0.03810473815461347,0.0041714253215934215,
0.03815461346633416,0.010568959864307365,
0.038204488778054865,0.008779518310280367,
0.03825436408977556,-0.021697126904150398,
0.03830423940149626,0.0034219846357871793,
0.03835411471321696,-0.0271583340402552,
0.038403990024937655,-0.05348976904504893,
0.03845386533665835,-0.027248059794306848,
0.03850374064837905,-0.002928353501624306,
0.03855361596009975,-0.02904002278656892,
0.03860349127182045,-0.002393890520427263,
0.03865336658354115,-0.024275071497496196,
0.03870324189526184,-0.03198266724959485,
0.038753117206982546,-0.03220843979434678,
0.03880299251870324,-0.00020999902830611678,
0.03885286783042394,-0.009254451122956756,
0.03890274314214464,-0.024095829769388906,
0.038952618453865336,-0.015206013547659774,
0.03900249376558604,-0.0009116922692275833,
0.039052369077306734,-0.0026955230423473444,
0.03910224438902743,-0.02469719861782313,
0.03915211970074813,-0.017999902836954833,
0.03920199501246883,-0.023312597208295257,
0.039251870324189524,-0.012372862027782641,
0.039301745635910226,-0.027525704679502244,
0.03935162094763092,-0.01800410503485708,
0.03940149625935162,-0.0012809091539333784,
0.03945137157107232,-0.010688292096650169,
0.039501246882793016,0.003804599933478316,
0.03955112219451372,-0.0033051077673279822,
0.039600997506234414,-0.03345610291670344,
0.03965087281795511,-0.006497703964940052,
0.03970074812967581,-0.0070559239684704214,
0.03975062344139651,0.0044718680129480545,
0.039800498753117204,-0.02175834894623895,
0.03985037406483791,-0.002583865128699646,
0.0399002493765586,-0.01636579921122298,
0.039950124688279305,-0.030742200756083637,
0.04,-0.03489267657594265,
0.0400498753117207,-0.01949099199907262,
0.0400997506234414,-0.03341409179914299,
0.040149625935162095,-0.009978348184074587,
0.04019950124688279,-0.01116946199285552,
0.04024937655860349,-0.03069231666777999,
0.04029925187032419,-0.007863192473188053,
0.040349127182044885,-0.032525077448814124,
0.04039900249376559,-0.025599847225321225,
0.04044887780548628,0.012527021441790926,
0.040498753117206986,-0.009102533309085368,
0.04054862842892768,-0.04104364784874513,
0.04059850374064838,0.0026531931041132144,
0.04064837905236908,-0.018240098665769467,
0.040698254364089775,-0.017448951734431964,
0.04074812967581047,-0.014484196180482242,
0.040798004987531174,-0.00632450843714658,
0.04084788029925187,-0.025698104590497414,
0.040897755610972565,-0.029885739514688713,
0.04094763092269327,0.0009957138096640967,
0.04099750623441396,0.005350229537065895,
0.041047381546134666,0.001979958566677445,
0.04109725685785536,0.003993143831328963,
0.04114713216957606,-0.017450469501014535,
0.04119700748129676,-0.022207976258304667,
0.041246882793017456,0.01773627448061136,
0.04129675810473815,-0.032174218864575846,
0.041346633416458854,-0.0020381775329060227,
0.04139650872817955,-0.002922826838541402,
0.04144638403990025,-0.025438171196887488,
0.04149625935162095,-0.026673485498491183,
0.041546134663341644,-0.007331634702300771,
0.04159600997506235,0.015648650222244365,
0.04164588528678304,-0.007688261123337602,
0.04169576059850374,-0.011764228194189187,
0.04174563591022444,0.0012802802094134362,
0.041795511221945136,0.021634152571637043,
0.04184538653366583,0.0014432468646688318,
0.041895261845386535,-0.02027285443798883,
0.04194513715710723,0.014200769764185746,
0.04199501246882793,0.011044655904626187,
0.04204488778054863,0.01975590219457874,
0.042094763092269324,0.022407315041258282,
0.04214463840399003,-0.003081021167501549,
0.04219451371571072,-0.007026686864293835,
0.04224438902743142,-0.023346038141372698,
0.04229426433915212,-0.0075303948409042275,
0.04234413965087282,-0.006497737671173887,
0.04239401496259352,-0.01377348370255888,
0.042443890274314215,-0.0033018983105331835,
0.04249376558603491,0.007057221303693099,
0.042543640897755614,0.016012139623440193,
0.04259351620947631,-0.03813519709102018,
0.042643391521197005,0.029132779154507668,
0.04269326683291771,-0.0048422130720806224,
0.0427431421446384,-0.010843996994931418,
0.0427930174563591,0.0002595404923781921,
0.0428428927680798,0.0012111045443082605,
0.0428927680798005,-0.021159859075271032,
0.0429426433915212,-0.027820863679755305,
0.042992518703241896,-0.0007852735043615108,
0.04304239401496259,-0.021626917269705306,
0.043092269326683294,-0.030518888151505347,
0.04314214463840399,-0.016290302624904236,
0.043192019950124685,0.017551733482045785,
0.04324189526184539,0.016747151099834216,
0.043291770573566084,-0.013668453889102159,
0.043341645885286786,0.026903345333190103,
0.04339152119700748,-0.015713592051794796,
0.04344139650872818,0.022604058284598976,
0.04349127182044888,0.01778843249232246,
0.043541147132169576,-0.002462710863108836,
0.04359102244389027,0.015837087439892254,
0.043640897755610975,0.008696905766171263,
0.04369077306733167,0.011913091511774169,
0.043740648379052366,0.00024607887486125576,
0.04379052369077307,-0.0034004168904478316,
0.043840399002493764,0.04525768573262341,
0.04389027431421447,0.027309557731141937,
0.04394014962593516,0.024556928272982104,
0.04399002493765586,0.015319384668538615,
0.04403990024937656,0.011592096726475903,
0.04408977556109726,0.023122047927741834,
0.04413965087281795,0.021817297978726648,
0.044189526184538655,0.029850309116229504,
0.04423940149625935,0.005176563476578851,
0.04428927680798005,0.018219673795678713,
0.04433915211970075,0.005422995511780395,
0.044389027431421445,0.03237347071163383,
0.04443890274314215,0.0063578096349383075,
0.04448877805486284,0.011316054696374516,
0.04453865336658354,0.013864483096401235,
0.04458852867830424,0.016770040304050434,
0.04463840399002494,-0.02225727034375609,
0.04468827930174563,-0.010839565174030428,
0.044738154613466335,0.024919144269519664,
0.04478802992518703,0.01802211292219126,
0.044837905236907734,0.04628807995748728,
0.04488778054862843,0.010710249216571146,
0.044937655860349125,-0.010603079795074775,
0.04498753117206983,0.007038608931698208,
0.045037406483790524,-0.025979981806734456,
0.04508728179551122,0.011624041488579385,
0.04513715710723192,0.010499280342998383,
0.04518703241895262,0.01969932238424748,
0.04523690773067331,0.035398414616519304,
0.045286783042394016,0.029246477529036613,
0.04533665835411471,-0.01590678978073365,
0.045386533665835414,0.032372783222212875,
0.04543640897755611,0.026007701570689955,
0.045486284289276806,0.026940476000555685,
0.04553615960099751,0.005838881724355651,
0.045586034912718204,0.01947030064878675,
0.0456359102244389,0.03066006028828882,
0.0456857855361596,0.002618220894996715,
0.0457356608478803,0.019990990098640065,
0.045785536159601,0.032972640586877405,
0.045835411471321696,-0.006823503445479159,
0.04588528678304239,0.016964079880762175,
0.045935162094763095,0.009493678722648672,
0.04598503740648379,0.017101806387678397,
0.046034912718204486,0.013867731229757357,
0.04608478802992519,0.0015337131315399273,
0.046134663341645885,0.01758132806800726,
0.04618453865336658,0.004790111666346845,
0.04623441396508728,0.032683494066946595,
0.04628428927680798,0.012579156209221513,
0.04633416458852868,0.020210708678987183,
0.04638403990024938,-0.012103144905988603,
0.04643391521197007,0.03839964811612501,
0.046483790523690775,0.030152641684907524,
0.04653366583541147,0.006990591019699141,
0.04658354114713217,0.01307771904941372,
0.04663341645885287,0.060268196997201165,
0.046683291770573565,0.0369147070013993,
0.04673316708229427,0.012768878635076286,
0.04678304239401496,0.03885005097727852,
0.04683291770573566,0.00888647537127113,
0.04688279301745636,0.009808441501832053,
0.04693266832917706,-0.01176325996944471,
0.04698254364089775,0.048764625761595695,
0.047032418952618456,0.04093829372259758,
0.04708229426433915,0.04314832742218769,
0.04713216957605985,0.01791836695077856,
0.04718204488778055,0.028539043427867863,
0.047231920199501246,0.0631918744402456,
0.04728179551122195,0.015154963549061463,
0.047331670822942644,0.038618525538605404,
0.04738154613466334,0.06775724877399973,
0.04743142144638404,0.04974709796570347,
0.04748129675810474,0.03655022717421162,
0.047531172069825434,-0.013578602268308218,
0.047581047381546136,0.01647673681203344,
0.04763092269326683,0.02896615425306018,
0.047680798004987535,0.0436088145743147,
0.04773067331670823,0.019048193882011503,
0.047780548628428926,0.04297316875502534,
0.04783042394014963,0.058046391236945216,
0.047880299251870324,0.0307468690742372,
0.04793017456359102,0.03065325980944158,
0.04798004987531172,0.016259338231742613,
0.04802992518703242,0.03040030113644244,
0.048079800498753114,0.022306388680722378,
0.04812967581047382,0.05249704058095948,
0.04817955112219451,0.042412595341752415,
0.048229426433915215,0.04050763873972658,
0.04827930174563591,0.023103429930259402,
0.048329177057356607,0.030267239261508826,
0.04837905236907731,0.022287377153077204,
0.048428927680798005,0.05066202001009315,
0.0484788029925187,0.04214873316741985,
0.0485286783042394,0.039219678158257096,
0.0485785536159601,0.01611836089774867,
0.048628428927680795,0.010065677141023747,
0.0486783042394015,0.0039873132321200135,
0.04872817955112219,0.005505613761436445,
0.048778054862842896,0.02564781013321302,
0.04882793017456359,0.019277871427514432,
0.04887780548628429,0.01920711312486138,
0.04892768079800499,0.019286597720803312,
0.048977556109725685,0.018696406674362002,
0.04902743142144638,0.04488273476430471,
0.049077306733167084,0.028995887634074357,
0.04912718204488778,0.016860111292359585,
0.04917705735660848,0.003733077341048642,
0.04922693266832918,0.03815893844446139,
0.04927680798004987,0.033331783794320016,
0.049326683291770576,0.03273494419980841,
0.04937655860349127,0.023081610869142892,
0.04942643391521197,0.015795581050165042,
0.04947630922693267,0.013457429017929129,
0.049526184538653366,0.032244769627710404,
0.04957605985037406,0.0256470733944855,
0.049625935162094764,0.033947573010058914,
0.04967581047381546,0.032055070265618484,
0.04972568578553616,0.019213143957673012,
0.04977556109725686,0.038398248413140865,
0.049825436408977554,0.024315924175236273,
0.04987531172069826,0.01508014668657953,
0.04992518703241895,0.033204595481989035,
0.04997506234413965,0.011009029226849093,
0.05002493765586035,0.03327866800032797,
0.050074812967581046,0.017558065350672843,
0.05012468827930175,0.023280242544900735,
0.050174563591022445,0.05043473173012653,
0.05022443890274314,0.04042304224577528,
0.05027431421446384,0.025762863341054938,
0.05032418952618454,0.026160251844689536,
0.050374064837905234,0.014032091969601382,
0.05042394014962594,0.009498154432524799,
0.05047381546134663,0.023281436982859796,
0.05052369077306733,-0.002010940010903243,
0.05057356608478803,0.031349453494687395,
0.05062344139650873,0.011169006957304765,
0.05067331670822943,0.00476450518957053,
0.050723192019950125,0.012144841528592215,
0.05077306733167082,0.005735781299990764,
0.050822942643391524,0.005597599365384237,
0.05087281795511222,0.012883273781619624,
0.050922693266832915,0.01597460573505703,
0.05097256857855362,-0.002885651681683355,
0.05102244389027431,-0.015771807434416182,
0.051072319201995016,0.009961521744008994,
0.05112219451371571,0.013953749501434272,
0.05117206982543641,0.028404544972739885,
0.05122194513715711,0.021226888341930927,
0.051271820448877806,0.01663834593581704,
0.0513216957605985,0.02881835548642856,
0.051371571072319204,-0.024121229260443824,
0.0514214463840399,0.025827405521519655,
0.051471321695760595,-0.004959655575003292,
0.0515211970074813,-0.000953101553315799,
0.051571072319201994,0.016227096414226126,
0.051620947630922696,0.023286772500535822,
0.05167082294264339,0.0007142447601332196,
0.05172069825436409,0.0077951968633751334,
0.05177057356608479,-0.007331129405023656,
0.051820448877805486,-0.0057699554131229475,
0.05187032418952618,0.0006304057654333787,
0.051920199501246884,0.012209967974545457,
0.05197007481296758,0.014281585614879161,
0.052019950124688276,-0.003793163715786035,
0.05206982543640898,0.00817635306814039,
0.052119700748129674,0.018578801309563978,
0.05216957605985038,0.0272080980259578,
0.05221945137157107,0.008946490313400064,
0.05226932668329177,0.0056482423805933515,
0.05231920199501247,0.004273823431450228,
0.05236907730673317,0.017785191601543508,
0.05241895261845386,0.01180939946606897,
0.052468827930174565,-0.018894316753908336,
0.05251870324189526,0.017027845968033722,
0.05256857855361596,0.013357832281247687,
0.05261845386533666,-0.0059826765878020155,
0.052668329177057355,-0.0010633789993454929,
0.05271820448877806,0.0031182545467863506,
0.05276807980049875,0.00479157006881389,
0.05281795511221945,0.009270409779791084,
0.05286783042394015,-0.0016524889453677074,
0.05291770573566085,0.0061410972492363805,
0.05296758104738154,-0.01406574162952618,
0.053017456359102245,0.03555930068365999,
0.05306733167082294,-0.006673252745676999,
0.053117206982543644,0.003895199495864467,
0.05316708229426434,0.017018188976181424,
0.053216957605985035,0.013718768869289726,
0.05326683291770574,0.04095859808323204,
0.053316708229426434,0.003788625668859762,
0.05336658354114713,-0.009741802758410186,
0.05341645885286783,0.02186740755766616,
0.05346633416458853,-0.00957289698719922,
0.05351620947630923,0.0027797995287868527,
0.053566084788029926,-0.020986742980370825,
0.05361596009975062,0.009976928402896195,
0.053665835411471324,0.0038295799473824534,
0.05371571072319202,-0.023577930681038875,
0.053765586034912716,0.010672588715517302,
0.05381546134663342,-0.02064599900385944,
0.053865336658354114,0.012884625483278438,
0.05391521197007481,0.001382526283834847,
0.05396508728179551,-0.004329528042694384,
0.05401496259351621,0.005115814584854669,
0.05406483790523691,-0.002463886531753875,
0.054114713216957606,-0.01372512760607841,
0.0541645885286783,-0.020864406452492944,
0.054214463840399005,-0.0019188385142839587,
0.0542643391521197,-0.0032046525792931,
0.054314214463840396,-0.02749081908553791,
0.0543640897755611,-0.0277879074889631,
0.054413965087281795,-0.029433847624927675,
0.0544638403990025,-0.02335935281126998,
0.05451371571072319,0.004997230949206803,
0.05456359102244389,0.020845687096906637,
0.05461346633416459,-0.023286662699149027,
0.05466334164588529,0.01058232552558602,
0.05471321695760598,0.0014742901957377832,
0.054763092269326685,-0.035111956174454596,
0.05481296758104738,-0.006128294608859178,
0.05486284289276808,-0.03527342695468126,
0.05491271820448878,0.0074497946794658595,
0.054962593516209475,-0.00021499068260323086,
0.05501246882793018,0.009563770241579372,
0.05506234413965087,-0.029328702908775647,
0.05511221945137157,-0.0020350266786929964,
0.05516209476309227,-0.020394513582021993,
0.05521197007481297,-0.005021299617759366,
0.05526184538653366,-0.012683447949041056,
0.055311720698254366,-0.008080084921672285,
0.05536159600997506,-0.007298250012976068,
0.05541147132169576,-0.04192247954469312,
0.05546134663341646,-0.006576847253728809,
0.055511221945137156,0.020759947165289932,
0.05556109725685786,-0.005485327955382222,
0.055610972568578554,-0.011434938117137427,
0.05566084788029925,0.008801364690377858,
0.05571072319201995,-0.026798624591682182,
0.05576059850374065,-0.006159513208084946,
0.055810473815461344,-0.026953132568508873,
0.055860349127182046,0.0032304664655780427,
0.05591022443890274,-0.01571708353124139,
0.055960099750623445,-0.03415192392537297,
0.05600997506234414,0.0054095835976306385,
0.056059850374064836,-0.032357623903015824,
0.05610972568578554,-0.012333571775021,
0.056159600997506234,-0.033801012901984326,
0.05620947630922693,-0.054621490261611075,
0.05625935162094763,-0.019142567913521508,
0.05630922693266833,-0.04259887075770684,
0.056359102244389024,-0.01278573382639961,
0.05640897755610973,-0.015067317683768334,
0.05645885286783042,-0.01063255596431481,
0.056508728179551125,-0.03723507254207656,
0.05655860349127182,-0.03315841757886945,
0.056608478802992516,-0.008197296341243589,
0.05665835411471322,-0.010930631723984965,
0.056708229426433915,-0.019167062621778374,
0.05675810473815461,0.0001693574288665501,
0.05680798004987531,-0.022284664359751613,
0.05685785536159601,-0.008130072546162378,
0.05690773067331671,-0.00030155773981182035,
0.05695760598503741,-0.015162458153662657,
0.0570074812967581,-0.004161989058798282,
0.057057356608478806,0.0006713796742527853,
0.0571072319201995,-0.013418453672627692,
0.0571571072319202,-0.040696043625805825,
0.0572069825436409,-0.025570369676126595,
0.057256857855361595,-0.006161856444234042,
0.05730673316708229,0.005385679936471675,
0.057356608478802994,-0.043510799512141415,
0.05740648379052369,0.013499939319900522,
0.05745635910224439,-0.007411883378911303,
0.05750623441396509,-0.0197161216794771,
0.05755610972568578,-0.0016541231719146721,
0.057605985037406486,-0.01780655435048248,
0.05765586034912718,-0.01202348565148368,
0.05770573566084788,-0.03805237200095006,
0.05775561097256858,-0.015787469404833374,
0.057805486284289276,-0.021134269095757774,
0.05785536159600998,-0.024835643645967225,
0.057905236907730674,-0.027923999348589378,
0.05795511221945137,-0.01540677939039071,
0.05800498753117207,0.010414555613877365,
0.05805486284289277,-0.0218679859110546,
0.058104738154613464,-0.01066231004990743,
0.05815461346633417,-0.003055900017407579,
0.05820448877805486,-0.007040566682887836,
0.05825436408977556,-0.011639187533466998,
0.05830423940149626,-0.009102213983133602,
0.058354114713216956,-0.015121441910981066,
0.05840399002493766,-0.022784822551356138,
0.058453865336658355,-0.005936749191492813,
0.05850374064837905,-0.024555297401324234,
0.05855361596009975,-0.03257619838719576,
0.05860349127182045,-0.007338506832639948,
0.058653366583541144,-0.0003637083099960192,
0.05870324189526185,-0.020205437037286424,
0.05875311720698254,-0.008403591849879918,
0.05880299251870324,-0.030196651191012114,
0.05885286783042394,-0.02350626403818002,
0.05890274314214464,-0.021230461143783054,
0.05895261845386534,0.009148309616020771,
0.059002493765586035,-0.013457267118787149,
0.05905236907730673,-0.018968783342239788,
0.059102244389027433,-0.0009931611231346529,
0.05915211970074813,0.0017289931400813023,
0.059201995012468825,-0.007742883980273392,
0.05925187032418953,-0.014850047205938698,
0.05930174563591022,-0.027999926523429676,
0.059351620947630926,-0.016886876580063073,
0.05940149625935162,-0.013789641973229272,
0.05945137157107232,-0.027693640967897476,
0.05950124688279302,0.001668026008543641,
0.059551122194513716,0.0014118206005043887,
0.05960099750623441,-0.008589945546820934,
0.059650872817955114,-0.029203496501658592,
0.05970074812967581,-0.016974577362461066,
0.059750623441396505,-0.028565566794559488,
0.05980049875311721,-0.008008626252021547,
0.059850374064837904,-0.02529120589017555,
0.059900249376558606,-0.00037268426281123444,
0.0599501246882793,0.011975017418168537,
0.06,0.0028669550891712078,
0.0600498753117207,-0.019251882095839216,
0.060099750623441396,-0.02630928772717253,
0.06014962593516209,-0.022601427031174133,
0.060199501246882794,-0.029262404155975835,
0.06024937655860349,-0.00587040404490808,
0.06029925187032419,-0.018903245443846618,
0.06034912718204489,-0.01032563211412058,
0.060399002493765584,-0.001885989633453088,
0.06044887780548629,-0.015507751473527993,
0.06049875311720698,-0.04156535873327823,
0.06054862842892768,-0.0068877487528279,
0.06059850374064838,-0.024500757990570537,
0.06064837905236908,-0.01839992565108074,
0.06069825436408977,0.011584015447293174,
0.060748129675810475,-0.027365978862869608,
0.06079800498753117,0.006288703406676723,
0.06084788029925187,-0.006956851414088402,
0.06089775561097257,-0.015778923293672666,
0.060947630922693265,-0.004229643931665939,
0.06099750623441397,-0.007095406865737778,
0.06104738154613466,-0.017366337508809594,
0.06109725685785536,-0.009103755807375576,
0.06114713216957606,-0.012954177618885185,
0.06119700748129676,0.006506992952495744,
0.06124688279301746,-0.0033559886052649222,
0.061296758104738155,0.03747314689455385,
0.06134663341645885,-0.006826450334678574,
0.061396508728179554,-0.017939774277081037,
0.06144638403990025,0.010800568537092627,
0.061496259351620945,0.009820756029902743,
0.06154613466334165,-0.012348781962815296,
0.061596009975062344,-0.013283554834524373,
0.06164588528678304,-0.0005368523341128663,
0.06169576059850374,-0.009860874508141,
0.06174563591022444,0.029325771358640177,
0.06179551122194514,0.02107190796286351,
0.061845386533665836,-0.0035078693233899366,
0.06189526184538653,-0.02071820503940422,
0.061945137157107234,-0.0036377851509603173,
0.06199501246882793,0.011398204056625692,
0.062044887780548626,0.013183300000423722,
0.06209476309226933,0.017128822154385985,
0.062144638403990024,0.000660000726406746,
0.06219451371571072,-0.009294397360614524,
0.06224438902743142,0.006624139227345148,
0.06229426433915212,0.013009510050417627,
0.06234413965087282,0.021668562264371402,
0.062394014962593516,-0.0029401668340158713,
0.06244389027431421,-0.008073078619733099,
0.062493765586034915,0.014591764859529795,
0.06254364089775562,0.0012230704091306423,
0.06259351620947631,0.007016785881996032,
0.06264339152119701,0.006389814576630604,
0.0626932668329177,-0.002984388111607004,
0.0627431421446384,0.0038636226874281853,
0.0627930174563591,0.027257428140963023,
0.0628428927680798,-0.0017227382017316927,
0.0628927680798005,8.212698149869012e-05,
0.0629426433915212,0.0041553588612678605,
0.06299251870324189,-0.03655123793472212,
0.06304239401496259,-0.007492184791307936,
0.0630922693266833,0.011224007796180135,
0.063142144638404,-0.011451759354937217,
0.06319201995012469,-0.008964304550608971,
0.06324189526184539,0.017294465591767182,
0.06329177057356608,0.017984459202280464,
0.06334164588528678,0.0016187628717959342,
0.06339152119700749,0.025006412467448218,
0.06344139650872818,0.01687357779699985,
0.06349127182044888,0.004248026835222218,
0.06354114713216957,0.011973394557820705,
0.06359102244389027,-0.0072821754461883815,
0.06364089775561098,-0.011740551736098401,
0.06369077306733167,-0.0016780191669467336,
0.06374064837905237,0.0008866688343963361,
0.06379052369077307,0.006694930535342968,
0.06384039900249376,0.0018277647460491772,
0.06389027431421446,-0.0038561413365861344,
0.06394014962593517,0.017507700240474044,
0.06399002493765586,0.02390319259143396,
0.06403990024937656,0.005912430901379979,
0.06408977556109725,0.011317623755686446,
0.06413965087281795,0.049103874391115965,
0.06418952618453866,0.017674101410410595,
0.06423940149625935,0.009762727616890624,
0.06428927680798005,0.0023925348722713072,
0.06433915211970075,0.007518333382061148,
0.06438902743142144,-0.006509627762611941,
0.06443890274314215,0.011087423567498826,
0.06448877805486285,0.019639697251175238,
0.06453865336658354,0.010930312914155693,
0.06458852867830424,0.010812125974720989,
0.06463840399002493,0.00950823452730749,
0.06468827930174563,-0.013048911053012851,
0.06473815461346634,0.039546150900599195,
0.06478802992518704,0.016047570948043953,
0.06483790523690773,0.044749022365761226,
0.06488778054862843,0.020803431038700502,
0.06493765586034912,0.006736382932456486,
0.06498753117206983,0.015749812950755643,
0.06503740648379053,0.026749394219759068,
0.06508728179551122,0.04040249258379401,
0.06513715710723192,0.025642773111005185,
0.06518703241895261,0.0306458000027413,
0.06523690773067331,0.016718378315516657,
0.06528678304239402,0.019065313253924483,
0.06533665835411472,0.03387996261954381,
0.06538653366583541,0.017528913084743636,
0.06543640897755611,-0.009228702620174816,
0.0654862842892768,0.04910845132194516,
0.06553615960099751,0.007274555016050984,
0.06558603491271821,0.03787727730977963,
0.0656359102244389,0.02739462526729412,
0.0656857855361596,0.006720382989084544,
0.0657356608478803,-0.002547311733346113,
0.06578553615960099,0.021422989813877448,
0.0658354114713217,0.026419131607208286,
0.0658852867830424,0.012449929970560034,
0.06593516209476309,0.029180949562389334,
0.06598503740648379,0.01712493070432871,
0.06603491271820448,0.0011847372427937312,
0.06608478802992519,0.029238140384787045,
0.06613466334164589,0.03798576630169205,
0.06618453865336658,0.022600339458132432,
0.06623441396508728,0.034764458391643514,
0.06628428927680798,0.009381148833518886,
0.06633416458852869,0.03827708769752525,
0.06638403990024938,0.027861701998821244,
0.06643391521197008,0.01775976548574618,
0.06648379052369077,0.04949457243437708,
0.06653366583541147,0.017669725423544294,
0.06658354114713216,0.0136449397675131,
0.06663341645885287,-0.0023634817472567675,
0.06668329177057357,0.034646095369885326,
0.06673316708229426,0.016693730021731773,
0.06678304239401496,0.03965174178067946,
0.06683291770573566,-0.0020892002085828067,
0.06688279301745637,-0.0009755846210071015,
0.06693266832917706,0.03018310136978327,
0.06698254364089776,0.024287850790708335,
0.06703241895261845,0.023066126985588006,
0.06708229426433915,0.002483068258100938,
0.06713216957605984,0.01014051708903255,
0.06718204488778055,0.03015106925071325,
0.06723192019950125,0.05326265331960346,
0.06728179551122195,0.03063515777745455,
0.06733167082294264,0.029038444531647147,
0.06738154613466334,0.04375393236998446,
0.06743142144638405,0.021838130816607536,
0.06748129675810474,0.022927294135186554,
0.06753117206982544,0.0038620045947707696,
0.06758104738154613,0.022791373565945423,
0.06763092269326683,0.02737071243730661,
0.06768079800498752,0.04226409736477378,
0.06773067331670823,0.040117776152256576,
0.06778054862842893,0.04226629656344669,
0.06783042394014963,0.02154745271212128,
0.06788029925187032,0.020783345234583417,
0.06793017456359102,0.04526524768782415,
0.06798004987531173,0.01620635227729987,
0.06802992518703242,0.030316061692318128,
0.06807980049875312,0.0126676610688125,
0.06812967581047381,0.029005550570541026,
0.06817955112219451,0.03937734441371765,
0.0682294264339152,0.0018695314358030922,
0.06827930174563591,0.024083952339377865,
0.06832917705735661,0.03933204009649412,
0.0683790523690773,0.038641898986222875,
0.068428927680798,0.01236930014945844,
0.0684788029925187,0.03198798094125362,
0.06852867830423941,0.009979154865062982,
0.0685785536159601,0.019346944484617698,
0.0686284289276808,0.04466433818241164,
0.0686783042394015,0.04471130661219762,
0.06872817955112219,0.015441248760449975,
0.0687780548628429,0.01762172335785495,
0.0688279301745636,0.022353356363103875,
0.06887780548628429,0.04717359583089063,
0.06892768079800499,0.030234094971328604,
0.06897755610972568,0.028613315410609422,
0.06902743142144638,0.04879209547810886,
0.06907730673316709,0.04737728192792384,
0.06912718204488778,0.04659811736368705,
0.06917705735660848,0.044643149916018685,
0.06922693266832917,0.02267419678417492,
0.06927680798004987,0.022951128493608648,
0.06932668329177058,0.03248336303590253,
0.06937655860349128,0.026602583241894205,
0.06942643391521197,0.025769663860213503,
0.06947630922693267,0.044745665849160704,
0.06952618453865336,0.004881476532595443,
0.06957605985037406,0.0065100782692480395,
0.06962593516209477,-0.0016694761544051272,
0.06967581047381546,0.05328753950842485,
0.06972568578553616,0.00877703579294779,
0.06977556109725686,0.0031264440267772878,
0.06982543640897755,0.02281046975706412,
0.06987531172069826,0.009456807631919698,
0.06992518703241896,0.03650011345557294,
0.06997506234413965,0.029191265314783634,
0.07002493765586035,0.008264642204277774,
0.07007481296758104,0.015625873460024708,
0.07012468827930174,0.027755905435678616,
0.07017456359102245,0.018128836034388456,
0.07022443890274314,-0.0036975724251995974,
0.07027431421446384,0.01709670140534389,
0.07032418952618454,0.020953731926624405,
0.07037406483790523,-0.008601730195680078,
0.07042394014962594,0.007154314664578453,
0.07047381546134664,0.01675442674898198,
0.07052369077306733,0.01839695425342551,
0.07057356608478803,0.026411275196427927,
0.07062344139650872,0.028119570852445853,
0.07067331670822943,0.010964216137734352,
0.07072319201995013,0.004734257797595499,
0.07077306733167082,0.031178800509604584,
0.07082294264339152,0.02321850163339821,
0.07087281795511222,0.016952451640939253,
0.07092269326683291,0.05053375697567623,
0.07097256857855362,0.029622450035705024,
0.07102244389027432,0.016166846877663114,
0.07107231920199501,0.009623159653582573,
0.07112219451371571,0.03059132677129983,
0.0711720698254364,0.014210740534326033,
0.07122194513715711,0.019813166534307362,
0.07127182044887781,0.01455016028905621,
0.0713216957605985,0.02408554096111934,
0.0713715710723192,0.021682852025201593,
0.0714214463840399,0.04709187160344757,
0.07147132169576059,0.026880309991809674,
0.0715211970074813,0.00896558913732495,
0.071571072319202,0.006277294320296866,
0.0716209476309227,-0.015724765165730632,
0.07167082294264339,0.006422903602229983,
0.07172069825436408,0.027154854123110084,
0.0717705735660848,0.008540491785536649,
0.07182044887780549,0.000987150635678509,
0.07187032418952619,-0.005677008521811723,
0.07192019950124688,0.021567529791378992,
0.07197007481296758,0.01293312946779307,
0.07201995012468827,0.026805136793961244,
0.07206982543640898,0.016463255347534907,
0.07211970074812968,-0.0006252628146641535,
0.07216957605985037,0.006229186509626929,
0.07221945137157107,0.034933267004463336,
0.07226932668329177,0.02729817823315776,
0.07231920199501247,0.007026366753239516,
0.07236907730673317,0.0008522559127686694,
0.07241895261845387,0.02899606524243452,
0.07246882793017456,-0.00318305258943807,
0.07251870324189526,-0.004746201379951227,
0.07256857855361595,0.000331873959693833,
0.07261845386533666,0.015032140533645651,
0.07266832917705736,-0.0030071578871089053,
0.07271820448877805,0.00014888566868414242,
0.07276807980049875,0.00568724557608018,
0.07281795511221945,-0.013852022054866986,
0.07286783042394016,0.005472141481277966,
0.07291770573566085,-0.003575628679368778,
0.07296758104738155,-0.004750246367902587,
0.07301745635910224,0.015011527871858167,
0.07306733167082294,0.0118968998284052,
0.07311720698254365,0.04173857723739361,
0.07316708229426434,0.0013751567388298482,
0.07321695760598504,-0.015098251369351503,
0.07326683291770573,0.042338670561250034,
0.07331670822942643,0.010429180791715578,
0.07336658354114713,0.008396009135116364,
0.07341645885286784,0.023757636859304182,
0.07346633416458853,-0.019608405580397857,
0.07351620947630923,-0.002907047501521659,
0.07356608478802992,0.0013393728013290126,
0.07361596009975062,0.012328076585330175,
0.07366583541147133,-0.007908403766258183,
0.07371571072319202,0.0036676598286555125,
0.07376558603491272,-0.013035142511582356,
0.07381546134663342,-0.014504430819171034,
0.07386533665835411,-0.016483431404169187,
0.0739152119700748,-0.0011293112161184682,
0.07396508728179552,0.00251170818719104,
0.07401496259351621,0.00907744650616888,
0.07406483790523691,-0.004901239742920172,
0.0741147132169576,0.006712463440362323,
0.0741645885286783,-0.00926131188793972,
0.07421446384039901,0.005940803503877169,
0.0742643391521197,-0.01430194284653081,
0.0743142144638404,-0.002291735265829136,
0.0743640897755611,0.008355907339554339,
0.07441396508728179,-0.009775083272058636,
0.07446384039900249,0.020211854477806906,
0.0745137157107232,-0.007682190618948441,
0.07456359102244389,-0.030887349327817618,
0.07461346633416459,-0.015168079439110227,
0.07466334164588528,0.0013264911351817338,
0.07471321695760598,-0.004623108251955216,
0.07476309226932669,-0.008865057399909108,
0.07481296758104738,-0.002010153564665201,
0.07486284289276808,0.007058240545283221,
0.07491271820448878,-0.011846376154928456,
0.07496259351620947,-0.010606956154670708,
0.07501246882793017,-0.03481366828319797,
0.07506234413965088,-0.02411502983248995,
0.07511221945137157,-0.009428909216877779,
0.07516209476309227,0.006789663059656513,
0.07521197007481296,-0.022298867216854694,
0.07526184538653366,0.009976949082132458,
0.07531172069825437,-0.023853058046023938,
0.07536159600997507,-0.008871058987868212,
0.07541147132169576,-0.015397379937775733,
0.07546134663341646,-0.021324177833533027,
0.07551122194513715,0.0036162267924534485,
0.07556109725685786,-0.02263863494810219,
0.07561097256857856,-0.010355257919594123,
0.07566084788029925,-0.010158618344904403,
0.07571072319201995,-0.024923642543556758,
0.07576059850374064,-0.003591248372503471,
0.07581047381546134,-0.016007611571736864,
0.07586034912718205,-0.01801082866602679,
0.07591022443890275,0.02416474218534754,
0.07596009975062344,0.01718456465942448,
0.07600997506234414,-0.011347791489661974,
0.07605985037406483,0.0030520002305713164,
0.07610972568578554,-0.00971038500828894,
0.07615960099750624,-0.009214733186525674,
0.07620947630922693,-0.01580595123788718,
0.07625935162094763,0.004281134987031029,
0.07630922693266833,-0.00507440220109679,
0.07635910224438902,-0.010365723441782364,
0.07640897755610973,-0.000992482103689546,
0.07645885286783043,-0.002133605776410705,
0.07650872817955112,-0.009255722295194873,
0.07655860349127182,-0.0052066793610047735,
0.07660847880299251,-0.017325630636574493,
0.07665835411471322,-0.0019022816123662953,
0.07670822942643392,-0.03485938142944975,
0.07675810473815461,-0.018989628099947455,
0.07680798004987531,0.00062154533943614,
0.076857855361596,-0.0485796431615288,
0.0769077306733167,-0.008941846237999889,
0.07695760598503741,-0.015041706261864934,
0.0770074812967581,0.006725494850622186,
0.0770573566084788,0.0010163404371543137,
0.0771072319201995,0.003806408667181571,
0.0771571072319202,-0.02155932513245689,
0.0772069825436409,-0.009197642628950214,
0.0772568578553616,-0.008433881320158617,
0.0773067331670823,-0.013701918879155249,
0.07735660847880299,-0.031483796090133416,
0.07740648379052369,-0.011280257153698904,
0.0774563591022444,0.004603260309539723,
0.07750623441396509,-0.020654889465060534,
0.07755610972568579,-0.024499367788200593,
0.07760598503740648,-0.011335377792408386,
0.07765586034912718,-0.017214620839634237,
0.07770573566084787,-0.028945179408692873,
0.07775561097256858,-0.027982697793194136,
0.07780548628428928,0.0032102535729203498,
0.07785536159600998,0.012081605796313285,
0.07790523690773067,-0.033034295716306436,
0.07795511221945137,-0.01836548549313875,
0.07800498753117208,-0.0019104185789943356,
0.07805486284289277,-0.010338720948294338,
0.07810473815461347,0.0034315763857852982,
0.07815461346633416,-0.0014157702372539372,
0.07820448877805486,0.0033024489063862156,
0.07825436408977555,0.0017685353547111145,
0.07830423940149626,-0.003644335493491741,
0.07835411471321696,-0.014986077828308372,
0.07840399002493766,-0.015098748671648883,
0.07845386533665835,-0.017580256388822504,
0.07850374064837905,-0.012047705193416906,
0.07855361596009976,-0.016855441869078502,
0.07860349127182045,-0.011480968000149416,
0.07865336658354115,-0.037910509876828175,
0.07870324189526184,0.012626637179055291,
0.07875311720698254,-0.008746133964233401,
0.07880299251870324,-0.00589796067572129,
0.07885286783042394,-0.007655090124774926,
0.07890274314214464,-0.031945421180204034,
0.07895261845386534,-0.005585928872324623,
0.07900249376558603,-0.01599284368288594,
0.07905236907730673,-0.004429311925343784,
0.07910224438902744,-0.05755663302665012,
0.07915211970074813,-0.0280199667465907,
0.07920199501246883,-0.008716871199457962,
0.07925187032418952,-0.011276419364836199,
0.07930174563591022,0.025873392853366588,
0.07935162094763092,-0.006125681709435248,
0.07940149625935163,-0.019907857928701842,
0.07945137157107232,-0.022601229966894128,
0.07950124688279302,0.015439344243395974,
0.07955112219451371,-0.03333463370290736,
0.07960099750623441,0.01291284472521368,
0.07965087281795512,-0.012763594776196364,
0.07970074812967581,-0.04021697855782213,
0.07975062344139651,-0.005718966508594494,
0.0798004987531172,-0.009560155297677961,
0.0798503740648379,-0.027803599903688463,
0.07990024937655861,-0.011792292571968446,
0.0799501246882793,-0.013707777763328289,
0.08,-0.008845329720861538,
0.0800498753117207,0.0016167015885913474,
0.0800997506234414,0.005933398876754339,
0.08014962593516209,-0.015304488658661103,
0.0801995012468828,-0.010582022402562149,
0.0802493765586035,-0.01710095795459031,
0.08029925187032419,-0.004552589517335469,
0.08034912718204489,-0.01674788800026766,
0.08039900249376558,-0.009233017440294226,
0.08044887780548629,-0.02913483882391625,
0.08049875311720699,-0.013962327040732088,
0.08054862842892768,-0.04129914185928718,
0.08059850374064838,-0.007008004925797371,
0.08064837905236907,-0.0005475016310981596,
0.08069825436408977,-0.01276798403644333,
0.08074812967581048,-0.013264599793525133,
0.08079800498753117,-0.006224700421787473,
0.08084788029925187,-0.005991094698091438,
0.08089775561097257,0.0001768246455810269,
0.08094763092269326,-0.010242233259449977,
0.08099750623441397,-0.011941537997556415,
0.08104738154613467,-0.016010017247179348,
0.08109725685785536,0.002403640316185204,
0.08114713216957606,-0.0035301478492185427,
0.08119700748129675,0.005566769029186165,
0.08124688279301745,0.029852420934689886,
0.08129675810473816,-0.005583827201057454,
0.08134663341645886,-0.017120964250015597,
0.08139650872817955,-0.0025373980269268346,
0.08144638403990025,-0.010536694704554116,
0.08149625935162094,-0.031212191262152897,
0.08154613466334165,-0.007354267208306893,
0.08159600997506235,-0.003767050529749857,
0.08164588528678304,0.00042560412725195637,
0.08169576059850374,0.0022085799706328133,
0.08174563591022443,0.007794959964818542,
0.08179551122194513,0.02031955974698898,
0.08184538653366584,-0.043122357575440196,
0.08189526184538654,-0.00988310536508342,
0.08194513715710723,-0.011638109927477613,
0.08199501246882793,0.014679302904436458,
0.08204488778054862,0.03081097266599559,
0.08209476309226933,0.01834641535875633,
0.08214463840399003,0.010831919172517544,
0.08219451371571072,0.006806476533112583,
0.08224438902743142,-0.018574298800447354,
0.08229426433915212,-0.007512371111788561,
0.08234413965087282,0.007883076506098978,
0.08239401496259352,-0.006081429078032586,
0.08244389027431422,0.0013861068617532207,
0.08249376558603491,0.01517516290356341,
0.08254364089775561,-0.01848617502744001,
0.0825935162094763,0.0016890017087253207,
0.08264339152119701,0.01262931989714113,
0.08269326683291771,0.00733014318099553,
0.0827431421446384,0.0012497737568200116,
0.0827930174563591,0.015871776946812143,
0.0828428927680798,0.006300261256111923,
0.0828927680798005,0.008513487683087686,
0.0829426433915212,0.002133509004254568,
0.0829925187032419,0.0009937867444630294,
0.08304239401496259,-0.0031363907894368616,
0.08309226932668329,0.013991284206232316,
0.08314214463840398,0.00740067021907315,
0.0831920199501247,0.009979512888650835,
0.08324189526184539,0.0033833360991500244,
0.08329177057356608,0.010249023017070487,
0.08334164588528678,-0.00041331361646138303,
0.08339152119700748,-0.007827053090455137,
0.08344139650872819,0.00018440007261713055,
0.08349127182044888,-0.003836962909160531,
0.08354114713216958,-0.009546680808532684,
0.08359102244389027,0.020717704320071292,
0.08364089775561097,-0.011777156151749093,
0.08369077306733166,0.005766072783981703,
0.08374064837905237,0.011211614972697823,
0.08379052369077307,0.003168938750336532,
0.08384039900249377,0.008252372873888518,
0.08389027431421446,0.0186923383047823,
0.08394014962593516,0.0006191464025242129,
0.08399002493765587,-0.012586917165719174,
0.08403990024937656,0.032548288694175295,
0.08408977556109726,-0.010088166544910342,
0.08413965087281795,0.026421878970231624,
0.08418952618453865,0.04237030587308487,
0.08423940149625936,0.014071419066593307,
0.08428927680798005,0.012590782788663775,
0.08433915211970075,0.01822940221950125,
0.08438902743142145,0.016436735339849497,
0.08443890274314214,0.010188265042641444,
0.08448877805486284,0.012774479853625596,
0.08453865336658355,-0.011348890161360533,
0.08458852867830424,0.020300753975196924,
0.08463840399002494,0.004772823353039468,
0.08468827930174563,-0.02151975981942049,
0.08473815461346633,0.024318943129985657,
0.08478802992518704,0.010975534545737135,
0.08483790523690773,0.020756157602175074,
0.08488778054862843,0.02661204543944693,
0.08493765586034913,0.01743404875217371,
0.08498753117206982,0.0037747669101831326,
0.08503740648379052,-0.0160543245392738,
0.08508728179551123,0.019295873775782933,
0.08513715710723192,0.013191864838378723,
0.08518703241895262,-0.022832101732657064,
0.08523690773067331,0.03213528795162557,
0.08528678304239401,0.017062301058719993,
0.08533665835411472,0.032706390446973196,
0.08538653366583542,0.025170446140515647,
0.08543640897755611,0.014349100515881104,
0.0854862842892768,0.008017194067403631,
0.0855361596009975,0.03567847240189975,
0.0855860349127182,0.027303516529216042,
0.08563591022443891,0.03757067388052865,
0.0856857855361596,0.043936061590050646,
0.0857356608478803,0.02416215380859225,
0.085785536159601,0.049649629604678294,
0.08583541147132169,0.036754901881750256,
0.0858852867830424,0.03526697124530471,
0.0859351620947631,0.029970324772284722,
0.08598503740648379,0.04988418835522458,
0.08603491271820449,0.035299403305770916,
0.08608478802992518,0.017970050947025397,
0.08613466334164588,0.017005703220078286,
0.08618453865336659,0.0536753215281575,
0.08623441396508728,0.03348420285248359,
0.08628428927680798,0.027031627201172345,
0.08633416458852868,0.03664834986624061,
0.08638403990024937,0.035070147158072336,
0.08643391521197008,0.014295752658624039,
0.08648379052369078,-0.0039256216284532,
0.08653366583541147,0.034275539890072565,
0.08658354114713217,0.024382444704927227,
0.08663341645885286,0.03974188445361104,
0.08668329177057357,0.020060725687232068,
0.08673316708229427,0.011677853701914875,
0.08678304239401496,0.01404107160659656,
0.08683291770573566,0.02480513366308847,
0.08688279301745636,0.023922755026038967,
0.08693266832917705,0.01443427118281603,
0.08698254364089776,0.019188465245607418,
0.08703241895261846,0.01059564110811571,
0.08708229426433915,0.02378261398313823,
0.08713216957605985,0.033006534987595516,
0.08718204488778054,0.03509534708689211,
0.08723192019950125,0.029089612290812313,
0.08728179551122195,0.04807383279623922,
0.08733167082294264,0.013548202299222715,
0.08738154613466334,0.043923875848714544,
0.08743142144638404,0.010326132075022827,
0.08748129675810473,0.03481132174712884,
0.08753117206982544,0.03948562053019409,
0.08758104738154614,0.06217008719537141,
0.08763092269326683,-0.008101859284002713,
0.08768079800498753,0.023969793272151395,
0.08773067331670822,0.003579223399702517,
0.08778054862842893,-0.0019256990477005097,
0.08783042394014963,0.04476531262443458,
0.08788029925187033,0.009156244339079526,
0.08793017456359102,0.0007479787622026619,
0.08798004987531172,0.02093970700707303,
0.08802992518703241,-0.008273608379549553,
0.08807980049875312,0.029956604671188474,
0.08812967581047382,0.021569270703143503,
0.08817955112219451,0.0066172876484882175,
0.08822942643391521,0.011016944129016406,
0.0882793017456359,-0.007314718125265081,
0.08832917705735661,0.04629378396075103,
0.08837905236907731,0.019356095968526922,
0.088428927680798,0.051200928246652844,
0.0884788029925187,0.023839333888862942,
0.0885286783042394,0.029025777117297476,
0.0885785536159601,0.04323589267993365,
0.0886284289276808,0.03663509259209902,
0.0886783042394015,0.015641756137038693,
0.0887281795511222,0.016906135633194274,
0.08877805486284289,0.03187711204050316,
0.08882793017456359,0.019234151077302506,
0.0888778054862843,0.027551493082375925,
0.08892768079800499,0.06322171355348996,
0.08897755610972569,0.03499834743939208,
0.08902743142144638,0.04575987376730935,
0.08907730673316708,-0.01812348624650721,
0.08912718204488779,0.0077075226765613535,
0.08917705735660848,0.041448102772073024,
0.08922693266832918,0.029600597275875763,
0.08927680798004987,0.025999029845584488,
0.08932668329177057,0.012576211467269616,
0.08937655860349127,0.03756522031590846,
0.08942643391521198,0.018825633771492368,
0.08947630922693267,0.0013348203188956846,
0.08952618453865337,0.008034199844016609,
0.08957605985037406,0.031447437462586436,
0.08962593516209476,-0.0003019395330854553,
0.08967581047381547,0.0257207377388103,
0.08972568578553616,0.010130858585286666,
0.08977556109725686,-0.0014837635329460232,
0.08982543640897755,0.035020982421138505,
0.08987531172069825,0.02783007635722396,
0.08992518703241895,0.029906628237802508,
0.08997506234413966,0.014204792671027585,
0.09002493765586035,0.034811174944438805,
0.09007481296758105,0.007168937946655227,
0.09012468827930174,0.022396508919350987,
0.09017456359102244,0.02852865098827487,
0.09022443890274315,0.04246247630244024,
0.09027431421446384,0.042285647389596046,
0.09032418952618454,0.017212727372446047,
0.09037406483790524,0.013244363763923272,
0.09042394014962593,0.04668980221950533,
0.09047381546134663,0.023008685022534392,
0.09052369077306734,-0.0018214204147861505,
0.09057356608478803,0.03555714074309618,
0.09062344139650873,0.009131853514358072,
0.09067331670822942,0.044208835936555446,
0.09072319201995012,0.032651990595827844,
0.09077306733167083,0.03629076604258451,
0.09082294264339152,0.040997014224929976,
0.09087281795511222,0.0055954166482753386,
0.09092269326683292,0.02793129223885677,
0.09097256857855361,0.042903476822314504,
0.09102244389027432,0.018383902146321733,
0.09107231920199502,0.015894445324202217,
0.09112219451371571,0.025633684716469235,
0.09117206982543641,0.013414380440529358,
0.0912219451371571,0.01211600443372864,
0.0912718204488778,-0.030595670188674134,
0.09132169576059851,0.007932924738238955,
0.0913715710723192,0.022472967915587894,
0.0914214463840399,0.028009375442490235,
0.0914713216957606,0.022893372340721984,
0.09152119700748129,0.03807295387287372,
0.091571072319202,0.0381740499887749,
0.0916209476309227,0.039019337307711885,
0.09167082294264339,0.02030159785626769,
0.09172069825436409,0.004538763769399736,
0.09177057356608478,0.004265802477123408,
0.09182044887780548,0.021478279390522458,
0.09187032418952619,0.0041282709568960015,
0.09192019950124689,-0.001003040238203353,
0.09197007481296758,0.029155983087913846,
0.09201995012468828,0.013569819337682495,
0.09206982543640897,-0.00946470001862535,
0.09211970074812968,0.007050897566020875,
0.09216957605985038,0.020827165366446125,
0.09221945137157107,-0.005425120820834246,
0.09226932668329177,0.041158644085457094,
0.09231920199501246,0.015808824589540804,
0.09236907730673316,0.03054791078903689,
0.09241895261845387,0.0010252751719556415,
0.09246882793017457,0.022931617421599056,
0.09251870324189526,0.0006204597500997586,
0.09256857855361596,-0.009911502322126281,
0.09261845386533665,0.0049667926123408215,
0.09266832917705736,0.004501663717519751,
0.09271820448877806,-0.0012205217920406523,
0.09276807980049875,0.04319442037768678,
0.09281795511221945,-0.0006328777626437229,
0.09286783042394015,0.002160627385839323,
0.09291770573566084,0.010750989406093703,
0.09296758104738155,-0.001392841246979245,
0.09301745635910225,0.018659278400576795,
0.09306733167082294,0.02796381122170138,
0.09311720698254364,0.02245342493254514,
0.09316708229426433,0.030901549321643677,
0.09321695760598504,0.03198668623662945,
0.09326683291770574,-0.0023879227756323455,
0.09331670822942643,0.01351735032792762,
0.09336658354114713,-0.009176425980880714,
0.09341645885286783,-0.013112515419242136,
0.09346633416458854,-0.011717816172472462,
0.09351620947630923,0.01851056079443659,
0.09356608478802993,0.016729128576464428,
0.09361596009975062,-0.0215139014487519,
0.09366583541147132,-0.0035661704577597798,
0.09371571072319201,-0.026666751769462503,
0.09376558603491272,0.009323897381490876,
0.09381546134663342,0.018722744124250665,
0.09386533665835411,0.012202323359782424,
0.09391521197007481,0.004045069831109435,
0.0939650872817955,0.014817024012802426,
0.09401496259351622,0.006098681505456707,
0.09406483790523691,-0.007884130044412858,
0.09411471321695761,0.02151516421152639,
0.0941645885286783,0.00032467386650806223,
0.094214463840399,-0.013726603840150215,
0.0942643391521197,-0.014381650997913276,
0.0943142144638404,-0.023440314409736353,
0.0943640897755611,-0.01318027183776425,
0.0944139650872818,-0.008539663756401531,
0.09446384039900249,-0.008443469250805987,
0.09451371571072319,0.003176984549770891,
0.0945635910224439,0.009355029647614603,
0.09461346633416459,0.015483050008770673,
0.09466334164588529,-0.018234625170126674,
0.09471321695760598,-0.006128648974969891,
0.09476309226932668,0.02081901785762554,
0.09481296758104737,0.006660418345063236,
0.09486284289276808,-0.00379016376391193,
0.09491271820448878,0.01961678626900696,
0.09496259351620948,-0.007725295611970854,
0.09501246882793017,0.012303902771516748,
0.09506234413965087,-0.015055404290429578,
0.09511221945137158,-0.0013372357093808128,
0.09516209476309227,-0.012686218339166156,
0.09521197007481297,0.002828027568036057,
0.09526184538653366,0.013979019053626949,
0.09531172069825436,-0.021093541048217986,
0.09536159600997507,-0.014824279196813239,
0.09541147132169576,-0.0016067699830851906,
0.09546134663341646,-0.015036986613967181,
0.09551122194513716,-0.014114016840763135,
0.09556109725685785,0.0046993537857898116,
0.09561097256857855,-0.014092344847021168,
0.09566084788029926,0.018283461880219672,
0.09571072319201995,-0.0016039253296671451,
0.09576059850374065,0.017833833951684565,
0.09581047381546134,-0.005071032417343611,
0.09586034912718204,-0.03345422927995325,
0.09591022443890275,-0.032286191842377826,
0.09596009975062345,-0.01752386430949368,
0.09600997506234414,-0.01559192313312872,
0.09605985037406484,0.014215070964059544,
0.09610972568578553,-0.010079899208027248,
0.09615960099750623,-0.03188133181367355,
0.09620947630922694,-0.002577897393249825,
0.09625935162094763,-0.018895826238971236,
0.09630922693266833,-0.0300980822911562,
0.09635910224438902,0.009953960535443084,
0.09640897755610972,0.03600635060389119,
0.09645885286783043,0.004760176939795925,
0.09650872817955113,-0.019296585876174187,
0.09655860349127182,-0.01808173041018262,
0.09660847880299252,-0.01009976054490092,
0.09665835411471321,-0.00041144327516277716,
0.09670822942643391,-0.02386141931874841,
0.09675810473815462,0.027347284424786015,
0.09680798004987531,-0.005047133853995786,
0.09685785536159601,0.003330238342213262,
0.0969077306733167,-0.0005871296343253965,
0.0969576059850374,0.003426662700570989,
0.09700748129675811,-0.023407466131252923,
0.0970573566084788,0.0054047083040293445,
0.0971072319201995,-0.006180919538378632,
0.0971571072319202,-0.0060603084405530605,
0.0972069825436409,-0.016010841327841932,
0.09725685785536159,-0.04558469482908401,
0.0973067331670823,-0.021155023022786122,
0.097356608478803,-0.0447080684741466,
0.09740648379052369,-0.004295072684660173,
0.09745635910224439,0.009421443635329062,
0.09750623441396508,-0.0009091876232499799,
0.09755610972568579,-0.0029748159973807444,
0.09760598503740649,-0.028253161738542983,
0.09765586034912718,-0.018972280702130563,
0.09770573566084788,-0.005442014507092817,
0.09775561097256857,-0.01604496240525799,
0.09780548628428928,-0.013520640968060563,
0.09785536159600998,0.010588620981868361,
0.09790523690773068,-0.006230187780729482,
0.09795511221945137,0.005198483650750662,
0.09800498753117207,0.011351131824153985,
0.09805486284289276,-0.03593324720045969,
0.09810473815461347,-0.007860418735208142,
0.09815461346633417,-0.0321617444974099,
0.09820448877805486,-0.027102824047097244,
0.09825436408977556,0.011651295338156276,
0.09830423940149625,-0.025142065834767278,
0.09835411471321696,-0.0008156233044436766,
0.09840399002493766,-0.03004262986044413,
0.09845386533665836,0.00895067397104048,
0.09850374064837905,-0.008906766017150892,
0.09855361596009975,-0.020336663466106422,
0.09860349127182044,-0.026569429174929455,
0.09865336658354115,-0.030278291226128545,
0.09870324189526185,-0.025437977361417098,
0.09875311720698254,-0.012000606425735005,
0.09880299251870324,0.0010458948874970363,
0.09885286783042393,0.006852250634574574,
0.09890274314214464,-0.04601490145266708,
0.09895261845386534,-0.04628013284422908,
0.09900249376558604,0.015214060592927363,
0.09905236907730673,-0.0016902454799123286,
0.09910224438902743,-0.018577557755850484,
0.09915211970074812,-0.01881777970450528,
0.09920199501246883,-0.018151102438648956,
0.09925187032418953,-0.008708556536821295,
0.09930174563591022,0.007214351921485663,
0.09935162094763092,-0.02293850464801413,
0.09940149625935162,-0.040675520826655744,
0.09945137157107233,-0.025042835157364236,
0.09950124688279302,-0.013310074484030638,
0.09955112219451372,-0.011562336740040504,
0.09960099750623441,-0.017805049992404953,
0.09965087281795511,-0.04171213927354316,
0.0997007481296758,-0.02737033357051528,
0.09975062344139651,0.024920753889148998,
0.09980049875311721,-0.022165035563777167,
0.0998503740648379,0.013417808770885008,
0.0999002493765586,0.0027675395848624582,
0.0999501246882793,-0.014738548226188303,
0.1,0.004049062978092101,
0.1000498753117207,0.0034512874356363455,
0.1000997506234414,-0.03709706907563044,
0.10014962593516209,-0.015295625068218199,
0.10019950124688279,-0.020631144605494343,
0.1002493765586035,-0.04462337785427213,
0.1002992518703242,-0.014319985896840415,
0.10034912718204489,-0.01756465851725696,
0.10039900249376559,-0.028939078725732276,
0.10044887780548628,0.0175639371931223,
0.10049875311720698,-0.00446229291592466,
0.10054862842892769,0.011004929853309482,
0.10059850374064838,-0.007307753337436284,
0.10064837905236908,-0.014308551372812454,
0.10069825436408977,-0.012266497877255946,
0.10074812967581047,-0.009704900802236722,
0.10079800498753118,-0.0016603487292423504,
0.10084788029925187,-0.025562274275516404,
0.10089775561097257,0.011089843222685605,
0.10094763092269327,-0.020751736878770594,
0.10099750623441396,0.0017100119563179476,
0.10104738154613466,-0.029816674605855922,
0.10109725685785537,-0.01990346798868346,
0.10114713216957606,0.0294849637092464,
0.10119700748129676,-0.015919560029882887,
0.10124688279301745,-0.00639436551377209,
0.10129675810473815,0.0034055140143630837,
0.10134663341645886,0.001485313231589418,
0.10139650872817955,-0.006051167426964814,
0.10144638403990025,-0.007424206134586804,
0.10149625935162095,-0.010550935874469388,
0.10154613466334164,0.011455040707133587,
0.10159600997506234,0.007361630958569024,
0.10164588528678305,-0.028621012894162703,
0.10169576059850374,0.017496884451823284,
0.10174563591022444,0.016441936047216516,
0.10179551122194513,-0.021641169252240213,
0.10184538653366583,-0.02127156020730892,
0.10189526184538654,0.006498059810054872,
0.10194513715710724,-0.02536323183855986,
0.10199501246882793,0.02863105843526533,
0.10204488778054863,-0.005280464370290786,
0.10209476309226932,-0.014443687938561541,
0.10214463840399003,0.021040573171599027,
0.10219451371571073,-0.03915314219070279,
0.10224438902743142,0.013166314062215183,
0.10229426433915212,-0.0030691187763506713,
0.10234413965087281,-0.0027869796437465745,
0.10239401496259351,0.019796567764554372,
0.10244389027431422,0.010249835423066699,
0.10249376558603492,-0.00508922662969586,
0.10254364089775561,0.008030636698682373,
0.10259351620947631,-0.0027917451644413798,
0.102643391521197,-0.016808595932260195,
0.10269326683291771,0.012120721971624537,
0.10274314214463841,-0.0034544314120316492,
0.1027930174563591,-0.00818608033831952,
0.1028428927680798,-0.008763149846348215,
0.1028927680798005,0.02974206857578902,
0.10294264339152119,-0.005121246229547793,
0.1029925187032419,0.024545097545686123,
0.1030423940149626,0.0028057016397768676,
0.10309226932668329,0.023518987199672985,
0.10314214463840399,0.03724336008657645,
0.10319201995012468,-0.017480949376329706,
0.10324189526184539,0.01819551578769904,
0.10329177057356609,0.016172813595066615,
0.10334164588528678,0.000788607172105639,
0.10339152119700748,-0.013350642359444926,
0.10344139650872818,0.03168685590795024,
0.10349127182044887,0.014256637810932463,
0.10354114713216958,0.04307813676772478,
0.10359102244389028,0.026040190974510546,
0.10364089775561097,0.0013590775700892677,
0.10369077306733167,-0.009384391971805064,
0.10374064837905236,0.03749531374108501,
0.10379052369077307,0.016915361212210815,
0.10384039900249377,0.00793403695578963,
0.10389027431421446,0.03766203767240774,
0.10394014962593516,0.026247884903490518,
0.10399002493765586,0.02088981480682821,
0.10403990024937655,0.023603978384673777,
0.10408977556109726,0.029882204240991847,
0.10413965087281796,0.0231082802390351,
0.10418952618453865,-0.016563461023650274,
0.10423940149625935,0.017451162830360904,
0.10428927680798004,0.018141452856992552,
0.10433915211970075,0.011711731217661822,
0.10438902743142145,0.0044150289499043545,
0.10443890274314215,0.005544287816629571,
0.10448877805486284,0.026781824520138588,
0.10453865336658354,0.020864363136642795,
0.10458852867830425,-0.0076502667393848235,
0.10463840399002494,-0.004801649550307638,
0.10468827930174564,0.006984202169482111,
0.10473815461346633,0.003961352637044228,
0.10478802992518703,0.029544133442136144,
0.10483790523690772,0.010465259384161076,
0.10488778054862843,0.015716016960866944,
0.10493765586034913,0.025333226307203846,
0.10498753117206983,0.03344322959966226,
0.10503740648379052,0.035672848106877604,
0.10508728179551122,0.0030704585293727903,
0.10513715710723193,0.027514296362924875,
0.10518703241895262,0.04565874998414868,
0.10523690773067332,0.0028215485206244985,
0.10528678304239401,0.009718879235209131,
0.10533665835411471,-0.0005798862226041937,
0.1053865336658354,0.039912036157196115,
0.10543640897755611,-0.0081451539098257,
0.10548628428927681,0.02465395441192069,
0.1055361596009975,0.03200728142051677,
0.1055860349127182,0.011629357666597452,
0.1056359102244389,0.019153646780722917,
0.10568578553615961,0.02918329969647517,
0.1057356608478803,-0.022313293159956067,
0.105785536159601,-0.0055748489250773345,
0.1058354114713217,0.024014402832933636,
0.10588528678304239,0.03312058841732947,
0.10593516209476309,0.029682937360840225,
0.1059850374064838,0.02780425732554402,
0.10603491271820449,0.017432658068090627,
0.10608478802992519,0.029800125038648956,
0.10613466334164588,-0.00449792235864822,
0.10618453865336658,0.010405802076147214,
0.10623441396508729,0.031096254468352687,
0.10628428927680798,0.03498265646089176,
0.10633416458852868,0.04389759150044424,
0.10638403990024937,0.026067082695064806,
0.10643391521197007,0.024479955942673135,
0.10648379052369077,0.031192935458643066,
0.10653366583541148,0.030151069521654677,
0.10658354114713217,0.058173100589629795,
0.10663341645885287,0.008278124379584494,
0.10668329177057356,0.02216756612515021,
0.10673316708229426,0.018230302159891326,
0.10678304239401497,0.01625178373125788,
0.10683291770573566,-0.003187843527370022,
0.10688279301745636,0.04145614791601146,
0.10693266832917706,0.027255022548457734,
0.10698254364089775,0.037151386493543444,
0.10703241895261846,0.021500347804196265,
0.10708229426433916,0.04470756710241571,
0.10713216957605985,0.026936843409223386,
0.10718204488778055,0.024378644434337196,
0.10723192019950124,0.019154160688508608,
0.10728179551122194,0.00543764157863573,
0.10733167082294265,0.05701270095795909,
0.10738154613466334,0.006453906176777293,
0.10743142144638404,0.035783495876677514,
0.10748129675810474,0.04330039562950577,
0.10753117206982543,0.026293906956381903,
0.10758104738154614,0.03675129439208265,
0.10763092269326684,0.0042567741717603295,
0.10768079800498753,0.04442755274850291,
0.10773067331670823,0.011278782802281416,
0.10778054862842892,0.014357424401174794,
0.10783042394014962,0.031814438252796354,
0.10788029925187033,0.04442939881831757,
0.10793017456359102,0.05762633024516178,
0.10798004987531172,0.019905979294968745,
0.10802992518703242,0.037092840712545684,
0.10807980049875311,0.027330099126332344,
0.10812967581047382,0.02725366597381374,
0.10817955112219452,0.042462092075598444,
0.10822942643391521,0.013247621580613819,
0.10827930174563591,-0.0017236459469331007,
0.1083291770573566,0.04234633773181355,
0.1083790523690773,0.03865770456511479,
0.10842892768079801,0.028670293726673575,
0.1084788029925187,0.014132113206757491,
0.1085286783042394,0.03529351945568163,
0.1085785536159601,0.03503725622069141,
0.10862842892768079,0.0052575148268321145,
0.1086783042394015,0.04044792019883001,
0.1087281795511222,-0.0048817996540188174,
0.1087780548628429,0.029502006451484875,
0.10882793017456359,0.016186006051634,
0.10887780548628428,0.013336440504389918,
0.108927680798005,0.007331147419729071,
0.10897755610972569,0.028059278247196964,
0.10902743142144639,0.01623721831762408,
0.10907730673316708,0.000704019338419886,
0.10912718204488778,0.023382807490330094,
0.10917705735660847,0.025415398404352384,
0.10922693266832918,0.03839306427089134,
0.10927680798004988,0.03414980686892842,
0.10932668329177057,0.03434022597417029,
0.10937655860349127,0.03126588253506016,
0.10942643391521197,0.019168758207355533,
0.10947630922693267,0.026343326223474017,
0.10952618453865337,0.036302538592257544,
0.10957605985037407,0.02702357815635167,
0.10962593516209476,0.0268269398577615,
0.10967581047381546,0.01983964442963696,
0.10972568578553615,0.033074552969832485,
0.10977556109725686,0.002610203729223097,
0.10982543640897756,0.02230454456894525,
0.10987531172069825,0.04154488358344048,
0.10992518703241895,0.0011900096431957836,
0.10997506234413965,0.027086026035049116,
0.11002493765586036,0.030124325550942736,
0.11007481296758105,0.05008693460201991,
0.11012468827930175,0.02728693087422555,
0.11017456359102244,0.02674584830417389,
0.11022443890274314,0.03794036894468025,
0.11027431421446383,0.011948936079269862,
0.11032418952618454,0.04083186664548449,
0.11037406483790524,0.010136601946120434,
0.11042394014962593,0.04173182569151677,
0.11047381546134663,0.05059371735687753,
0.11052369077306733,0.01233670178298715,
0.11057356608478804,0.02068203056593681,
0.11062344139650873,0.024950278142054534,
0.11067331670822943,0.043197242358640045,
0.11072319201995012,0.03321659220937128,
0.11077306733167082,-0.012218338420836878,
0.11082294264339151,0.03663966463090736,
0.11087281795511222,0.01496578876750271,
0.11092269326683292,0.014315447427133641,
0.11097256857855362,0.0016376903196923323,
0.11102244389027431,0.0034381983719052357,
0.111072319201995,0.001303415926956382,
0.11112219451371572,0.006513479218138447,
0.11117206982543641,0.00034287419911822187,
0.11122194513715711,0.0380922074012645,
0.1112718204488778,0.03480259186102264,
0.1113216957605985,0.04643708801742392,
0.11137157107231921,-0.003801759580253288,
0.1114214463840399,0.03154065125544639,
0.1114713216957606,0.007407564053504404,
0.1115211970074813,0.02328034876013985,
0.11157107231920199,0.007128229832287397,
0.11162094763092269,0.030150745538804126,
0.1116708229426434,0.01779004931621004,
0.11172069825436409,0.032018129643981846,
0.11177057356608479,0.01659636308352422,
0.11182044887780548,0.007641571792070093,
0.11187032418952618,0.006106890741513991,
0.11192019950124689,-0.009752071083983283,
0.11197007481296758,0.01245113108592797,
0.11201995012468828,0.023741257370584426,
0.11206982543640898,0.027408358084589367,
0.11211970074812967,0.009964791500683346,
0.11216957605985037,0.008785070750066543,
0.11221945137157108,0.011956717237128498,
0.11226932668329177,-0.02878051651320937,
0.11231920199501247,-0.01036210325060707,
0.11236907730673316,0.010221857680350523,
0.11241895261845386,0.02498272893440722,
0.11246882793017457,0.028699595599448964,
0.11251870324189527,0.0005160045791977614,
0.11256857855361596,0.0043812794851564975,
0.11261845386533666,0.009389596585811961,
0.11266832917705735,0.01341806747051836,
0.11271820448877805,0.006036298872162619,
0.11276807980049876,0.038155233256451246,
0.11281795511221945,0.019570326912696435,
0.11286783042394015,0.011280762332046295,
0.11291770573566084,0.012603490410928815,
0.11296758104738154,0.009134146017841094,
0.11301745635910225,0.021774080661077017,
0.11306733167082295,0.01730892250080144,
0.11311720698254364,-0.005928112611795558,
0.11316708229426434,-0.010565187428169887,
0.11321695760598503,0.015252799966485993,
0.11326683291770574,0.027538777770238936,
0.11331670822942644,0.04745564023776306,
0.11336658354114713,-0.027013655156858215,
0.11341645885286783,0.0053858545816193,
0.11346633416458853,0.006784433711504323,
0.11351620947630922,-0.005026437795260021,
0.11356608478802993,0.01973131778847715,
0.11361596009975063,0.011730206310266101,
0.11366583541147132,0.007749361020768545,
0.11371571072319202,0.008167601121356423,
0.11376558603491271,-0.01933249395522048,
0.11381546134663342,0.025686445187696087,
0.11386533665835412,0.017618113500537123,
0.11391521197007481,0.00046308045358793744,
0.11396508728179551,0.03071107447996166,
0.1140149625935162,0.008636577356965554,
0.1140648379052369,-0.024975964867584254,
0.11411471321695761,0.018173107510594717,
0.1141645885286783,-0.008487050830894887,
0.114214463840399,0.0030836384813361815,
0.1142643391521197,0.034495253532193196,
0.1143142144638404,-0.003951815127483465,
0.1143640897755611,0.03236521571749771,
0.1144139650872818,-0.00482785559513809,
0.1144638403990025,0.011371251043836812,
0.11451371571072319,-0.0010513185178909158,
0.11456359102244389,0.007030710736807888,
0.11461346633416458,0.008247184040399,
0.11466334164588529,-0.0029848664624993583,
0.11471321695760599,0.00577117170149517,
0.11476309226932668,0.014948618045829833,
0.11481296758104738,-0.011591092903031423,
0.11486284289276807,-0.015894254981623827,
0.11491271820448878,-0.02484785208056562,
0.11496259351620948,-0.00925869570538607,
0.11501246882793018,-0.013015459039764995,
0.11506234413965087,0.0034468465966210034,
0.11511221945137157,-0.04107744017031813,
0.11516209476309226,-0.010353656391882708,
0.11521197007481297,-0.014136358823981777,
0.11526184538653367,0.014898148109086793,
0.11531172069825436,-0.022135211628071035,
0.11536159600997506,0.0032077430186481307,
0.11541147132169575,-0.011756330413175293,
0.11546134663341646,-0.013021883574658607,
0.11551122194513716,0.0009253018311623663,
0.11556109725685786,-0.02180104010375708,
0.11561097256857855,0.0015858659447448914,
0.11566084788029925,0.010859173732745038,
0.11571072319201996,0.018601869812613615,
0.11576059850374065,-0.012489071627309048,
0.11581047381546135,-0.015112335185647936,
0.11586034912718204,-0.023599577189709765,
0.11591022443890274,-0.034501291371614284,
0.11596009975062344,-0.019891959729887974,
0.11600997506234415,-0.032651724273900395,
0.11605985037406484,-0.003150338698341715,
0.11610972568578554,0.004381858247671802,
0.11615960099750623,-0.026174449371889487,
0.11620947630922693,-0.0021886078851648663,
0.11625935162094764,0.007466698697420834,
0.11630922693266833,-0.01986622008439328,
0.11635910224438903,-0.023921694229227245,
0.11640897755610972,-0.025645488278610754,
0.11645885286783042,-0.003458146659370616,
0.11650872817955112,-0.016535769704210345,
0.11655860349127183,-0.012063635911822197,
0.11660847880299252,0.0011787604268106346,
0.11665835411471322,0.016253493979746243,
0.11670822942643391,-0.010084251282957942,
0.11675810473815461,-0.0066071401388682355,
0.11680798004987532,-0.011820770156519715,
0.11685785536159601,0.006012284235039847,
0.11690773067331671,-0.01646236446962094,
0.1169576059850374,-0.0028085157380388142,
0.1170074812967581,-0.007788195767492312,
0.1170573566084788,-5.0314698827243556e-05,
0.1171072319201995,-0.020146286114016317,
0.1171571072319202,-0.0008040563366982986,
0.1172069825436409,0.017999967513073784,
0.1172568578553616,0.012279230770148919,
0.11730673316708229,0.004016535402566438,
0.117356608478803,-0.016858908380064864,
0.1174064837905237,-0.014253716336350654,
0.11745635910224439,-0.020440704951264273,
0.11750623441396509,-0.028261055996481797,
0.11755610972568578,-0.023692803870528256,
0.11760598503740648,-0.004604467379776332,
0.11765586034912719,-0.016458160691438316,
0.11770573566084788,-0.020594871891374232,
0.11775561097256858,-0.008331493266736966,
0.11780548628428927,0.003877980848081296,
0.11785536159600997,-0.0034067282513622846,
0.11790523690773068,-0.00532040028255428,
0.11795511221945137,-0.02554029198632599,
0.11800498753117207,-0.021618383637763194,
0.11805486284289277,-0.004599875956811971,
0.11810473815461346,-0.009384185539883521,
0.11815461346633417,0.0007452075346014442,
0.11820448877805487,0.010485181149665497,
0.11825436408977556,-0.0027225070807796927,
0.11830423940149626,-0.029060858204465044,
0.11835411471321695,0.007515663502601418,
0.11840399002493765,-0.024473483783831414,
0.11845386533665836,-0.002881912524389005,
0.11850374064837906,-0.027678590088194923,
0.11855361596009975,-0.01472179501612183,
0.11860349127182045,-0.00045145419488238324,
0.11865336658354114,-0.020654490137353206,
0.11870324189526185,-0.020603192840033015,
0.11875311720698255,-0.00808923532440908,
0.11880299251870324,-0.015580686491713003,
0.11885286783042394,-0.02205040688386376,
0.11890274314214463,-0.002849131105085183,
0.11895261845386533,-0.01311133376952307,
0.11900249376558604,-0.001156782764229626,
0.11905236907730674,0.0013764141040863778,
0.11910224438902743,-0.046048036136192246,
0.11915211970074813,-0.011433618528304781,
0.11920199501246882,0.0009435241254609691,
0.11925187032418953,-0.011384880684584231,
0.11930174563591023,-0.03277282104123224,
0.11935162094763092,-0.01653996689168364,
0.11940149625935162,-0.028867216496292945,
0.11945137157107232,-0.008390856100261123,
0.11950124688279301,-0.012040519973399087,
0.11955112219451372,-0.015342259990042035,
0.11960099750623442,-0.02512042246801166,
0.11965087281795511,-0.003662307780053711,
0.11970074812967581,-0.006574377146230862,
0.1197506234413965,-0.026452614245631886,
0.11980049875311721,-0.002802356298775663,
0.11985037406483791,-0.0066804335947315925,
0.1199002493765586,-0.014036377296468058,
0.1199501246882793,-0.026800585992472474,
0.12,-0.016304309993304757,
0.1200498753117207,-0.037464692080753634,
0.1200997506234414,-0.0011080909492932108,
0.1201496259351621,-0.0024845089789154113,
0.12019950124688279,-0.005551241654963581,
0.12024937655860349,-0.0018573516004625297,
0.12029925187032418,0.022858867734092105,
0.1203491271820449,-0.005939584781427599,
0.12039900249376559,0.003941959940264318,
0.12044887780548628,-0.02209431087782123,
0.12049875311720698,0.0005018905366844977,
0.12054862842892768,-0.015534741803762377,
0.12059850374064839,-0.004990208147352902,
0.12064837905236908,-0.003574860615544217,
0.12069825436408978,0.012674445441421793,
0.12074812967581047,-0.005073777050718007,
0.12079800498753117,-0.012713768749234172,
0.12084788029925186,0.012536189267792885,
0.12089775561097257,0.011709540883321053,
0.12094763092269327,-0.011459397064870142,
0.12099750623441397,-0.003041269726661962,
0.12104738154613466,-0.04972878006449518,
0.12109725685785536,-0.003536450940437491,
0.12114713216957607,-0.010058696292077476,
0.12119700748129676,0.022560333593504088,
0.12124688279301746,-0.00688030169174683,
0.12129675810473815,0.019336195745192963,
0.12134663341645885,-0.015748055069840457,
0.12139650872817954,0.007387515387507563,
0.12144638403990025,-0.003783272669323784,
0.12149625935162095,0.002787069971862203,
0.12154613466334165,0.03103523260559065,
0.12159600997506234,-0.007473978311578797,
0.12164588528678304,0.006093963606842173,
0.12169576059850375,-0.002578055573235621,
0.12174563591022444,0.008732025797466065,
0.12179551122194514,0.0002205167740231286,
0.12184538653366583,0.005983024547063636,
0.12189526184538653,0.036896439213725714,
0.12194513715710723,0.01009873477876503,
0.12199501246882793,-0.006550314671543497,
0.12204488778054863,-0.009770249382203442,
0.12209476309226933,0.03397529069842873,
0.12214463840399002,-0.01667254942595135,
0.12219451371571072,0.018498279788821632,
0.12224438902743143,0.0040323327172313685,
0.12229426433915212,0.0018998249174390419,
0.12234413965087282,0.004817326643445671,
0.12239401496259351,-0.013853726983032756,
0.12244389027431421,0.00976841134583022,
0.12249376558603492,0.02492060990800558,
0.12254364089775562,0.0001968491447743052,
0.12259351620947631,-0.03473789606256336,
0.122643391521197,0.02828888585392022,
0.1226932668329177,0.0007072276938077165,
0.1227431421446384,0.00665108352323539,
0.12279301745635911,0.014848084761623711,
0.1228428927680798,0.013018246342404574,
0.1228927680798005,-0.007957044432116001,
0.1229426433915212,0.005739677906834916,
0.12299251870324189,0.03467947249229465,
0.1230423940149626,0.031900311177887636,
0.1230922693266833,0.009517488699300693,
0.12314214463840399,-0.006952251478346121,
0.12319201995012469,-0.003554744589611707,
0.12324189526184538,0.019641817443175308,
0.12329177057356608,0.005947980116366039,
0.12334164588528679,-0.0011334726904877832,
0.12339152119700748,0.012527811396216653,
0.12344139650872818,0.010169660134897972,
0.12349127182044888,0.011045444486211484,
0.12354114713216957,0.037165255999390176,
0.12359102244389028,0.01888350393680809,
0.12364089775561098,0.010986067132832128,
0.12369077306733167,-0.02170669425720579,
0.12374064837905237,0.012962110255196236,
0.12379052369077306,0.02836786516342559,
0.12384039900249376,0.03011146585640615,
0.12389027431421447,0.054401143389639875,
0.12394014962593516,0.013794668355460928,
0.12399002493765586,0.010926648561327398,
0.12403990024937656,0.0126538297718266,
0.12408977556109725,0.023306375011111616,
0.12413965087281796,0.01761860352416394,
0.12418952618453866,0.007199318935930779,
0.12423940149625935,0.00599053087053265,
0.12428927680798005,0.019350612644029503,
0.12433915211970074,0.008608132248149547,
0.12438902743142144,0.012188368867963859,
0.12443890274314215,0.017978620619490234,
0.12448877805486284,0.00953739135578487,
0.12453865336658354,0.001220113052948741,
0.12458852867830424,0.01164320989018746,
0.12463840399002493,0.025642230963148785,
0.12468827930174564,0.03269409433133242,
0.12473815461346634,0.006972519753350713,
0.12478802992518703,0.024559867369237504,
0.12483790523690773,-0.01450059383757868,
0.12488778054862842,0.01565308421902136,
0.12493765586034913,0.003000290756870295,
0.12498753117206983,-0.004065363556644122,
0.12503740648379053,0.0157090155230615,
0.12508728179551123,0.021946589797801258,
0.12513715710723192,0.02386246129290756,
0.12518703241895263,0.02174061904777427,
0.1252369077306733,0.01383675688539903,
0.12528678304239402,0.014054500377884482,
0.1253366583541147,0.03167071220044098,
0.1253865336658354,0.03159695474668872,
0.12543640897755612,0.02750473148078831,
0.1254862842892768,0.027501447758381113,
0.1255361596009975,0.014246364118700174,
0.1255860349127182,0.04364931527388382,
0.1256359102244389,0.017197997723204655,
0.1256857855361596,0.05350974533022104,
0.1257356608478803,0.03782079554586772,
0.125785536159601,0.03475986780615574,
0.12583541147132168,0.024238754801496704,
0.1258852867830424,0.022859587787679075,
0.1259351620947631,-0.01118156813032211,
0.12598503740648379,0.02615720300277386,
0.1260349127182045,0.027472272601853767,
0.12608478802992518,0.010834320033793313,
0.1261346633416459,0.03295512447664546,
0.1261845386533666,0.041168554627765225,
0.12623441396508728,0.0010210129043403265,
0.126284289276808,0.026193661773510818,
0.12633416458852867,0.0175925818938117,
0.12638403990024938,0.019301198328890663,
0.1264339152119701,0.028788938698661386,
0.12648379052369077,0.03158460486454481,
0.12653366583541148,0.015227258983529376,
0.12658354114713216,0.02455101848132947,
0.12663341645885287,0.01844015961992776,
0.12668329177057355,0.04249974542193623,
0.12673316708229426,0.009324456658529837,
0.12678304239401497,0.011811931365914338,
0.12683291770573565,0.058817916860244096,
0.12688279301745636,0.007381397592333704,
0.12693266832917705,0.022362973862429712,
0.12698254364089775,0.04337725175388125,
0.12703241895261846,0.05070642551787407,
0.12708229426433915,0.012255972848771734,
0.12713216957605986,0.04887166040033726,
0.12718204488778054,0.025460211097317855,
0.12723192019950125,0.014665853667959935,
0.12728179551122196,0.016605732064996204,
0.12733167082294264,0.05079307084582304,
0.12738154613466335,0.010094096275170016,
0.12743142144638403,0.034510515576851204,
0.12748129675810474,0.030063415596175827,
0.12753117206982545,0.01382147891777641,
0.12758104738154613,0.036541561887140805,
0.12763092269326684,0.024658164028296133,
0.12768079800498752,0.03822429396799005,
0.12773067331670823,0.04453697238898524,
0.1277805486284289,0.05555910416424749,
0.12783042394014962,0.015515439363442554,
0.12788029925187033,0.018759444483419527,
0.12793017456359101,0.01611401639585186,
0.12798004987531172,0.03435856855838153,
0.1280299251870324,0.020782798928141166,
0.12807980049875312,0.035904655757320506,
0.12812967581047383,0.04662157775218114,
0.1281795511221945,0.009313552188153287,
0.12822942643391522,0.04291322883903188,
0.1282793017456359,0.03864827313049152,
0.1283291770573566,0.030303189978631236,
0.12837905236907732,0.021603993444726452,
0.128428927680798,0.041754327251868166,
0.1284788029925187,0.035938674031994126,
0.1285286783042394,0.04039944126449121,
0.1285785536159601,0.02399528035196887,
0.1286284289276808,0.04203341448826361,
0.1286783042394015,0.04153337118186834,
0.1287281795511222,0.05436682895072931,
0.12877805486284288,0.016213560136869455,
0.1288279301745636,0.0236833343341297,
0.1288778054862843,0.02920380445945733,
0.12892768079800498,0.04998750847237855,
0.1289775561097257,0.0011936355331335254,
0.12902743142144638,0.006840244873891073,
0.12907730673316709,0.014916543488632824,
0.12912718204488777,0.044334624916106416,
0.12917705735660848,0.015383365304329762,
0.1292269326683292,0.028958779651383975,
0.12927680798004987,0.02865250795269835,
0.12932668329177058,0.039068402811556865,
0.12937655860349126,0.018644778368752193,
0.12942643391521197,0.017724348162706786,
0.12947630922693268,0.03975953225166212,
0.12952618453865336,0.023583197776882017,
0.12957605985037407,0.02680103760173141,
0.12962593516209475,0.017802235987471104,
0.12967581047381546,0.029433848333667047,
0.12972568578553617,0.02593729569825637,
0.12977556109725685,0.024309762196841413,
0.12982543640897756,0.03349184141344959,
0.12987531172069824,0.016891655722857245,
0.12992518703241895,0.026356775179458187,
0.12997506234413966,0.021082410928308964,
0.13002493765586035,0.05163300117339976,
0.13007481296758105,0.03438168662449393,
0.13012468827930174,0.028964978617292123,
0.13017456359102245,0.01908702106353938,
0.13022443890274316,0.011284542865718969,
0.13027431421446384,0.013589083751683528,
0.13032418952618455,0.05508763032080781,
0.13037406483790523,0.012024985715742498,
0.13042394014962594,0.009288305381458478,
0.13047381546134662,0.02940666267448199,
0.13052369077306733,0.0025488763050471284,
0.13057356608478804,0.021738936113861716,
0.13062344139650872,0.04474875867836009,
0.13067331670822943,0.010643434800443169,
0.1307231920199501,0.037432830509930945,
0.13077306733167082,0.02266004541097893,
0.13082294264339153,0.04660680663321358,
0.13087281795511221,0.02926616226034877,
0.13092269326683292,0.040056715642026675,
0.1309725685785536,0.0030588379408359005,
0.13102244389027431,0.05156914235068699,
0.13107231920199502,0.02921551026484435,
0.1311221945137157,0.009280450201201218,
0.13117206982543642,0.020474965886211678,
0.1312219451371571,0.012062188083171364,
0.1312718204488778,0.008747761078693496,
0.13132169576059852,-0.0032744761604761793,
0.1313715710723192,0.013042707142771396,
0.1314214463840399,0.035828321839295754,
0.1314713216957606,0.03103628070654165,
0.1315211970074813,0.01731067070304564,
0.13157107231920198,0.022753748160428477,
0.1316209476309227,0.011364188974761612,
0.1316708229426434,0.03449104412709124,
0.13172069825436408,0.025248439067831405,
0.1317705735660848,0.03045097896114165,
0.13182044887780547,0.018547144541365558,
0.13187032418952618,-0.008851505032188855,
0.1319201995012469,0.017765740143090555,
0.13197007481296757,-0.00119220661096104,
0.13201995012468828,0.018650146608363213,
0.13206982543640897,-0.0048443604995142275,
0.13211970074812968,0.03873446607210784,
0.13216957605985039,0.004004804900453608,
0.13221945137157107,-0.010568572878760191,
0.13226932668329178,0.031186352199244663,
0.13231920199501246,0.014972846886403853,
0.13236907730673317,0.031467320116630365,
0.13241895261845388,-0.007465991169653767,
0.13246882793017456,-0.007251869246888098,
0.13251870324189527,0.008518133709595702,
0.13256857855361595,0.029243634075655528,
0.13261845386533666,0.009194611992312996,
0.13266832917705737,0.026637768087084755,
0.13271820448877805,0.013744972418829705,
0.13276807980049876,0.018454615570402094,
0.13281795511221944,0.025511283255813744,
0.13286783042394015,-0.003794367761374713,
0.13291770573566083,0.011709423839788511,
0.13296758104738154,0.01336303025329156,
0.13301745635910225,0.05069007660123277,
0.13306733167082294,-0.014651873144417927,
0.13311720698254365,-0.0009629640628494515,
0.13316708229426433,0.02747701763785556,
0.13321695760598504,0.014028921935616438,
0.13326683291770575,0.0006890210781595966,
0.13331670822942643,0.03374523238625057,
0.13336658354114714,0.013142743895123593,
0.13341645885286782,0.031202276232598414,
0.13346633416458853,0.030235779057340966,
0.13351620947630924,0.015766437833544956,
0.13356608478802992,-0.002474021245443385,
0.13361596009975063,0.029592574581955543,
0.1336658354114713,0.015730003147656046,
0.13371571072319202,0.01040412145534385,
0.13376558603491273,0.017094353832266145,
0.1338154613466334,0.020534751773402846,
0.13386533665835412,0.006672139879634645,
0.1339152119700748,0.024990526545106764,
0.13396508728179551,0.004443219664761272,
0.1340149625935162,0.006300156319640353,
0.1340648379052369,0.010619936046249395,
0.13411471321695762,0.001073245648382062,
0.1341645885286783,-0.010653488321978708,
0.134214463840399,0.014510162332035276,
0.1342643391521197,0.007796691746859427,
0.1343142144638404,0.020009511950751412,
0.1343640897755611,0.012461418454039402,
0.1344139650872818,0.0022448446659845828,
0.1344638403990025,0.012997839411592707,
0.13451371571072318,0.01053601494354278,
0.1345635910224439,0.038110120566327926,
0.1346134663341646,0.017275346493169974,
0.13466334164588528,0.01933568637734161,
0.134713216957606,-0.005466120244570998,
0.13476309226932667,0.028443300423138744,
0.13481296758104738,0.009245596141592571,
0.1348628428927681,0.0072456205984149655,
0.13491271820448877,0.006166374455317445,
0.13496259351620948,0.0013286014996677312,
0.13501246882793017,-0.006752713788520838,
0.13506234413965088,-0.00864249277294617,
0.13511221945137158,-0.006593104138520206,
0.13516209476309227,-0.005090931538398393,
0.13521197007481298,-0.036915935036761424,
0.13526184538653366,-0.00241186766007112,
0.13531172069825437,0.00612711243022185,
0.13536159600997505,0.007062346844804243,
0.13541147132169576,0.0008482953081746973,
0.13546134663341647,-0.02098473952181191,
0.13551122194513715,-0.005933727550615728,
0.13556109725685786,-0.0286874539476168,
0.13561097256857854,-0.017600719012761286,
0.13566084788029925,0.01519294384304324,
0.13571072319201996,0.001832070441141356,
0.13576059850374064,0.015765581120636238,
0.13581047381546135,-0.018498317810545846,
0.13586034912718203,-0.017563607246396492,
0.13591022443890274,-0.013714304661507037,
0.13596009975062345,-0.021082407199297257,
0.13600997506234414,-0.015916613874975172,
0.13605985037406484,-0.022236236330694083,
0.13610972568578553,0.017609102678195675,
0.13615960099750624,-0.028247361711441987,
0.13620947630922695,-0.009026445262949281,
0.13625935162094763,-0.015626000437088533,
0.13630922693266834,0.023330276480147905,
0.13635910224438902,-0.02468455743654601,
0.13640897755610973,-0.0138302565133353,
0.1364588528678304,-0.022856226770714506,
0.13650872817955112,-0.007778579314377237,
0.13655860349127183,0.0020767312745890443,
0.1366084788029925,-0.018400434925455927,
0.13665835411471322,0.0010111581455117327,
0.1367082294264339,0.0008942431303395806,
0.1367581047381546,-0.00855463245306193,
0.13680798004987532,0.010559621482764537,
0.136857855361596,0.028041506090217647,
0.1369077306733167,-0.01174164000539738,
0.1369576059850374,-0.012075118578724616,
0.1370074812967581,-0.03242688198587182,
0.13705735660847881,-0.009894095206750896,
0.1371072319201995,-0.008048197604574498,
0.1371571072319202,-0.034898368462646975,
0.1372069825436409,-0.0009304686300767098,
0.1372568578553616,0.011685357106281546,
0.1373067331670823,-0.02012963738962744,
0.137356608478803,-0.01762775330247233,
0.1374064837905237,-0.00947753452919192,
0.13745635910224438,-0.028710679144639525,
0.1375062344139651,0.023341177160239396,
0.1375561097256858,0.005974697886538637,
0.13760598503740648,-0.026463076695178632,
0.1376558603491272,-0.020906306357084715,
0.13770573566084787,-0.01337179097856192,
0.13775561097256858,-0.01959181260327946,
0.13780548628428926,0.018959633696758776,
0.13785536159600997,-0.006339371828438493,
0.13790523690773068,0.00201952584513267,
0.13795511221945136,0.0033568455717734817,
0.13800498753117207,-0.027267766443454758,
0.13805486284289276,-0.008567006675614977,
0.13810473815461347,-0.036290860097491426,
0.13815461346633418,0.019443242449146428,
0.13820448877805486,-0.001757865155124657,
0.13825436408977557,-0.0015921532389344475,
0.13830423940149625,-0.011854103780169208,
0.13835411471321696,-0.008587822684689599,
0.13840399002493767,-0.015881856074777614,
0.13845386533665835,-0.02104568265830024,
0.13850374064837906,0.01820432540532905,
0.13855361596009974,-0.01972805892626909,
0.13860349127182045,0.014663391827217397,
0.13865336658354116,0.00860958271023159,
0.13870324189526184,-0.012041664296449041,
0.13875311720698255,-0.0023250293740370905,
0.13880299251870323,-0.0033377348163995905,
0.13885286783042394,-0.025322469976621097,
0.13890274314214462,-0.004981584845060061,
0.13895261845386533,-0.0027543102160709236,
0.13900249376558604,-0.013716668456264826,
0.13905236907730673,-0.011963386749389139,
0.13910224438902744,0.0037643586248448622,
0.13915211970074812,-0.010028962963633394,
0.13920199501246883,-0.015168690527272984,
0.13925187032418954,-0.021481084207878434,
0.13930174563591022,0.000931412950776471,
0.13935162094763093,0.030307796730182083,
0.1394014962593516,-0.005615111254443878,
0.13945137157107232,-0.022385345769196076,
0.13950124688279303,-0.030961274296250847,
0.1395511221945137,-0.020997776848108225,
0.13960099750623442,-0.008465183716213817,
0.1396508728179551,-0.0012229531210440668,
0.1397007481296758,-0.010917334510959123,
0.13975062344139652,0.005612810555922471,
0.1398004987531172,-0.0036450334488414603,
0.1398503740648379,-0.007027984898497674,
0.1399002493765586,0.021597621499499325,
0.1399501246882793,-0.005028494471878288,
0.14,0.0231522314521894,
0.1400498753117207,0.00047208179323478955,
0.1400997506234414,-0.00366913176835704,
0.1401496259351621,-0.008128074600737965,
0.1401995012468828,-0.023355559798732613,
0.14024937655860348,0.009769717103151972,
0.1402992518703242,0.009854632508965264,
0.1403491271820449,0.0019144865448932702,
0.14039900249376558,0.016061858097022104,
0.1404488778054863,-0.03592258399593122,
0.14049875311720697,-0.0034955588902523785,
0.14054862842892768,-0.023737212631594035,
0.1405985037406484,0.009869660265660092,
0.14064837905236907,-0.012635568802501995,
0.14069825436408978,0.01191228408940285,
0.14074812967581046,-0.003828940775456713,
0.14079800498753117,-0.009331031084558749,
0.14084788029925188,0.018303622843423593,
0.14089775561097256,-0.002294923884171644,
0.14094763092269327,-0.006488603857492445,
0.14099750623441396,0.03912486563917893,
0.14104738154613466,0.012393276373328878,
0.14109725685785537,-0.002933269661297556,
0.14114713216957606,-0.019646890988332257,
0.14119700748129677,0.0022288272183914964,
0.14124688279301745,-0.02621612308546131,
