time,amplitude,label
0.0,0.017345329223201946,
4.987531172069826e-05,0.020212654369104487,
9.975062344139652e-05,0.026910682937261295,
0.00014962593516209475,0.028857622288554735,
0.00019950124688279303,3.3396427194919837e-05,
0.00024937655860349125,0.011478145532216077,
0.0002992518703241895,0.02294890226829686,
0.00034912718204488776,0.018990734166907053,
0.00039900249376558606,0.01908087728413375,
0.0004488778054862843,0.004931632418033989,
0.0004987531172069825,0.005150456368596762,
0.0005486284289276808,0.031280821507415076,
0.000598503740648379,0.017872864026230884,
0.0006483790523690773,0.01241367255405361,
0.0006982543640897755,0.016085939073945142,
0.0007481296758104738,0.01569798875580622,
0.0007980049875311721,0.01685979143497821,
0.0008478802992518703,-0.0029678578796872787,
0.0008977556109725686,0.026856728918768426,
0.0009476309226932668,-0.00023249939233354125,
0.000997506234413965,0.02093271196609597,
0.0010473815461346633,-0.011745355288304896,
0.0010972568578553616,-0.008312876700683466,
0.00114713216957606,0.028871215749227314,
0.001197007481296758,-0.0038406504418565836,
0.0012468827930174563,0.017489986022455516,
0.0012967581047381546,0.025255830450858593,
0.001346633416458853,0.03116164878813095,
0.001396508728179551,0.011926501232823,
0.0014463840399002493,0.0256342789517834,
0.0014962593516209476,0.018930450579866778,
0.001546134663341646,0.018593182363174383,
0.0015960099750623442,0.03905931940367898,
0.0016458852867830423,0.021935466008726267,
0.0016957605985037406,0.022435458873038425,
0.001745635910224439,0.006037308727627323,
0.0017955112219451373,0.012698090989299023,
0.0018453865336658353,0.00880775787401403,
0.0018952618453865336,0.03565125454386206,
0.001945137157107232,0.0218481320410461,
0.00199501246882793,0.0319717630215853,
0.0020448877805486283,0.010340656475425996,
0.0020947630922693266,0.009408027759473568,
0.002144638403990025,0.014004818952629058,
0.0021945137157107233,0.037855892297776486,
0.0022443890274314216,0.047660428460088756,
0.00229426433915212,0.022699838945202732,
0.0023441396508728177,0.028715244286959943,
0.002394014962593516,0.007849882052109578,
0.0024438902743142144,0.02528229672277185,
0.0024937655860349127,0.02625829904576389,
0.002543640897755611,0.010268422124288136,
0.0025935162094763093,0.034438766779914726,
0.0026433915211970076,0.0021544129935083672,
0.002693266832917706,-0.001965103384913621,
0.002743142144638404,0.025696543008026596,
0.002793017456359102,0.027788367606059478,
0.0028428927680798004,-0.009276608867878258,
0.0028927680798004987,0.03618207414116492,
0.002942643391521197,0.03495818675399714,
0.0029925187032418953,-0.003988780719354969,
0.0030423940149625936,0.031469228544711916,
0.003092269326683292,-0.014665096541237092,
0.00314214463840399,0.002379602749614927,
0.0031920199501246885,0.04611390007870233,
0.0032418952618453864,-0.029583991525108325,
0.0032917705735660847,0.007271440609308217,
0.003341645885286783,0.03404221200700271,
0.0033915211970074813,0.01848257995671855,
0.0034413965087281796,0.008368722044135876,
0.003491271820448878,0.006456502141141383,
0.003541147132169576,0.0053108153059602745,
0.0035910224438902745,0.024090491572800674,
0.0036408977556109724,0.03343579442464265,
0.0036907730673316707,0.015912913930202083,
0.003740648379052369,0.004197163181262599,
0.0037905236907730673,0.003836503725762247,
0.0038403990024937656,0.014347240018481613,
0.003890274314214464,0.010114356029107128,
0.003940149625935162,0.02668946215404132,
0.00399002493765586,0.0354724838782274,
0.004039900249376558,0.023891082187832067,
0.004089775561097257,0.017542272115655913,
0.004139650872817955,0.01525088932616338,
0.004189526184538653,0.018170100130037718,
0.004239401496259352,0.009402940078073694,
0.00428927680798005,0.02394380654890993,
0.004339152119700748,0.003603763828342689,
0.0043890274314214465,0.03591379667418729,
0.004438902743142145,0.024918060306726317,
0.004488778054862843,0.027681231459041045,
0.004538653366583541,0.027694528601803894,
0.00458852867830424,0.0024160206099791363,
0.004638403990024938,0.02087165517517904,
0.0046882793017456355,0.017421467555226656,
0.004738154613466334,-0.0018089384171673037,
0.004788029925187032,-0.00457179141090118,
0.00483790523690773,-0.0022558889988762605,
0.004887780548628429,0.01316332733171292,
0.004937655860349127,-0.0004115526000793377,
0.004987531172069825,0.00509384931719877,
0.005037406483790524,-0.0061553328727681,
0.005087281795511222,0.0306944871857042,
0.00513715710723192,0.0072190724079418175,
0.0051870324189526185,0.011287111121443157,
0.005236907730673317,0.01590544937051748,
0.005286783042394015,0.0028811640879511735,
0.0053366583541147134,-0.010009043788222385,
0.005386533665835412,0.024005794640611477,
0.00543640897755611,0.021144457303353147,
0.005486284289276808,0.014832860802497658,
0.005536159600997507,0.007325317906518311,
0.005586034912718204,0.026836770910954297,
0.005635910224438902,0.004724881102851084,
0.005685785536159601,-0.008921086808445992,
0.005735660847880299,-0.015825898845919995,
0.005785536159600997,0.012548703010440511,
0.005835411471321696,0.01664290222779371,
0.005885286783042394,-0.028032717981807613,
0.005935162094763092,0.017012639371356723,
0.0059850374064837905,-0.022586974388394937,
0.006034912718204489,0.017226122919281574,
0.006084788029925187,0.01178762599324681,
0.0061346633416458855,0.009363710678547592,
0.006184538653366584,-0.0025515841173675774,
0.006234413965087282,0.0035145203986089914,
0.00628428927680798,-0.011004268376512097,
0.006334164588528679,0.023607066630459837,
0.006384039900249377,-0.01516203238442798,
0.006433915211970074,0.00541109756724571,
0.006483790523690773,-0.003407096588522691,
0.006533665835411471,0.016867678396878638,
0.006583541147132169,0.005111229355726728,
0.006633416458852868,-0.0019821147633663164,
0.006683291770573566,0.003037870620591838,
0.006733167082294264,-0.005466274666567449,
0.0067830423940149626,-0.0019860855478554436,
0.006832917705735661,-0.015773295921174903,
0.006882793017456359,0.0012626196379833437,
0.0069326683291770575,-0.011600856791723851,
0.006982543640897756,-0.0074634098553769904,
0.007032418952618454,-0.01852409384563606,
0.007082294264339152,0.0009160610537456825,
0.007132169576059851,0.005565850422127751,
0.007182044887780549,-0.030075078564818707,
0.007231920199501247,-0.010718747434583967,
0.007281795511221945,-0.0008360345267016435,
0.007331670822942643,-0.007498185931945787,
0.007381546134663341,0.008088684982079933,
0.00743142144638404,-0.006210130838569237,
0.007481296758104738,0.015845188032186774,
0.007531172069825436,-0.013440947262575505,
0.007581047381546135,-0.013995280728449286,
0.007630922693266833,-0.008826084008242401,
0.007680798004987531,0.00836291849195156,
0.0077306733167082295,-0.025608363065862626,
0.007780548628428928,-0.01936071867380961,
0.007830423940149626,0.005024840795633744,
0.007880299251870324,-0.01979657019455648,
0.007930174563591023,-0.019926492256084158,
0.00798004987531172,-0.02318072878247115,
0.00802992518703242,-0.016292031632667285,
0.008079800498753117,0.00042666961197749056,
0.008129675810473816,-0.023674970681489604,
0.008179551122194513,-0.0020526101647044322,
0.008229426433915213,0.006452740625269756,
0.00827930174563591,-0.0292836998798604,
0.00832917705735661,-0.032887022431646054,
0.008379052369077307,-0.010392181047813295,
0.008428927680798006,-0.007651363906386847,
0.008478802992518703,-0.018641654646861162,
0.0085286783042394,-0.0315360675458593,
0.0085785536159601,-0.0159851598523935,
0.008628428927680797,0.007469892811753864,
0.008678304239401496,-0.004704024266587907,
0.008728179551122194,-0.0032879314335237386,
0.008778054862842893,-0.005469358899400791,
0.00882793017456359,-0.019889678550907817,
0.00887780548628429,-0.011871476656973617,
0.008927680798004987,-0.012489264928818215,
0.008977556109725686,0.012478594933939803,
0.009027431421446384,-0.006010235811531248,
0.009077306733167083,-0.03344717470031135,
0.00912718204488778,-0.021253987614041583,
0.00917705735660848,-0.02425714101902159,
0.009226932668329177,-0.035384073601111045,
0.009276807980049876,-0.0243118555829717,
0.009326683291770574,0.00026345123678895785,
0.009376558603491271,-0.0018736914255505777,
0.00942643391521197,-0.020015017000087655,
0.009476309226932668,0.00039642272637717413,
0.009526184538653367,-0.02948454096566285,
0.009576059850374064,-0.02915767600365341,
0.009625935162094763,0.012824997535525746,
0.00967581047381546,-0.016747556824603667,
0.00972568578553616,-0.029789370431779236,
0.009775561097256857,-0.016062498184084388,
0.009825436408977557,-0.03808342749103545,
0.009875311720698254,-0.022078392675223962,
0.009925187032418953,-0.006169116218353246,
0.00997506234413965,-0.013515103843385506,
0.01002493765586035,-0.0064780605216784685,
0.010074812967581047,-0.027975872375010286,
0.010124688279301746,-0.0022071518688392723,
0.010174563591022444,-0.01672792900603998,
0.010224438902743141,-0.013202945367583346,
0.01027431421446384,-0.024807572466150698,
0.010324189526184538,-0.012892339249838208,
0.010374064837905237,-0.021360716838117362,
0.010423940149625935,-0.0037836209276452745,
0.010473815461346634,-0.020440150930718416,
0.010523690773067331,0.008110789437632503,
0.01057356608478803,-0.014038391036584101,
0.010623441396508728,-0.013032255151445668,
0.010673316708229427,-0.018928157937854073,
0.010723192019950124,-0.033698436624747585,
0.010773067331670824,-0.031017420835801793,
0.010822942643391521,-0.006178667002565592,
0.01087281795511222,-0.012212204637767045,
0.010922693266832918,0.003104240804498608,
0.010972568578553617,-0.021993231372265085,
0.011022443890274314,-0.013158587817037392,
0.011072319201995013,-0.0008612704555036495,
0.01112219451371571,-0.03126388577435785,
0.011172069825436408,-0.01755530676134726,
0.011221945137157107,-0.03423331747579769,
0.011271820448877805,-0.012748427251983767,
0.011321695760598504,-0.016128451214824948,
0.011371571072319201,-0.010878094649272474,
0.0114214463840399,0.0026306365546859695,
0.011471321695760598,-0.016791185874455578,
0.011521197007481297,-0.0471346720300162,
0.011571072319201995,-0.01079084748204958,
0.011620947630922694,-0.034596460280970846,
0.011670822942643391,0.006972830762776459,
0.01172069825436409,-0.014915052995788994,
0.011770573566084788,-0.028775090689071244,
0.011820448877805487,-0.05949385503689228,
0.011870324189526184,-0.053297449408691355,
0.011920199501246884,-0.015216744289871015,
0.011970074812967581,-0.0259818778021485,
0.012019950124688279,-0.02117787042835339,
0.012069825436408978,-0.0028365237723238824,
0.012119700748129675,0.0020099454130391055,
0.012169576059850374,-0.002669816541406165,
0.012219451371571072,-0.006096904067055087,
0.012269326683291771,-0.0032005671432704767,
0.012319201995012468,-0.011825756751782438,
0.012369077306733168,-0.008054888251138459,
0.012418952618453865,-0.03322824658996972,
0.012468827930174564,-0.029799830697867874,
0.012518703241895262,-0.03303478608755659,
0.01256857855361596,-0.0021444495338740974,
0.012618453865336658,-0.03326556450807301,
0.012668329177057357,-0.029652757502924135,
0.012718204488778055,0.009634510033857287,
0.012768079800498754,-0.021596711161846027,
0.012817955112219451,-0.008075191568064471,
0.012867830423940149,0.005506768593981689,
0.012917705735660848,-0.01402128672654157,
0.012967581047381545,0.006793535576422215,
0.013017456359102245,-0.01549871205166228,
0.013067331670822942,-0.020657280708139363,
0.013117206982543641,-0.01957478455595652,
0.013167082294264339,0.004980599755700015,
0.013216957605985038,-0.014690208349598178,
0.013266832917705735,0.013832276849799388,
0.013316708229426434,-0.020566801147242693,
0.013366583541147132,-0.0074127155951348184,
0.013416458852867831,-0.013870777808527142,
0.013466334164588529,-0.022223763572509,
0.013516209476309228,-0.015738214772645955,
0.013566084788029925,-0.008897254415787875,
0.013615960099750624,-0.00817654944546788,
0.013665835411471322,-0.019387990960778766,
0.01371571072319202,-0.015257838486945218,
0.013765586034912718,-0.03595403151584063,
0.013815461346633416,-0.022866886278420047,
0.013865336658354115,-0.006673854111728211,
0.013915211970074812,-0.018982349146509928,
0.013965087281795512,-0.01730327944992448,
0.014014962593516209,-0.017619830437852535,
0.014064837905236908,-0.0022120568307032427,
0.014114713216957606,-0.011909041831097015,
0.014164588528678305,-0.019951904793046288,
0.014214463840399002,-0.016981484956865425,
0.014264339152119701,-0.028810926446559623,
0.014314214463840399,-0.022469952912842088,
0.014364089775561098,-0.03240230874709715,
0.014413965087281795,0.0005499184574909114,
0.014463840399002495,0.002240678222791538,
0.014513715710723192,-0.002235808967908667,
0.01456359102244389,-0.006722113867890017,
0.014613466334164589,-0.006142151754286174,
0.014663341645885286,-0.022762298482430172,
0.014713216957605985,0.0184948758439671,
0.014763092269326683,-0.0017538240370363074,
0.014812967581047382,-0.0010164718536250037,
0.01486284289276808,-0.0010901006445304543,
0.014912718204488778,-0.027394513440700447,
0.014962593516209476,0.009690797774730135,
0.015012468827930175,-0.019244274476918333,
0.015062344139650873,-0.0024675095399274627,
0.015112219451371572,-0.016034852041407994,
0.01516209476309227,-0.02388686285291584,
0.015211970074812968,-0.008444536053278233,
0.015261845386533666,-0.021220173486609352,
0.015311720698254365,0.013376471046229584,
0.015361596009975062,0.003004633606529761,
0.01541147132169576,-0.007042459164779429,
0.015461346633416459,-0.009951485673052693,
0.015511221945137156,-0.0003618292304560333,
0.015561097256857856,0.004480406001605592,
0.015610972568578553,-0.022225732648796057,
0.015660847880299252,-0.018055307159402484,
0.01571072319201995,-0.02434424813961409,
0.015760598503740647,-0.010018433491299102,
0.015810473815461346,-0.023320146266116434,
0.015860349127182045,0.0021944146345743154,
0.015910224438902745,0.013752300757639247,
0.01596009975062344,0.0021841805132545356,
0.01600997506234414,-0.020573398607695775,
0.01605985037406484,-0.008935722564237396,
0.016109725685785538,0.012400589686469163,
0.016159600997506234,-0.0042068451579509135,
0.016209476309226933,0.0050912613459083034,
0.016259351620947632,0.004971563639748256,
0.016309226932668328,-0.010954281546207164,
0.016359102244389027,-0.010642194208756693,
0.016408977556109726,0.013641006261548228,
0.016458852867830425,0.005286738807517118,
0.01650872817955112,0.030722577556796977,
0.01655860349127182,-0.011310727526226232,
0.01660847880299252,0.0032475602104121053,
0.01665835411471322,-0.007222391234756662,
0.016708229426433914,0.014761476133006554,
0.016758104738154613,-0.04158977836667105,
0.016807980049875312,0.00782464933679291,
0.01685785536159601,0.009545995352351126,
0.016907730673316707,0.02117629518764908,
0.016957605985037406,-0.015374322225131392,
0.017007481296758106,0.010845446842756113,
0.0170573566084788,0.003095727916833509,
0.0171072319201995,0.014615148352421935,
0.0171571072319202,0.019144516538329482,
0.0172069825436409,0.0007623855497246876,
0.017256857855361595,0.018992945752661822,
0.017306733167082294,0.000367956045997298,
0.017356608478802993,0.006843418840116507,
0.017406483790523692,0.002249170492582716,
0.017456359102244388,-0.011795899910247829,
0.017506234413965087,0.017440733682553868,
0.017556109725685786,0.008476748315317388,
0.017605985037406485,-0.0034376983593129157,
0.01765586034912718,-0.01862271831732539,
0.01770573566084788,0.00255180345575639,
0.01775561097256858,-0.0010078091147580001,
0.01780548628428928,0.014749048912519793,
0.017855361596009974,0.0016852374333373703,
0.017905236907730673,0.008759469736021002,
0.017955112219451373,0.0306376333368057,
0.018004987531172068,0.01260691750231574,
0.018054862842892767,0.02179331996831197,
0.018104738154613467,0.01613020974262511,
0.018154613466334166,0.01544579640193874,
0.01820448877805486,-0.008236548003898366,
0.01825436408977556,0.0016099105771333264,
0.01830423940149626,-0.01329825562137329,
0.01835411471321696,0.025651358346566053,
0.018403990024937655,0.02079390782868443,
0.018453865336658354,0.04635115121407338,
0.018503740648379053,0.01828467303666558,
0.018553615960099752,0.009600184524450835,
0.018603491271820448,0.021815001835149193,
0.018653366583541147,-0.010602391099993048,
0.018703241895261846,0.04725284851667169,
0.018753117206982542,-0.010778175999993422,
0.01880299251870324,0.04135850122216228,
0.01885286783042394,-0.0026580695127105397,
0.01890274314214464,0.016610706628353504,
0.018952618453865335,-0.005514772471371627,
0.019002493765586034,0.012304099052049875,
0.019052369077306733,-0.02682027466005623,
0.019102244389027433,0.02191879757103455,
0.01915211970074813,-0.0172117123539616,
0.019201995012468828,-0.005019401546376499,
0.019251870324189527,-0.010091114291841084,
0.019301745635910226,0.012741428473641625,
0.01935162094763092,0.02904687048132413,
0.01940149625935162,0.00012499525958560229,
0.01945137157107232,0.007494201985185762,
0.01950124688279302,0.015317157291239105,
0.019551122194513715,0.007428626292677921,
0.019600997506234414,0.0034932417652878914,
0.019650872817955113,0.0009697939723610043,
0.01970074812967581,-0.0012145049433388289,
0.019750623441396508,0.011764948472756812,
0.019800498753117207,0.006169515621341328,
0.019850374064837906,0.022471994211685376,
0.019900249376558602,0.020202139239513948,
0.0199501246882793,0.0015055093190023822,
0.02,0.025527797724174867,
0.0200498753117207,0.030120150161971462,
0.020099750623441395,0.0043062173189046225,
0.020149625935162094,0.01838844309070315,
0.020199501246882794,0.03782297734414297,
0.020249376558603493,0.03364752025720738,
0.02029925187032419,0.02873721108895707,
0.020349127182044888,0.024060307368035248,
0.020399002493765587,0.011835501310280003,
0.020448877805486283,0.03895333507503937,
0.02049875311720698,0.017489543097200765,
0.02054862842892768,0.014652814528869514,
0.02059850374064838,0.02805139075931678,
0.020648379052369076,0.022918581614314332,
0.020698254364089775,0.01567984856366763,
0.020748129675810474,0.03492405031020225,
0.020798004987531173,0.05108128305662385,
0.02084788029925187,0.02730597326816137,
0.020897755610972568,0.047335852415694345,
0.020947630922693267,0.009167299373042441,
0.020997506234413967,0.03133908072617322,
0.021047381546134662,0.031277294428494376,
0.02109725685785536,0.029573073714520292,
0.02114713216957606,0.04372372298102277,
0.02119700748129676,0.028963857811390128,
0.021246882793017455,0.03719221597788242,
0.021296758104738155,0.02800722945139997,
0.021346633416458854,0.04299147085806469,
0.02139650872817955,0.02075026450620741,
0.02144638403990025,0.01388141694865077,
0.021496259351620948,0.030400462692814934,
0.021546134663341647,0.02192209593626144,
0.021596009975062343,0.028446445940186405,
0.021645885286783042,0.014474817618586277,
0.02169576059850374,0.010224514377989354,
0.02174563591022444,0.02581580055476665,
0.021795511221945136,0.004146877260496805,
0.021845386533665835,0.02095860373646248,
0.021895261845386534,0.030179072297320385,
0.021945137157107233,0.02934529417310223,
0.02199501246882793,0.026150213521513727,
0.02204488778054863,0.042752816375861855,
0.022094763092269327,0.019816329567677905,
0.022144638403990027,0.027475992134735172,
0.022194513715710722,0.00866624643307377,
0.02224438902743142,0.026189744283760967,
0.02229426433915212,0.017784733340928394,
0.022344139650872816,0.022122828949659515,
0.022394014962593516,0.029910496271534345,
0.022443890274314215,0.013232263511919135,
0.022493765586034914,0.005701387031041307,
0.02254364089775561,0.02395528865979813,
0.02259351620947631,0.040740571943758144,
0.022643391521197008,0.05076271733005706,
0.022693266832917707,0.03648906397499416,
0.022743142144638403,0.00850915761124641,
0.022793017456359102,0.039723276080566056,
0.0228428927680798,0.02200573262869772,
0.0228927680798005,0.0237001499371636,
0.022942643391521196,0.05197427563183964,
0.022992518703241895,-0.004264289031950006,
0.023042394014962594,0.01616142881180898,
0.02309226932668329,0.004650618107194351,
0.02314214463840399,-0.004597139769458948,
0.02319201995012469,-0.005977526904134469,
0.023241895261845388,0.03502404839535687,
0.023291770573566083,0.023326498407917107,
0.023341645885286783,0.031490112698931795,
0.02339152119700748,0.015030600556280534,
0.02344139650872818,-0.008330291225041822,
0.023491271820448877,0.017735978964985737,
0.023541147132169576,0.016352580204383942,
0.023591022443890275,0.007800466534884263,
0.023640897755610974,0.011646051605935598,
0.02369077306733167,0.024073967627332896,
0.02374064837905237,0.010138253214097847,
0.023790523690773068,0.04925079427404863,
0.023840399002493767,-0.026574383934416412,
0.023890274314214463,0.03726234204190426,
0.023940149625935162,0.0013887151628044683,
0.02399002493765586,-0.0031379229348906853,
0.024039900249376557,0.012852811610062426,
0.024089775561097256,0.009491652695536361,
0.024139650872817955,0.017863507961723802,
0.024189526184538655,0.030904791650475612,
0.02423940149625935,0.0048373005790977135,
0.02428927680798005,0.009072526337196447,
0.02433915211970075,0.03588761725702705,
0.024389027431421448,0.01303163635603257,
0.024438902743142144,0.006812997542023672,
0.024488778054862843,0.02945859509403452,
0.024538653366583542,-0.0022431819727105774,
0.02458852867830424,-0.004733066696610269,
0.024638403990024937,0.03453927719930316,
0.024688279301745636,0.00736466995934417,
0.024738154613466335,-0.007636240655678091,
0.02478802992518703,-0.010823553147947158,
0.02483790523690773,-0.026934514998809254,
0.02488778054862843,-0.006387770979472291,
0.02493765586034913,0.04454645117170338,
0.024987531172069824,0.012668799047127763,
0.025037406483790523,0.03113535941532932,
0.025087281795511222,0.003179515412224226,
0.02513715710723192,0.008631588861934908,
0.025187032418952617,0.018718787052950155,
0.025236907730673316,0.008664030515970294,
0.025286783042394016,-0.01377929551964224,
0.025336658354114715,-0.008231821384029371,
0.02538653366583541,0.024292234679630025,
0.02543640897755611,-0.015615048748135216,
0.02548628428927681,0.010925954073095205,
0.025536159600997508,-0.004867538625755272,
0.025586034912718204,0.013961997330193505,
0.025635910224438903,0.009123053605446295,
0.025685785536159602,0.0060359882853532896,
0.025735660847880298,0.0006251056657808427,
0.025785536159600997,-0.021648885616201163,
0.025835411471321696,0.01183210187943656,
0.025885286783042395,0.013250791630650903,
0.02593516209476309,0.014103218528843553,
0.02598503740648379,0.009891697520816756,
0.02603491271820449,-0.0027880648019175183,
0.02608478802992519,0.01365027729847344,
0.026134663341645884,0.0008108023513767357,
0.026184538653366583,-0.019105511739142288,
0.026234413965087282,-0.03053459928502041,
0.02628428927680798,-0.008466216142061472,
0.026334164588528677,0.009634599628526315,
0.026384039900249377,0.014340830188673645,
0.026433915211970076,0.0076115561766472856,
0.02648379052369077,-0.002836661003294698,
0.02653366583541147,0.01270499765778136,
0.02658354114713217,0.008028229830496827,
0.02663341645885287,0.020249266942347535,
0.026683291770573565,-0.02028806693304886,
0.026733167082294264,0.011517932087719618,
0.026783042394014963,0.01857465351471632,
0.026832917705735662,-0.012046591264700104,
0.026882793017456358,-0.0201758310735887,
0.026932668329177057,-0.013013602758362544,
0.026982543640897756,-0.010980875320342509,
0.027032418952618455,-0.034096784376066946,
0.02708229426433915,0.018519936616202444,
0.02713216957605985,-0.005957400869230895,
0.02718204488778055,0.015591122030608796,
0.02723192019950125,-0.004775568979444366,
0.027281795511221944,0.011114838287771548,
0.027331670822942643,-0.029500785720819572,
0.027381546134663343,-0.012400117622231184,
0.02743142144638404,0.009217507869354262,
0.027481296758104738,-0.000589282934725298,
0.027531172069825437,-0.003569974154119487,
0.027581047381546136,-0.024635878221736407,
0.02763092269326683,-0.018314070387635214,
0.02768079800498753,-0.0035356127641883385,
0.02773067331670823,0.01848866745686749,
0.02778054862842893,0.03552388566262652,
0.027830423940149625,-0.005564529122380292,
0.027880299251870324,0.00769675314095784,
0.027930174563591023,-0.011431855498468604,
0.027980049875311722,-0.029630515928559725,
0.028029925187032418,0.005678686109038848,
0.028079800498753117,-0.01549740115080752,
0.028129675810473816,0.02717611918873064,
0.028179551122194512,-0.021743970156873495,
0.02822942643391521,-0.008365862077063097,
0.02827930174563591,-0.005346667140547797,
0.02832917705735661,-0.005290752916716242,
0.028379052369077305,-0.021714059969657203,
0.028428927680798004,0.0063526446524815264,
0.028478802992518704,-0.040459015921215924,
0.028528678304239403,-0.007210816029850572,
0.0285785536159601,0.0008102744661363237,
0.028628428927680798,-0.020404431431856322,
0.028678304239401497,0.015104101840145089,
0.028728179551122196,-0.03693131405004744,
0.02877805486284289,-0.004634371358040065,
0.02882793017456359,-0.006401465255752184,
0.02887780548628429,-0.005651722694186727,
0.02892768079800499,0.007833953567533972,
0.028977556109725685,-0.011889784125852596,
0.029027431421446384,-0.016072337233861658,
0.029077306733167083,-0.015297795431881683,
0.02912718204488778,-0.019612136254284047,
0.029177057356608478,-0.024869717060707536,
0.029226932668329177,-0.0013009553862187873,
0.029276807980049877,-0.002879128258226579,
0.029326683291770572,-0.004920307607663047,
0.02937655860349127,-0.0037786338774160756,
0.02942643391521197,-0.010331806783608628,
0.02947630922693267,-0.012006251156523283,
0.029526184538653365,-0.04074677235614586,
0.029576059850374065,-0.003356940903910928,
0.029625935162094764,-0.013069399769183022,
0.029675810473815463,-0.01766925264325225,
0.02972568578553616,-0.028139475011711157,
0.029775561097256858,0.0078028989291156325,
0.029825436408977557,-0.026358118465516202,
0.029875311720698253,-0.02249955149772716,
0.029925187032418952,-0.026095783778742894,
0.02997506234413965,-0.002570647471593787,
0.03002493765586035,-0.033445643853800555,
0.030074812967581046,-0.018751161185992567,
0.030124688279301745,-0.011625532661685808,
0.030174563591022444,-0.02280235454236971,
0.030224438902743143,-0.033896770283192074,
0.03027431421446384,0.008674410087800045,
0.03032418952618454,-0.02010239916092795,
0.030374064837905237,-0.0067992232867931,
0.030423940149625937,-0.019072211118686004,
0.030473815461346632,-0.02303208804482118,
0.03052369077306733,-0.009367989998879764,
0.03057356608478803,-0.008595419855898213,
0.03062344139650873,-0.0341323684597422,
0.030673316708229426,-0.008951933879671215,
0.030723192019950125,-0.001699985105496831,
0.030773067331670824,-0.02338947453291252,
0.03082294264339152,-0.00943644268561212,
0.03087281795511222,-0.023840532285628095,
0.030922693266832918,-0.01788903393628282,
0.030972568578553617,-0.000353594545484337,
0.031022443890274313,0.008284272700699868,
0.031072319201995012,-0.04474756758898579,
0.03112219451371571,-0.019544659342301887,
0.03117206982543641,0.0039086437031768465,
0.031221945137157106,-0.030023944301784074,
0.03127182044887781,-0.0214561493078244,
0.031321695760598504,-0.03024902242024184,
0.0313715710723192,-0.027234692732370766,
0.0314214463840399,-0.02288459750764065,
0.0314713216957606,-0.004372383397963406,
0.031521197007481294,-0.01853861508732828,
0.031571072319202,-0.014441238300162407,
0.03162094763092269,-0.06273091267403477,
0.03167082294264339,-0.03257078466836909,
0.03172069825436409,-0.019238410195954524,
0.03177057356608479,0.0029085234966127922,
0.03182044887780549,-0.04878791675068591,
0.031870324189526185,-0.00637630428350738,
0.03192019950124688,-0.0495567242055259,
0.03197007481296758,-0.02516326383975223,
0.03201995012468828,0.016995887032109212,
0.032069825436408975,-0.03207629521293048,
0.03211970074812968,0.006846230702927433,
0.03216957605985037,-0.027254604069022623,
0.032219451371571076,-0.020922291730246047,
0.03226932668329177,-0.038310071293750185,
0.03231920199501247,-0.020741875436505165,
0.03236907730673317,0.0025821429027387613,
0.032418952618453865,-0.020297932336643884,
0.03246882793017456,-0.0264115967899276,
0.032518703241895264,0.009522153794662886,
0.03256857855361596,0.021584675922848337,
0.032618453865336655,-0.026270338024474413,
0.03266832917705736,-0.012040835404600513,
0.032718204488778053,-0.03322999313762708,
0.032768079800498756,-0.037700483060110104,
0.03281795511221945,0.00499767772304391,
0.03286783042394015,-0.011448803709269033,
0.03291770573566085,-0.041379301884823055,
0.032967581047381546,-0.021049705095081528,
0.03301745635910224,0.013787938694972336,
0.033067331670822944,-0.012762683878620132,
0.03311720698254364,-0.0057752856728884045,
0.03316708229426434,-0.024339610039352852,
0.03321695760598504,0.018068117264487975,
0.033266832917705734,-0.013496063317105154,
0.03331670822942644,-0.018743069707428894,
0.03336658354114713,0.01433393654605571,
0.03341645885286783,0.002128792846412259,
0.03346633416458853,0.007116556956680051,
0.033516209476309226,-0.035630696454965444,
0.03356608478802992,-0.009944956030631051,
0.033615960099750625,-0.019252407582677655,
0.03366583541147132,0.014221967620412005,
0.03371571072319202,0.01900064101963683,
0.03376558603491272,-0.024098594382467718,
0.033815461346633414,-0.012336234810216522,
0.03386533665835412,0.006905795249808827,
0.03391521197007481,0.004488256125334588,
0.03396508728179551,-0.015699492020683638,
0.03401496259351621,-0.021979796971626275,
0.03406483790523691,-0.000963896226093889,
0.0341147132169576,0.006175982111524678,
0.034164588528678305,-0.044827157552912444,
0.034214463840399,0.004479820083846273,
0.034264339152119704,-0.007556667115054971,
0.0343142144638404,0.002534820733742088,
0.034364089775561095,-0.0037097320373833294,
0.0344139650872818,-0.01382262339314711,
0.03446384039900249,0.003984333492153141,
0.03451371571072319,-0.0034815036501809286,
0.03456359102244389,-0.02656846075925431,
0.03461346633416459,-0.001114235412859382,
0.03466334164588529,-0.006589751046928962,
0.034713216957605986,-0.016183553313340836,
0.03476309226932668,-0.02437495797610215,
0.034812967581047384,-0.011617893206699861,
0.03486284289276808,-0.02870011396381646,
0.034912718204488775,-0.009560352946030783,
0.03496259351620948,0.005106947139342835,
0.035012468827930174,-0.01763879464872487,
0.03506234413965087,0.007476991392230258,
0.03511221945137157,-0.021610934570929566,
0.03516209476309227,0.019384512028547157,
0.03521197007481297,-0.003566436238621084,
0.035261845386533666,0.02416377455165633,
0.03531172069825436,0.0008106208688427982,
0.035361596009975065,0.02624172513725971,
0.03541147132169576,-0.015089142551345821,
0.035461346633416456,-0.01240104796456202,
0.03551122194513716,0.0117251886001885,
0.035561097256857854,-0.0065379189616791775,
0.03561097256857856,0.003650546074822459,
0.03566084788029925,0.0018170328026474668,
0.03571072319201995,-0.022004989794064456,
0.03576059850374065,0.0041587998848482315,
0.03581047381546135,-0.005527956386076187,
0.03586034912718204,-0.001621954416641824,
0.035910224438902745,-0.01757621551520245,
0.03596009975062344,0.0118569505810989,
0.036009975062344136,-0.008542516995716808,
0.03605985037406484,-0.020655030668102016,
0.036109725685785535,0.00326603783562674,
0.03615960099750624,0.001270163122025875,
0.03620947630922693,-0.008090964928168362,
0.03625935162094763,0.00194687073364525,
0.03630922693266833,0.0020021789403507906,
0.03635910224438903,-0.010083746830745218,
0.03640897755610972,0.020613924987612678,
0.036458852867830426,0.019003572612983424,
0.03650872817955112,0.01179637370230803,
0.036558603491271824,0.00016986017522776847,
0.03660847880299252,0.0010259349843100532,
0.036658354114713215,0.016845160650923747,
0.03670822942643392,0.006012340992745684,
0.036758104738154614,0.021141781442469122,
0.03680798004987531,0.01616434227993803,
0.03685785536159601,-0.006705261466546889,
0.03690773067331671,0.0002627170623176276,
0.0369576059850374,0.02121605062338219,
0.037007481296758106,0.022139495119688227,
0.0370573566084788,-0.014688073903537132,
0.037107231920199504,-0.016128855729987665,
0.0371571072319202,-0.01423974589949656,
0.037206982543640896,0.020108108933042303,
0.0372568578553616,0.01867143749393957,
0.037306733167082294,0.014921640939670022,
0.03735660847880299,0.01981185381007084,
0.03740648379052369,0.001061129913346932,
0.03745635910224439,0.03191105918127517,
0.037506234413965084,-0.012311759721940358,
0.037556109725685786,0.02125314564901131,
0.03760598503740648,0.007153560484252971,
0.037655860349127185,0.02013669571692348,
0.03770573566084788,0.011750698990325485,
0.037755610972568576,0.029414924163618926,
0.03780548628428928,-0.006075155142016531,
0.037855361596009975,0.00692161478914968,
0.03790523690773067,0.01777122681905667,
0.03795511221945137,-0.013565595205293901,
0.03800498753117207,0.014364715972419846,
0.03805486284289277,0.015637640683354274,
0.03810473815461347,0.015944724701698082,
0.03815461346633416,0.016497875387333348,
0.038204488778054865,0.012962659659550643,
0.03825436408977556,0.009888712908247273,
0.03830423940149626,0.018656422967216573,
0.03835411471321696,0.009892640504830692,
0.038403990024937655,0.02967257412185107,
0.03845386533665835,-0.002216842891129901,
0.03850374064837905,0.025275600163080066,
0.03855361596009975,-0.005621288389899993,
0.03860349127182045,0.013289360659696733,
0.03865336658354115,-0.004997069632757908,
0.03870324189526184,0.020268837386298786,
0.038753117206982546,0.012262660453631228,
0.03880299251870324,0.054094216638746015,
0.03885286783042394,0.0269766636639273,
0.03890274314214464,0.017303580190268137,
0.038952618453865336,0.014451019338908933,
0.03900249376558604,0.02736324503154384,
0.039052369077306734,0.014369313167045573,
0.03910224438902743,0.001637352632719677,
0.03915211970074813,0.001987719022538987,
0.03920199501246883,0.013180645155556218,
0.039251870324189524,0.02024787888444085,
0.039301745635910226,0.017033424752963218,
0.03935162094763092,0.03643053753979772,
0.03940149625935162,0.021261065865148105,
0.03945137157107232,0.0076258875394983605,
0.039501246882793016,0.027817164843357653,
0.03955112219451372,0.032217065939370015,
0.039600997506234414,0.02584687449449209,
0.03965087281795511,0.019377174319423294,
0.03970074812967581,0.04469585723828125,
0.03975062344139651,0.026561606040242134,
0.039800498753117204,0.027094497431090808,
0.03985037406483791,0.04106152804085425,
0.0399002493765586,0.03246867490943356,
0.039950124688279305,0.043961340941580926,
0.04,0.011142249276432025,
0.0400498753117207,0.01393622438363418,
0.0400997506234414,0.04409582229774927,
0.040149625935162095,0.047585852233424715,
0.04019950124688279,0.05094085020246334,
0.04024937655860349,0.0036016336024273857,
0.04029925187032419,0.022518099133749088,
0.040349127182044885,0.015898739190653287,
0.04039900249376559,0.04820034138856458,
0.04044887780548628,0.03675665212712433,
0.040498753117206986,0.016038047973321343,
0.04054862842892768,0.0412015880497413,
0.04059850374064838,0.026454419261001488,
0.04064837905236908,0.03895660245900179,
0.040698254364089775,0.028389158044666976,
0.04074812967581047,0.020365183135888767,
0.040798004987531174,0.02823762248392718,
0.04084788029925187,0.008626049240317507,
0.040897755610972565,0.043814579393952786,
0.04094763092269327,-0.0017848937567053295,
0.04099750623441396,0.029214855699251384,
0.041047381546134666,0.03184636716223741,
0.04109725685785536,0.010345773490466134,
0.04114713216957606,0.029756837290434948,
0.04119700748129676,0.03932671339188336,
0.041246882793017456,0.01884532025708573,
0.04129675810473815,0.019222669489772526,
0.041346633416458854,0.040756247790318716,
0.04139650872817955,0.02369041330484173,
0.04144638403990025,0.016085828499634462,
0.04149625935162095,0.014426538314372808,
0.041546134663341644,0.05440313732214562,
0.04159600997506235,0.0383372116375358,
0.04164588528678304,0.0376689139220337,
0.04169576059850374,0.010164150046702456,
0.04174563591022444,0.04600529679486255,
0.041795511221945136,0.0249378447191204,
0.04184538653366583,0.02313995954176473,
0.041895261845386535,0.039979524196036134,
0.04194513715710723,-0.005930758591610508,
0.04199501246882793,0.015428700559324424,
0.04204488778054863,0.0289341117361354,
0.042094763092269324,0.0011827599170765105,
0.04214463840399003,0.017697538688276754,
0.04219451371571072,0.0151208787315711,
0.04224438902743142,0.01959543847740693,
0.04229426433915212,0.016613651338509505,
0.04234413965087282,0.028307517323057044,
0.04239401496259352,-0.0068695350224671214,
0.042443890274314215,0.027979469712740842,
0.04249376558603491,0.026587445603739872,
0.042543640897755614,0.027813782181280354,
0.04259351620947631,0.03208746006914936,
0.042643391521197005,0.0164809234496451,
0.04269326683291771,0.004434317529156458,
0.0427431421446384,0.032443586091423476,
0.0427930174563591,0.020072644745084807,
0.0428428927680798,0.02688952490094097,
0.0428927680798005,0.017231702192788394,
0.0429426433915212,0.00919519727758624,
0.042992518703241896,0.01807235835038934,
0.04304239401496259,0.026132046967964714,
0.043092269326683294,-0.0030092662145109784,
0.04314214463840399,0.010517263315487826,
0.043192019950124685,0.04068077551664709,
0.04324189526184539,0.018125110542422447,
0.043291770573566084,0.047526780985458913,
0.043341645885286786,0.01041120704615896,
0.04339152119700748,0.017198623806669904,
0.04344139650872818,0.04583134688584578,
0.04349127182044888,-0.015142205304837307,
0.043541147132169576,0.01598276230996,
0.04359102244389027,0.009635680245629125,
0.043640897755610975,0.021163743054099658,
0.04369077306733167,0.021461714229632847,
0.043740648379052366,0.012178911862260632,
0.04379052369077307,0.0045935263251770456,
0.043840399002493764,0.01904155316774246,
0.04389027431421447,0.024125218998239273,
0.04394014962593516,0.011486937585757716,
0.04399002493765586,0.01473662279409819,
0.04403990024937656,-0.003954772390360961,
0.04408977556109726,0.015401488992887263,
0.04413965087281795,0.02717763248304667,
0.044189526184538655,0.02856578608458535,
0.04423940149625935,0.0032266959666842968,
0.04428927680798005,-0.010817965014503555,
0.04433915211970075,0.012873232673993804,
0.044389027431421445,0.001296731927706499,
0.04443890274314215,0.012043328047287109,
0.04448877805486284,0.030874737122388085,
0.04453865336658354,0.02233502648813343,
0.04458852867830424,0.0025700732265354492,
0.04463840399002494,-0.005839892371402056,
0.04468827930174563,-0.002096730894932751,
0.044738154613466335,0.007785247345078149,
0.04478802992518703,0.007944318058749946,
0.044837905236907734,0.0074927576926609365,
0.04488778054862843,0.03868865841332417,
0.044937655860349125,0.024990569484700027,
0.04498753117206983,0.0015436406602879777,
0.045037406483790524,0.0031710584344822376,
0.04508728179551122,0.012642619860146479,
0.04513715710723192,0.01751682149126896,
0.04518703241895262,0.0009412863332365542,
0.04523690773067331,-0.0038936759608861355,
0.045286783042394016,0.02534481201090693,
0.04533665835411471,0.00801035996940825,
0.045386533665835414,0.014757267211987352,
0.04543640897755611,0.005272094280908241,
0.045486284289276806,-0.013238661911414408,
0.04553615960099751,0.03282708484002781,
0.045586034912718204,-3.955481687034808e-05,
0.0456359102244389,0.024382101033858558,
0.0456857855361596,0.0034719437258154736,
0.0457356608478803,-0.0031083256411658794,
0.045785536159601,0.039410579838650935,
0.045835411471321696,0.007461997521854376,
0.04588528678304239,0.0320727190058179,
0.045935162094763095,-0.007768123762367076,
0.04598503740648379,0.010508202859498916,
0.046034912718204486,0.008669872182954803,
0.04608478802992519,-0.014296366028406103,
0.046134663341645885,0.04063824454533264,
0.04618453865336658,-0.004232880374605127,
0.04623441396508728,0.016808657709154216,
0.04628428927680798,0.010064702064903994,
0.04633416458852868,-0.007232005160019808,
0.04638403990024938,0.015518588098185314,
0.04643391521197007,0.00749294042377573,
0.046483790523690775,-0.003684729246501993,
0.04653366583541147,0.010083781411044133,
0.04658354114713217,0.021227382615432434,
0.04663341645885287,0.007363928904973615,
0.046683291770573565,0.021320607587082246,
0.04673316708229427,-0.003498202272583876,
0.04678304239401496,0.013015932195380348,
0.04683291770573566,0.0011169065520715612,
0.04688279301745636,-0.0322591302149497,
0.04693266832917706,-0.0019563303510180988,
0.04698254364089775,-0.017280658220021686,
0.047032418952618456,-0.0014630157326755847,
0.04708229426433915,-0.0027937228532593575,
0.04713216957605985,0.0029938144370482136,
0.04718204488778055,-0.015230121784658135,
0.047231920199501246,-0.0025761957105707423,
0.04728179551122195,0.007348836368049462,
0.047331670822942644,-0.009071519986304146,
0.04738154613466334,0.0037801459042468492,
0.04743142144638404,0.008855563098034213,
0.04748129675810474,0.004380014709059139,
0.047531172069825434,-0.0036220307481854685,
0.047581047381546136,-0.005903269356324368,
0.04763092269326683,0.007204507328886977,
0.047680798004987535,-0.023303661115003538,
0.04773067331670823,0.0001019899844534912,
0.047780548628428926,-0.017699601628692878,
0.04783042394014963,-0.014518657895980655,
0.047880299251870324,-0.0145735666203727,
0.04793017456359102,-0.009075393334204524,
0.04798004987531172,0.005375548870763144,
0.04802992518703242,-0.003448676365681806,
0.048079800498753114,-0.006130679764468087,
0.04812967581047382,-0.02012506589390805,
0.04817955112219451,-0.005247108213991625,
0.048229426433915215,0.02171857309539143,
0.04827930174563591,-0.03071477630049681,
0.048329177057356607,-0.006738126787778536,
0.04837905236907731,0.005208666113899951,
0.048428927680798005,-0.009014080869172835,
0.0484788029925187,-0.01897706881584683,
0.0485286783042394,0.007927013736979906,
0.0485785536159601,-0.03062898182844496,
0.048628428927680795,0.002864141209269401,
0.0486783042394015,0.008977633566912259,
0.04872817955112219,-0.010190357844837149,
0.048778054862842896,-0.023530000548004526,
0.04882793017456359,-0.022779987706097474,
0.04887780548628429,-0.000911205964080973,
0.04892768079800499,-0.0061763031309161895,
0.048977556109725685,-0.0043775955951807005,
0.04902743142144638,-0.021730816897801868,
0.049077306733167084,-0.0039194520754252124,
0.04912718204488778,0.0011563688363076998,
0.04917705735660848,-0.0038202420974905137,
0.04922693266832918,-0.00829096952584822,
0.04927680798004987,-0.009652766419854342,
0.049326683291770576,-0.020712937973430656,
0.04937655860349127,-0.005738248520213829,
0.04942643391521197,-0.01744528304043852,
0.04947630922693267,-0.025866206640014572,
0.049526184538653366,-0.021022805625123743,
0.04957605985037406,0.005066441345349448,
0.049625935162094764,-0.009673327233311567,
0.04967581047381546,-0.05161209745378868,
0.04972568578553616,-0.024774106679906628,
0.04977556109725686,0.0014544043285064524,
0.049825436408977554,0.0050164130746179585,
0.04987531172069826,-0.03511799690385354,
0.04992518703241895,-0.03041678405285996,
0.04997506234413965,-0.02314853154060338,
0.05002493765586035,0.007488901394303587,
0.050074812967581046,-0.0146955326189542,
0.05012468827930175,-0.003325589704447452,
0.050174563591022445,-0.044130161424205686,
0.05022443890274314,-0.007448740785442337,
0.05027431421446384,-0.018642364579388764,
0.05032418952618454,-0.018956815501995714,
0.050374064837905234,-0.010889156749444349,
0.05042394014962594,-0.02790698246487998,
0.05047381546134663,-0.03067625449804186,
0.05052369077306733,-0.023147360194955433,
0.05057356608478803,-0.002749475499771309,
0.05062344139650873,-0.0024248515188800782,
0.05067331670822943,-0.0003458802364903809,
0.050723192019950125,-0.0242901370046862,
0.05077306733167082,0.00026863816327600196,
0.050822942643391524,-0.0337621557677293,
0.05087281795511222,-0.01536052849925535,
0.050922693266832915,-0.01813040163086139,
0.05097256857855362,-0.024039847808336776,
0.05102244389027431,-0.007016184506202878,
0.051072319201995016,-0.01980363848644425,
0.05112219451371571,0.004238740034077905,
0.05117206982543641,0.003452243528349719,
0.05122194513715711,0.0014922973126558492,
0.051271820448877806,-0.0032116962735269823,
0.0513216957605985,-0.02335389889904243,
0.051371571072319204,-0.019753102367874628,
0.0514214463840399,0.004597049637997806,
0.051471321695760595,0.0013027363393138189,
0.0515211970074813,-0.010438247146821882,
0.051571072319201994,-0.012688463191432952,
0.051620947630922696,-0.03729794968268295,
0.05167082294264339,-0.019840919050903176,
0.05172069825436409,-0.015331934228449823,
0.05177057356608479,-0.015732024079583372,
0.051820448877805486,-0.019423178258216885,
0.05187032418952618,-0.022682859703019743,
0.051920199501246884,-0.025220744329524224,
0.05197007481296758,-0.010791399299715839,
0.052019950124688276,-0.017722446670070887,
0.05206982543640898,-0.00888192785404693,
0.052119700748129674,-0.004050793810701453,
0.05216957605985038,-0.03615179523947647,
0.05221945137157107,-0.015819827918204746,
0.05226932668329177,0.0004072869589914121,
0.05231920199501247,-0.019869276328418048,
0.05236907730673317,-0.031786560494877644,
0.05241895261845386,-0.006579735824078876,
0.052468827930174565,-0.001362073331627564,
0.05251870324189526,-0.00018571009418819583,
0.05256857855361596,-0.024001455006827942,
0.05261845386533666,-0.0030902084390292753,
0.052668329177057355,-0.013208719959062067,
0.05271820448877806,0.008820491940428752,
0.05276807980049875,-0.014631378160847931,
0.05281795511221945,-0.02360789487960223,
0.05286783042394015,-0.02586647103700522,
0.05291770573566085,-0.02777192048510093,
0.05296758104738154,-0.019516276077690818,
0.053017456359102245,-0.03184017452537512,
0.05306733167082294,-0.0051769589612051265,
0.053117206982543644,0.008132602494554771,
0.05316708229426434,-0.030200807701903684,
0.053216957605985035,-0.011331330961149034,
0.05326683291770574,-0.0020309171679908315,
0.053316708229426434,-0.003943021523646093,
0.05336658354114713,-0.013245242698559319,
0.05341645885286783,-0.006645766274001573,
0.05346633416458853,-0.01792507641069771,
0.05351620947630923,-0.011246553173648898,
0.053566084788029926,-0.011527222706541674,
0.05361596009975062,-0.017619979594419508,
0.053665835411471324,-0.03210389827777865,
0.05371571072319202,0.007911578457723036,
0.053765586034912716,-0.018809995181842516,
0.05381546134663342,-0.006921591432848655,
0.053865336658354114,-0.011738523074328114,
0.05391521197007481,-0.022482457769665197,
0.05396508728179551,-0.010175464498680897,
0.05401496259351621,0.01670302084193151,
0.05406483790523691,-0.008987837459901532,
0.054114713216957606,0.008908889184005104,
0.0541645885286783,0.014171183329595105,
0.054214463840399005,0.007021291872933957,
0.0542643391521197,-0.014759221491889567,
0.054314214463840396,0.012172978145698617,
0.0543640897755611,-0.0049581318581548225,
0.054413965087281795,-0.03975314481300806,
0.0544638403990025,-0.025655628599088955,
0.05451371571072319,-0.0049689117090603065,
0.05456359102244389,0.01871068548421457,
0.05461346633416459,-0.014332199244463524,
0.05466334164588529,0.012038402003901875,
0.05471321695760598,0.006202194759805847,
0.054763092269326685,-0.012472420962756359,
0.05481296758104738,0.005901712575511194,
0.05486284289276808,0.014312901737750044,
0.05491271820448878,-0.022262902175221456,
0.054962593516209475,-0.0011751723730971217,
0.05501246882793018,0.018901850210381085,
0.05506234413965087,-0.014640042929877342,
0.05511221945137157,0.008604408705712628,
0.05516209476309227,-0.02603230704193643,
0.05521197007481297,-0.009684015370252303,
0.05526184538653366,0.007875307881173035,
0.055311720698254366,0.02942091520863989,
0.05536159600997506,0.0063002615507475376,
0.05541147132169576,-0.02173843046717314,
0.05546134663341646,-0.0203152318806495,
0.055511221945137156,-0.016846469010290306,
0.05556109725685786,0.0030632844284505497,
0.055610972568578554,0.005393171576457035,
0.05566084788029925,0.0377620011301366,
0.05571072319201995,0.006618174659259198,
0.05576059850374065,0.007716187597717347,
0.055810473815461344,-0.019040625698527963,
0.055860349127182046,-0.014803283856999111,
0.05591022443890274,-0.010236680037380782,
0.055960099750623445,0.0021823926362505236,
0.05600997506234414,0.014483067871715183,
0.056059850374064836,0.016343002764891028,
0.05610972568578554,0.0199122158095221,
0.056159600997506234,-0.0004385777190710088,
0.05620947630922693,-0.01379600385849305,
0.05625935162094763,0.03430988930661746,
0.05630922693266833,-0.0008631990892971394,
0.056359102244389024,-0.014583746799020587,
0.05640897755610973,0.004919465232264231,
0.05645885286783042,-0.0015386334661168502,
0.056508728179551125,-0.009332064688805562,
0.05655860349127182,0.02262248411824134,
0.056608478802992516,0.02760930491483138,
0.05665835411471322,0.024761188945293812,
0.056708229426433915,0.009492042606081916,
0.05675810473815461,0.013807427571571993,
0.05680798004987531,-0.002678716860489646,
0.05685785536159601,-0.0016519735042754488,
0.05690773067331671,-0.000503644512705341,
0.05695760598503741,-0.0010529438224767818,
0.0570074812967581,-0.003980441183520931,
0.057057356608478806,0.004438796573100747,
0.0571072319201995,0.018842961252157602,
0.0571571072319202,-0.007158453590732021,
0.0572069825436409,0.002158709278339172,
0.057256857855361595,0.013335901013818412,
0.05730673316708229,0.025711357251891907,
0.057356608478802994,-0.009043163486491191,
0.05740648379052369,0.01813072678833546,
0.05745635910224439,-0.008084953534339422,
0.05750623441396509,0.008887746092033843,
0.05755610972568578,0.0011664864191463526,
0.057605985037406486,0.03650264079848378,
0.05765586034912718,0.00010422185329882032,
0.05770573566084788,0.028020074370638352,
0.05775561097256858,0.008444103958133036,
0.057805486284289276,0.021990383292529843,
0.05785536159600998,-0.00028573945319187305,
0.057905236907730674,0.030380162839974696,
0.05795511221945137,0.007638741436695249,
0.05800498753117207,0.006231389328881856,
0.05805486284289277,0.027976734373311614,
0.058104738154613464,0.022111052672283946,
0.05815461346633417,0.0056526645685230515,
0.05820448877805486,0.0013848639269636136,
0.05825436408977556,0.01874008240873765,
0.05830423940149626,0.014098373638539727,
0.058354114713216956,0.0016974006613720335,
0.05840399002493766,0.0383202659740709,
0.058453865336658355,0.004832872010413072,
0.05850374064837905,0.032794453696794054,
0.05855361596009975,0.008227836029136038,
0.05860349127182045,0.028438192327507175,
0.058653366583541144,0.021189093551582314,
0.05870324189526185,0.019682957634500377,
0.05875311720698254,0.011346923304002048,
0.05880299251870324,0.03229979165090492,
0.05885286783042394,0.04139186727997418,
0.05890274314214464,-0.008675680948444196,
0.05895261845386534,0.01770958334621367,
0.059002493765586035,0.01968306425208515,
0.05905236907730673,0.02628430977869938,
0.059102244389027433,0.044814249219418366,
0.05915211970074813,0.018079661796183838,
0.059201995012468825,-0.015847763683502217,
0.05925187032418953,-0.015425032841902876,
0.05930174563591022,0.019272841049434844,
0.059351620947630926,0.019319749536252782,
0.05940149625935162,0.003779422617772015,
0.05945137157107232,0.014809617983409747,
0.05950124688279302,0.03139057588261236,
0.059551122194513716,0.04034036477990013,
0.05960099750623441,0.03181010356686642,
0.059650872817955114,0.037471874832303055,
0.05970074812967581,0.021340192364935676,
0.059750623441396505,0.034546565509683186,
0.05980049875311721,0.028125613780867705,
0.059850374064837904,0.01258645852414428,
0.059900249376558606,0.026047811192901137,
0.0599501246882793,-0.0034277201040186812,
0.06,0.03130560838618297,
0.0600498753117207,0.011579653116586023,
0.060099750623441396,0.053604083744555775,
0.06014962593516209,0.026832143941661578,
0.060199501246882794,0.017594433929141066,
0.06024937655860349,0.01667977484783703,
0.06029925187032419,0.03365836915898382,
0.06034912718204489,0.017596517663578788,
0.060399002493765584,0.04140608994037524,
0.06044887780548629,0.03920745424697411,
0.06049875311720698,0.019835633929352177,
0.06054862842892768,0.04183138608100237,
0.06059850374064838,0.02102140520227654,
0.06064837905236908,0.008550102444781075,
0.06069825436408977,0.013478979355969586,
0.060748129675810475,0.06426171319405867,
0.06079800498753117,0.03294214067128104,
0.06084788029925187,0.023151848673793343,
0.06089775561097257,0.023664182519840746,
0.060947630922693265,0.028861676350896013,
0.06099750623441397,0.014058584444786193,
0.06104738154613466,0.01789875616049598,
0.06109725685785536,0.023519393957973835,
0.06114713216957606,0.017176837729000728,
0.06119700748129676,0.043747569736889494,
0.06124688279301746,0.0264177974569953,
0.061296758104738155,0.024764752986707037,
0.06134663341645885,0.03723395005475047,
0.061396508728179554,0.009427430709840303,
0.06144638403990025,-0.003907312426622775,
0.061496259351620945,0.02549708640820191,
0.06154613466334165,0.008894172704396526,
0.061596009975062344,0.02622849978305251,
0.06164588528678304,0.027185124267028515,
0.06169576059850374,0.027967738326687315,
0.06174563591022444,0.025289650790638826,
0.06179551122194514,0.03550292466048821,
0.061845386533665836,0.028698616830759832,
0.06189526184538653,0.019377129816627946,
0.061945137157107234,0.025322614127544905,
0.06199501246882793,0.035552721983451004,
0.062044887780548626,0.03850078344562985,
0.06209476309226933,0.05483456374014736,
0.062144638403990024,-0.00492869086930986,
0.06219451371571072,0.05433341438139487,
0.06224438902743142,0.006300939764358363,
0.06229426433915212,0.03382376103546833,
0.06234413965087282,0.026679393208028188,
0.062394014962593516,0.01713806112174293,
0.06244389027431421,0.02245608178044156,
0.062493765586034915,0.029850621490513762,
0.06254364089775562,0.029592102412826726,
0.06259351620947631,0.04418743917053223,
0.06264339152119701,0.026976969678174447,
0.0626932668329177,0.05823343899642891,
0.0627431421446384,0.019981344209398053,
0.0627930174563591,0.042990129832899765,
0.0628428927680798,0.011705909746674051,
0.0628927680798005,0.011352584979740548,
0.0629426433915212,0.01720795327373628,
0.06299251870324189,0.03706675559330586,
0.06304239401496259,0.027022746002660213,
0.0630922693266833,0.004234868879265986,
0.063142144638404,0.02366216739178634,
0.06319201995012469,0.044664578208540806,
0.06324189526184539,0.005713437238466013,
0.06329177057356608,0.036710825141081815,
0.06334164588528678,0.02092672149297468,
0.06339152119700749,0.009407726871051656,
0.06344139650872818,0.014274343621172733,
0.06349127182044888,0.02088120672241921,
0.06354114713216957,0.019513538030358466,
0.06359102244389027,0.029847751314834386,
0.06364089775561098,0.0326616084248443,
0.06369077306733167,0.00543587614666019,
0.06374064837905237,0.02182005432451765,
0.06379052369077307,0.026187913372136017,
0.06384039900249376,-0.007886682081517389,
0.06389027431421446,0.004729726038431385,
0.06394014962593517,0.018658236950165805,
0.06399002493765586,0.03370480610452858,
0.06403990024937656,0.004321429970842613,
0.06408977556109725,0.02032001374224624,
0.06413965087281795,0.013122243278136976,
0.06418952618453866,0.026146693694400546,
0.06423940149625935,0.018958275641614505,
0.06428927680798005,0.03288110122646469,
0.06433915211970075,0.019245880198015538,
0.06438902743142144,-0.0015745943502780864,
0.06443890274314215,0.013596544239229114,
0.06448877805486285,0.015278126599073589,
0.06453865336658354,0.014999922805830993,
0.06458852867830424,0.007212818654359821,
0.06463840399002493,0.012760867884318444,
0.06468827930174563,0.016485128066909563,
0.06473815461346634,-0.008828258737307762,
0.06478802992518704,0.016292603499080613,
0.06483790523690773,0.0235382223202815,
0.06488778054862843,0.027137322781255652,
0.06493765586034912,0.010930415424974572,
0.06498753117206983,0.017335871104434502,
0.06503740648379053,0.03146080892425074,
0.06508728179551122,-0.0023146097768493024,
0.06513715710723192,0.017259307093446172,
0.06518703241895261,-0.001429097603555864,
0.06523690773067331,-0.009511063697438236,
0.06528678304239402,0.014983896673825391,
0.06533665835411472,0.022228035329246318,
0.06538653366583541,-0.004173833538463732,
0.06543640897755611,0.03661133765415161,
0.0654862842892768,0.009754158311666079,
0.06553615960099751,0.02165548945622453,
0.06558603491271821,0.02559693589407607,
0.0656359102244389,-7.133391245886869e-05,
0.0656857855361596,0.02437280006547024,
0.0657356608478803,0.018719776435288334,
0.06578553615960099,0.019749006520738147,
0.0658354114713217,0.011164586251562632,
0.0658852867830424,0.013439456001419079,
0.06593516209476309,0.01847061704689391,
0.06598503740648379,-0.011546982943948647,
0.06603491271820448,-0.009797315435498968,
0.06608478802992519,-0.00020275502680178626,
0.06613466334164589,0.0206359480543273,
0.06618453865336658,0.03103250399896677,
0.06623441396508728,0.01277766504619009,
0.06628428927680798,-0.004126433906862922,
0.06633416458852869,0.02563025428070252,
0.06638403990024938,0.034106281258711256,
0.06643391521197008,-0.0036005617854641776,
0.06648379052369077,0.00310183227486975,
0.06653366583541147,0.010250412454469225,
0.06658354114713216,-0.023821282482981345,
0.06663341645885287,0.005883301994932942,
0.06668329177057357,-5.730111928381682e-05,
0.06673316708229426,-0.010990035112408456,
0.06678304239401496,-0.017322383102249875,
0.06683291770573566,0.010261228984079437,
0.06688279301745637,-0.020601768144817355,
0.06693266832917706,0.015206728481045617,
0.06698254364089776,0.03249296527573804,
0.06703241895261845,-0.015644815326866235,
0.06708229426433915,0.00625004661800299,
0.06713216957605984,-0.016669170420179513,
0.06718204488778055,0.012727524399557795,
0.06723192019950125,0.003809413677500098,
0.06728179551122195,-0.008325094897695591,
0.06733167082294264,-0.016498592220503972,
0.06738154613466334,-0.009588052478574565,
0.06743142144638405,0.002659925891346447,
0.06748129675810474,-0.01288084601600182,
0.06753117206982544,-0.05313660573797691,
0.06758104738154613,0.028312357403694824,
0.06763092269326683,-0.003287647742161654,
0.06768079800498752,-0.015070206959603967,
0.06773067331670823,-0.01830236984899654,
0.06778054862842893,0.0012377893478530445,
0.06783042394014963,0.013788406121687725,
0.06788029925187032,-0.0017580059394476386,
0.06793017456359102,-0.015563464171250988,
0.06798004987531173,-0.02212805499043642,
0.06802992518703242,5.8580671218261444e-05,
0.06807980049875312,0.010060803428296669,
0.06812967581047381,-0.004656606253954835,
0.06817955112219451,-0.016196159947329626,
0.0682294264339152,-0.01515419758923476,
0.06827930174563591,-0.01768684328144518,
0.06832917705735661,0.027221945351462145,
0.0683790523690773,-0.008062647677627564,
0.068428927680798,-0.017907370513831213,
0.0684788029925187,0.012181971045323613,
0.06852867830423941,0.0007138203224049122,
0.0685785536159601,0.015888283420457488,
0.0686284289276808,-0.009266584350807433,
0.0686783042394015,-0.003483033527628478,
0.06872817955112219,-0.011944063222496217,
0.0687780548628429,-0.01374062745274358,
0.0688279301745636,-0.01777166345809389,
0.06887780548628429,0.011024319996611687,
0.06892768079800499,-0.0024060246893616542,
0.06897755610972568,-0.01194072271423724,
0.06902743142144638,-0.017659397073835976,
0.06907730673316709,0.007544748513464003,
0.06912718204488778,-0.0063298538226163065,
0.06917705735660848,0.009180409081039134,
0.06922693266832917,-0.005973306309895814,
0.06927680798004987,-0.03723005026678121,
0.06932668329177058,-0.019727342432160618,
0.06937655860349128,0.0010283772539498096,
0.06942643391521197,-0.0037432667075617803,
0.06947630922693267,-0.012537738555995437,
0.06952618453865336,-0.0426640010203362,
0.06957605985037406,-0.033329272047660764,
0.06962593516209477,0.0001060442732817024,
0.06967581047381546,-0.007279662833255499,
0.06972568578553616,-0.02075422373966094,
0.06977556109725686,-0.006355491422943349,
0.06982543640897755,0.021282906726090657,
0.06987531172069826,-0.005318931932392898,
0.06992518703241896,-0.017257679290783114,
0.06997506234413965,-0.003977048312627707,
0.07002493765586035,-0.001187452855537655,
0.07007481296758104,-0.02386311868877884,
0.07012468827930174,-0.01772498927584721,
0.07017456359102245,0.009484551870752304,
0.07022443890274314,-0.012242725767110224,
0.07027431421446384,-0.005187005879119114,
0.07032418952618454,-0.01187696792181262,
0.07037406483790523,-0.012744884939201923,
0.07042394014962594,0.00231648782160258,
0.07047381546134664,-0.024969546242742655,
0.07052369077306733,0.019355160945322084,
0.07057356608478803,-0.02976425395223428,
0.07062344139650872,0.004919372886603296,
0.07067331670822943,-0.05775050056729885,
0.07072319201995013,-0.019580170509087457,
0.07077306733167082,-0.03845798492421347,
0.07082294264339152,-0.038595660699193915,
0.07087281795511222,-0.012670698852653643,
0.07092269326683291,-0.003715213116430775,
0.07097256857855362,0.0028515187820635293,
0.07102244389027432,0.011762673255770758,
0.07107231920199501,-0.03172495086269499,
0.07112219451371571,-0.03406613234870162,
0.0711720698254364,0.01683894794062038,
0.07122194513715711,-0.022098359503411668,
0.07127182044887781,-0.0404288585920441,
0.0713216957605985,-0.00897675490130833,
0.0713715710723192,-0.019856471968569076,
0.0714214463840399,-0.047743210883661874,
0.07147132169576059,-0.017511764552256368,
0.0715211970074813,-0.0149775683202305,
0.071571072319202,-0.033254486940133575,
0.0716209476309227,-0.005690009061718869,
0.07167082294264339,-0.00024012098907846835,
0.07172069825436408,-0.029891806828560366,
0.0717705735660848,-0.018493089159829203,
0.07182044887780549,-0.028672070657066524,
0.07187032418952619,-0.012507282469717116,
0.07192019950124688,0.001797719634023226,
0.07197007481296758,-0.006217656292771823,
0.07201995012468827,-0.027235934194475953,
0.07206982543640898,-0.002332558370638149,
0.07211970074812968,-0.02925399593332874,
0.07216957605985037,-0.021304240359328493,
0.07221945137157107,-0.030368007787348453,
0.07226932668329177,-0.026554325385900027,
0.07231920199501247,-0.029378977984992644,
0.07236907730673317,-0.010368886074211131,
0.07241895261845387,-0.01250879256715516,
0.07246882793017456,0.0022687563563282345,
0.07251870324189526,0.00850710503763899,
0.07256857855361595,-0.017187044361529714,
0.07261845386533666,-0.03623369466894312,
0.07266832917705736,0.018424093472020456,
0.07271820448877805,-0.01926340800201983,
0.07276807980049875,-0.019688248783456288,
0.07281795511221945,-0.030615618076584035,
0.07286783042394016,0.0034560102200257604,
0.07291770573566085,-0.01873022442767585,
0.07296758104738155,-0.013559371667989217,
0.07301745635910224,-0.01742800319199638,
0.07306733167082294,0.014779665379708932,
0.07311720698254365,-0.011906140851118912,
0.07316708229426434,0.0003546289278421374,
0.07321695760598504,0.009388040622302949,
0.07326683291770573,-0.03826601461603925,
0.07331670822942643,-0.010402337358482342,
0.07336658354114713,-0.015148044084999259,
0.07341645885286784,-0.019305454150567468,
0.07346633416458853,-0.01590710309604125,
0.07351620947630923,-0.02155309010030967,
0.07356608478802992,-0.004011356706514982,
0.07361596009975062,0.02725262617813282,
0.07366583541147133,0.007777952341085562,
0.07371571072319202,-0.027046714769146857,
0.07376558603491272,-0.03650255931424147,
0.07381546134663342,-0.025357955587040404,
0.07386533665835411,-0.0029652841294514906,
0.0739152119700748,-0.017987832091299484,
0.07396508728179552,-0.015881483922080133,
0.07401496259351621,-0.051173245500711,
0.07406483790523691,-0.015339564505298303,
0.0741147132169576,0.006524139885156416,
0.0741645885286783,-0.0100694999081318,
0.07421446384039901,-0.006333829404018039,
0.0742643391521197,-0.03520174398183088,
0.0743142144638404,0.00819019524947375,
0.0743640897755611,-0.006419242114689188,
0.07441396508728179,-0.008922914680419811,
0.07446384039900249,0.006541027734144255,
0.0745137157107232,0.004553524869940258,
0.07456359102244389,-0.007569451876429847,
0.07461346633416459,0.02197913144813459,
0.07466334164588528,0.0030544188521810962,
0.07471321695760598,-0.016798239827868062,
0.07476309226932669,-0.004878283850686814,
0.07481296758104738,0.00048691347080903787,
0.07486284289276808,0.010375313370096454,
0.07491271820448878,-0.00400547927231089,
0.07496259351620947,-0.013095685392076195,
0.07501246882793017,-0.008006778402056602,
0.07506234413965088,-0.021583741772796074,
0.07511221945137157,-0.013595880170633403,
0.07516209476309227,-0.016061969438744415,
0.07521197007481296,-0.005211951349200413,
0.07526184538653366,-0.008940678947484276,
0.07531172069825437,0.021112495330706034,
0.07536159600997507,0.0014861733754561474,
0.07541147132169576,-0.0018899974300435529,
0.07546134663341646,0.01963022004976301,
0.07551122194513715,0.02432204154730918,
0.07556109725685786,0.00021166562795127977,
0.07561097256857856,0.01579351873170707,
0.07566084788029925,-0.021325486963570582,
0.07571072319201995,-0.00407944368351746,
0.07576059850374064,-0.0018289059522834795,
0.07581047381546134,0.025680674684852526,
0.07586034912718205,-0.026270726487654876,
0.07591022443890275,0.01839625293285966,
0.07596009975062344,0.010089983649401339,
0.07600997506234414,-0.008761069387595303,
0.07605985037406483,0.009739213740277456,
0.07610972568578554,-0.00946344247132856,
0.07615960099750624,0.0165891658987185,
0.07620947630922693,0.024841113053386564,
0.07625935162094763,-0.0029161855533542044,
0.07630922693266833,0.01961687291242787,
0.07635910224438902,0.011798293363649476,
0.07640897755610973,-0.014427534577675481,
0.07645885286783043,0.01857869761806774,
0.07650872817955112,-0.02366747057121524,
0.07655860349127182,0.00556124621530566,
0.07660847880299251,-0.008166333282800399,
0.07665835411471322,0.00301365110309132,
0.07670822942643392,0.018974896020926352,
0.07675810473815461,0.01836809366295518,
0.07680798004987531,0.024865954005040016,
0.076857855361596,0.031007897946031673,
0.0769077306733167,0.025756664128545402,
0.07695760598503741,0.010993037834532392,
0.0770074812967581,-0.015254887144144061,
0.0770573566084788,0.004505464412310139,
0.0771072319201995,0.008025612371571577,
0.0771571072319202,0.035659324781971466,
0.0772069825436409,0.014672963258832009,
0.0772568578553616,0.005641208964333171,
0.0773067331670823,0.008025023212805165,
0.07735660847880299,0.014022033232896485,
0.07740648379052369,0.001122983550504754,
0.0774563591022444,0.011171035036702477,
0.07750623441396509,0.0027386478846553788,
0.07755610972568579,0.01629822616913146,
0.07760598503740648,0.0011219933010613355,
0.07765586034912718,0.02320434468693535,
0.07770573566084787,0.026470753454428828,
0.07775561097256858,0.005410436566019411,
0.07780548628428928,0.015917150290190522,
0.07785536159600998,0.02825217139789258,
0.07790523690773067,0.017494871950758425,
0.07795511221945137,0.03377150591234782,
0.07800498753117208,0.0330873863283833,
0.07805486284289277,0.010530670842471048,
0.07810473815461347,0.006820874956633414,
0.07815461346633416,0.030359049854006337,
0.07820448877805486,0.025225350740005974,
0.07825436408977555,-0.007896521289820803,
0.07830423940149626,0.02816855013479709,
0.07835411471321696,0.016154065027597957,
0.07840399002493766,0.01959100772946524,
0.07845386533665835,0.022829549906876745,
0.07850374064837905,0.019913235459905802,
0.07855361596009976,0.0011041847468784283,
0.07860349127182045,-0.003743477514993876,
0.07865336658354115,0.019223722326486215,
0.07870324189526184,0.023466182763991213,
0.07875311720698254,0.013275940300154028,
0.07880299251870324,-0.012009639251902994,
0.07885286783042394,0.019000009153465454,
0.07890274314214464,0.032817258755804025,
0.07895261845386534,0.016089204713427303,
0.07900249376558603,0.030718022699557354,
0.07905236907730673,0.05350980809914342,
0.07910224438902744,0.011340808658946695,
0.07915211970074813,0.033031208237632684,
0.07920199501246883,0.02208519648054982,
0.07925187032418952,0.021934385840744988,
0.07930174563591022,0.005096356121150163,
0.07935162094763092,0.027606099777017976,
0.07940149625935163,0.023744118959491297,
0.07945137157107232,0.026029162131778586,
0.07950124688279302,0.024669090232067956,
0.07955112219451371,0.028868949452220908,
0.07960099750623441,0.04609648898529253,
0.07965087281795512,0.0151339430170168,
0.07970074812967581,0.035191285736767566,
0.07975062344139651,0.03174695533701076,
0.0798004987531172,0.02296125538192757,
0.0798503740648379,0.03239398594059654,
0.07990024937655861,0.01720283864612666,
0.0799501246882793,0.05567927287900399,
0.08,0.031182645904232236,
0.0800498753117207,0.021435274389774297,
0.0800997506234414,0.01676188137860832,
0.08014962593516209,0.01647993962644786,
0.0801995012468828,0.009597797928555203,
0.0802493765586035,-0.003015591606089746,
0.08029925187032419,0.07461214616205228,
0.08034912718204489,0.0296099276846717,
0.08039900249376558,0.02078450033165832,
0.08044887780548629,0.027811472906401593,
0.08049875311720699,0.01735609865186568,
0.08054862842892768,0.03977662700764335,
0.08059850374064838,0.03497331457434785,
0.08064837905236907,0.02189331600471416,
0.08069825436408977,0.04812624060104749,
0.08074812967581048,0.015633643213183713,
0.08079800498753117,0.024875849442780578,
0.08084788029925187,0.03845007202104772,
0.08089775561097257,0.0376509433855048,
0.08094763092269326,0.0525271681298079,
0.08099750623441397,0.02227291754062014,
0.08104738154613467,0.02776990290095944,
0.08109725685785536,0.00878902456435339,
0.08114713216957606,0.04338241975119556,
0.08119700748129675,0.04174200840620919,
0.08124688279301745,0.029079451359444928,
0.08129675810473816,0.03056012894281883,
0.08134663341645886,0.03297881165784774,
0.08139650872817955,0.03532903799698125,
0.08144638403990025,0.004208470057544517,
0.08149625935162094,0.03796930726102269,
0.08154613466334165,0.012778998750703615,
0.08159600997506235,0.03327166513923528,
0.08164588528678304,-0.0007596474259823176,
0.08169576059850374,0.028988786271660207,
0.08174563591022443,0.030980920132346483,
0.08179551122194513,0.022131728296738238,
0.08184538653366584,0.040613312402377366,
0.08189526184538654,0.02634377302294272,
0.08194513715710723,0.03127473272176858,
0.08199501246882793,0.05184709092783256,
0.08204488778054862,0.04581323845113909,
0.08209476309226933,0.027586918491828753,
0.08214463840399003,0.005655998033176235,
0.08219451371571072,0.028264965677402734,
0.08224438902743142,0.04964435402273597,
0.08229426433915212,0.0066861635107373155,
0.08234413965087282,0.011106115214972921,
0.08239401496259352,0.04282640852714638,
0.08244389027431422,0.025953870702461853,
0.08249376558603491,0.03991309456381069,
0.08254364089775561,0.019106359893290067,
0.0825935162094763,0.012118286425628242,
0.08264339152119701,0.029507718220044554,
0.08269326683291771,0.029828158474652578,
0.0827431421446384,0.047818130158943616,
0.0827930174563591,0.02231446562677713,
0.0828428927680798,0.01135697835683403,
0.0828927680798005,0.02768482564738551,
0.0829426433915212,0.027904424472411236,
0.0829925187032419,0.026849548663596658,
0.08304239401496259,0.034469137852208176,
0.08309226932668329,0.02568676890111991,
0.08314214463840398,0.024907126563891695,
0.0831920199501247,0.04120893289665732,
0.08324189526184539,0.029799262856469305,
0.08329177057356608,0.033044016847305416,
0.08334164588528678,0.0537638524309908,
0.08339152119700748,0.007066154891311016,
0.08344139650872819,0.0523416291421039,
0.08349127182044888,0.008431264315528743,
0.08354114713216958,0.03093140130078212,
0.08359102244389027,0.03230077276910019,
0.08364089775561097,0.016481634409769897,
0.08369077306733166,0.029674692829884296,
0.08374064837905237,0.018977282190099722,
0.08379052369077307,0.04655419804432957,
0.08384039900249377,0.0265782024060027,
0.08389027431421446,0.026391060882539112,
0.08394014962593516,0.015325046174650157,
0.08399002493765587,-0.005962350586084953,
0.08403990024937656,0.016232737742300864,
0.08408977556109726,0.014921988439676645,
0.08413965087281795,0.03676788147671892,
0.08418952618453865,0.028410003698586934,
0.08423940149625936,-0.0018950605250459725,
0.08428927680798005,0.006621420709470119,
0.08433915211970075,0.029928910230443553,
0.08438902743142145,0.014202746370382057,
0.08443890274314214,0.014766605325453448,
0.08448877805486284,0.025141457597421858,
0.08453865336658355,0.020786233617992058,
0.08458852867830424,0.008129288556244087,
0.08463840399002494,0.031921680768182074,
0.08468827930174563,-0.0064611277183512054,
0.08473815461346633,0.019247968742321916,
0.08478802992518704,0.012998424538847975,
0.08483790523690773,0.016760934373039847,
0.08488778054862843,0.026185613009620544,
0.08493765586034913,0.04212626009823184,
0.08498753117206982,0.0013263098780870314,
0.08503740648379052,0.0020751758333576384,
0.08508728179551123,-0.006931600219983503,
0.08513715710723192,0.05289740116307319,
0.08518703241895262,0.014478018378140462,
0.08523690773067331,-0.005175965025336817,
0.08528678304239401,0.011232417647956315,
0.08533665835411472,-0.0042735520639677945,
0.08538653366583542,0.019798604923743437,
0.08543640897755611,0.016962306791397676,
0.0854862842892768,-0.0021210333978089815,
0.0855361596009975,-0.008321801184790412,
0.0855860349127182,0.002235018268380618,
0.08563591022443891,-0.015948620006756425,
0.0856857855361596,0.012179491543669698,
0.0857356608478803,0.001538809857020297,
0.085785536159601,0.005358161792398805,
0.08583541147132169,0.034136028844443875,
0.0858852867830424,0.022736826052541202,
0.0859351620947631,0.014010809449298226,
0.08598503740648379,-0.029962785055663153,
0.08603491271820449,0.015561603859936664,
0.08608478802992518,-0.015785983666217668,
0.08613466334164588,0.024586562001129002,
0.08618453865336659,0.012089657113236032,
0.08623441396508728,0.018207139378768795,
0.08628428927680798,0.021785909345678707,
0.08633416458852868,-0.021892164266851276,
0.08638403990024937,0.015146748707587953,
0.08643391521197008,0.021749232385828588,
0.08648379052369078,-0.007661605107609002,
0.08653366583541147,-0.01698747873470708,
0.08658354114713217,0.008551814897972979,
0.08663341645885286,0.00266475828105191,
0.08668329177057357,0.018349578574254614,
0.08673316708229427,0.026512479065542813,
0.08678304239401496,0.019319145961107557,
0.08683291770573566,-0.020145847637488862,
0.08688279301745636,0.0029256435439949115,
0.08693266832917705,-0.006932578049202675,
0.08698254364089776,0.037636224268784595,
0.08703241895261846,-0.03972920369497313,
0.08708229426433915,0.030193600282411328,
0.08713216957605985,-0.011768478504919093,
0.08718204488778054,-0.009358289851523165,
0.08723192019950125,-0.016526607302228147,
0.08728179551122195,0.025357654810263384,
0.08733167082294264,-0.016499436617358167,
0.08738154613466334,0.009265036652863157,
0.08743142144638404,-0.010554477494385565,
0.08748129675810473,0.005093254912850207,
0.08753117206982544,0.00474650345418322,
0.08758104738154614,-0.028025481864855598,
0.08763092269326683,-0.004686222572670085,
0.08768079800498753,0.004446737727869743,
0.08773067331670822,-0.003996871996279119,
0.08778054862842893,-0.014536362772072698,
0.08783042394014963,-0.019449988024280288,
0.08788029925187033,0.006182291518227715,
0.08793017456359102,0.012539365229939495,
0.08798004987531172,0.022437331500343813,
0.08802992518703241,-0.005359508110590671,
0.08807980049875312,0.017008608749422623,
0.08812967581047382,-0.017863598489062604,
0.08817955112219451,0.0010848372243591987,
0.08822942643391521,0.0024685204998874414,
0.0882793017456359,0.015995137114107234,
0.08832917705735661,-0.0040439457859133415,
0.08837905236907731,-0.030728589559232185,
0.088428927680798,0.0010245106800409187,
0.0884788029925187,-0.003674290654039132,
0.0885286783042394,0.003481613945898244,
0.0885785536159601,0.0008650865677500069,
0.0886284289276808,0.004805488930874232,
0.0886783042394015,-0.027299023048281846,
0.0887281795511222,-0.017568285584950404,
0.08877805486284289,-0.02557675473200247,
0.08882793017456359,0.023947276351301863,
0.0888778054862843,-0.012822537218935458,
0.08892768079800499,0.007897410176313624,
0.08897755610972569,-0.016571119708182848,
0.08902743142144638,-0.0038925724978322506,
0.08907730673316708,-0.010197100565724784,
0.08912718204488779,0.016182177491728646,
0.08917705735660848,-0.03684380707767115,
0.08922693266832918,-0.0274020878968991,
0.08927680798004987,-0.010532369983982328,
0.08932668329177057,-0.0033635233351316787,
0.08937655860349127,-0.006976924430639629,
0.08942643391521198,-0.017791629440772262,
0.08947630922693267,-0.014620214967472886,
0.08952618453865337,0.012434294244389778,
0.08957605985037406,-0.022130255466949866,
0.08962593516209476,-0.03053208372742754,
0.08967581047381547,-0.009564284942707096,
0.08972568578553616,0.005465192239384322,
0.08977556109725686,-0.01921654147467943,
0.08982543640897755,-0.00552655725502792,
0.08987531172069825,0.007960057016148617,
0.08992518703241895,-0.033819916296858134,
0.08997506234413966,0.010038060314069517,
0.09002493765586035,-0.009732988496858002,
0.09007481296758105,-0.0009003901362908736,
0.09012468827930174,0.005428535720702687,
0.09017456359102244,-0.00461299720617414,
0.09022443890274315,-0.020767313310531197,
0.09027431421446384,-0.013641502928409117,
0.09032418952618454,-0.014735319847596767,
0.09037406483790524,-0.0005675576543059235,
0.09042394014962593,0.017670173090987146,
0.09047381546134663,-0.0055303503909807285,
0.09052369077306734,-0.019760262513184454,
0.09057356608478803,0.011905527983231315,
0.09062344139650873,0.0031935374289288818,
0.09067331670822942,0.01756962016660631,
0.09072319201995012,-0.030328294374437414,
0.09077306733167083,-0.021118380833165893,
0.09082294264339152,-0.00975586697153326,
0.09087281795511222,0.00770339941104555,
0.09092269326683292,-0.01477065122466402,
0.09097256857855361,-0.016434452370236535,
0.09102244389027432,0.00632551158142905,
0.09107231920199502,0.006401416938632911,
0.09112219451371571,-0.00045810747489587536,
0.09117206982543641,-0.020735651630643896,
0.0912219451371571,0.0020323240038761653,
0.0912718204488778,-0.025674887043496075,
0.09132169576059851,0.002374642448280763,
0.0913715710723192,-0.01912999332748569,
0.0914214463840399,-0.012622078971451203,
0.0914713216957606,-0.013135217923711334,
0.09152119700748129,-0.008030767184883346,
0.091571072319202,-0.025141996829926853,
0.0916209476309227,-0.019799057672264014,
0.09167082294264339,-0.0130590332567828,
0.09172069825436409,-0.018639998123223606,
0.09177057356608478,-0.004679502340561132,
0.09182044887780548,-0.029909691879035402,
0.09187032418952619,-0.018658140477832347,
0.09192019950124689,0.005552677563244523,
0.09197007481296758,-0.03067903316795886,
0.09201995012468828,0.007082767775398558,
0.09206982543640897,-0.011168881930059164,
0.09211970074812968,-0.01076308513362078,
0.09216957605985038,-0.026218392259257407,
0.09221945137157107,-0.024424998810434927,
0.09226932668329177,0.0007810534606219888,
0.09231920199501246,-0.004865767122505121,
0.09236907730673316,-0.010550972211035705,
0.09241895261845387,-0.036295777344530634,
0.09246882793017457,-0.013213061708663484,
0.09251870324189526,-0.011097895133117286,
0.09256857855361596,-0.03852208466476795,
0.09261845386533665,-0.01515938278483359,
0.09266832917705736,-0.03625790797745673,
0.09271820448877806,-0.005662677804035242,
0.09276807980049875,-0.004932102624390537,
0.09281795511221945,0.005675988933906964,
0.09286783042394015,-0.020368739449146772,
0.09291770573566084,-0.01766400288300994,
0.09296758104738155,-0.03376184988912668,
0.09301745635910225,-0.0248514475056502,
0.09306733167082294,-0.035780198187463357,
0.09311720698254364,-0.007894526859048538,
0.09316708229426433,-0.0185325938106529,
0.09321695760598504,-0.0005491924510983154,
0.09326683291770574,-0.016631292890813477,
0.09331670822942643,-0.03190024318515742,
0.09336658354114713,0.0006718025149683778,
0.09341645885286783,-0.020894568780740114,
0.09346633416458854,0.001902928405142652,
0.09351620947630923,0.0004664874993281689,
0.09356608478802993,0.005529067230577726,
0.09361596009975062,0.005369476553160429,
0.09366583541147132,-0.0104885647596015,
0.09371571072319201,0.01637608521256254,
0.09376558603491272,-0.021414679356511437,
0.09381546134663342,-0.011121133513260799,
0.09386533665835411,0.006697241558647381,
0.09391521197007481,-0.018739759474728536,
0.0939650872817955,-0.02529501711209186,
0.09401496259351622,-0.027312327688011864,
0.09406483790523691,-0.014919756337094013,
0.09411471321695761,0.0014726322040656712,
0.0941645885286783,-0.015527289374296434,
0.094214463840399,0.0309250297971254,
0.0942643391521197,0.022753268482313647,
0.0943142144638404,-0.03393733144790233,
0.0943640897755611,0.004246906722983662,
0.0944139650872818,-0.0033646997898603894,
0.09446384039900249,0.030938162992586178,
0.09451371571072319,0.014127670937374208,
0.0945635910224439,-0.00968414432616991,
0.09461346633416459,-0.0009622309807032722,
0.09466334164588529,-0.01717648185036624,
0.09471321695760598,0.02260662127277497,
0.09476309226932668,-0.005900725135849565,
0.09481296758104737,0.004517841413112511,
0.09486284289276808,-0.010541409738776996,
0.09491271820448878,-0.003810371794094084,
0.09496259351620948,0.002810569899565623,
0.09501246882793017,-0.009012937672271432,
0.09506234413965087,-0.006163474457328031,
0.09511221945137158,-0.013097455076805258,
0.09516209476309227,0.003854198161682717,
0.09521197007481297,-0.0071494923773158525,
0.09526184538653366,-0.00876950223540828,
0.09531172069825436,-0.013443143121723749,
0.09536159600997507,-0.019312175838802095,
0.09541147132169576,0.0044243114274563206,
0.09546134663341646,0.04019840842345974,
0.09551122194513716,-0.0021621758933177406,
0.09556109725685785,0.01955950296709973,
0.09561097256857855,-0.01001673361981056,
0.09566084788029926,0.03477093389479469,
0.09571072319201995,0.009897017064303164,
0.09576059850374065,0.027716377805264127,
0.09581047381546134,-0.01556554061701308,
0.09586034912718204,0.00761732385894002,
0.09591022443890275,0.026432995906310465,
0.09596009975062345,0.011543848818028165,
0.09600997506234414,0.017352855590878992,
0.09605985037406484,0.00898465364178876,
0.09610972568578553,0.001723177920933508,
0.09615960099750623,-0.0008699567147015886,
0.09620947630922694,-0.017807730217159576,
0.09625935162094763,0.005403444288860022,
0.09630922693266833,-0.024356075358970164,
0.09635910224438902,-0.005199942435518789,
0.09640897755610972,0.02964212551986046,
0.09645885286783043,0.014748126188855074,
0.09650872817955113,0.024895853220010245,
0.09655860349127182,0.010783848977343621,
0.09660847880299252,0.007800313321717848,
0.09665835411471321,0.02181046641973965,
0.09670822942643391,0.013724397895615362,
0.09675810473815462,0.023305524830051598,
0.09680798004987531,0.015374699678701228,
0.09685785536159601,-0.001581038413071674,
0.0969077306733167,0.007110102754562312,
0.0969576059850374,0.010259832404219495,
0.09700748129675811,0.00823728775242279,
0.0970573566084788,0.000503746382274137,
0.0971072319201995,-0.009538941307887029,
0.0971571072319202,0.025477555969941793,
0.0972069825436409,0.014103608372664772,
0.09725685785536159,-0.001534933897681891,
0.0973067331670823,0.015045819158192107,
0.097356608478803,-0.0065273583696836834,
0.09740648379052369,0.026563569321092412,
0.09745635910224439,0.04039632444305091,
0.09750623441396508,-0.001124377567232689,
0.09755610972568579,0.004540794561301107,
0.09760598503740649,0.020490521785786617,
0.09765586034912718,0.030067644909424113,
0.09770573566084788,0.021326151148134524,
0.09775561097256857,0.0472450786667301,
0.09780548628428928,-0.003918510696692242,
0.09785536159600998,0.028112344858447207,
0.09790523690773068,0.019497750091398813,
0.09795511221945137,-0.0056230589608130335,
0.09800498753117207,0.020219604444422144,
0.09805486284289276,0.015132956098586326,
0.09810473815461347,0.03192458984021734,
0.09815461346633417,0.01197733019775448,
0.09820448877805486,0.028878475382760935,
0.09825436408977556,0.0006471368800191751,
0.09830423940149625,0.027942855045498063,
0.09835411471321696,0.026637329677149765,
0.09840399002493766,0.02230343736057424,
0.09845386533665836,0.00422495983451311,
0.09850374064837905,0.010345709820538661,
0.09855361596009975,0.005289571073103882,
0.09860349127182044,-0.0022566526694340096,
0.09865336658354115,0.032866109612687586,
0.09870324189526185,0.016634644207119027,
0.09875311720698254,0.01999226841017517,
0.09880299251870324,0.03550218606509656,
0.09885286783042393,0.022639039720891613,
0.09890274314214464,0.038771509780109,
0.09895261845386534,0.026216994834295845,
0.09900249376558604,0.011865527865363946,
0.09905236907730673,0.06572432613662063,
0.09910224438902743,0.016002717433381105,
0.09915211970074812,0.01944851704077109,
0.09920199501246883,0.009245944768276278,
0.09925187032418953,0.03255309298142396,
0.09930174563591022,0.019067967931238484,
0.09935162094763092,0.0089528852367691,
0.09940149625935162,0.024984161076591523,
0.09945137157107233,0.031145915559434512,
0.09950124688279302,0.02659824401250417,
0.09955112219451372,0.019388492685444094,
0.09960099750623441,0.030092383094308416,
0.09965087281795511,0.06192975077991181,
0.0997007481296758,0.03183207838656095,
0.09975062344139651,0.04137154117092309,
0.09980049875311721,0.04086049496181048,
0.0998503740648379,0.04339299204334524,
0.0999002493765586,0.07234986166173527,
0.0999501246882793,0.05932348687661413,
0.1,0.017750559184177624,
0.1000498753117207,0.019419062494195217,
0.1000997506234414,0.045835377161343255,
0.10014962593516209,0.0407933611827708,
0.10019950124688279,0.013543141747498672,
0.1002493765586035,0.03752631688484022,
0.1002992518703242,0.02504503946625512,
0.10034912718204489,0.04162259935527213,
0.10039900249376559,0.032738114873169744,
0.10044887780548628,0.016958512800882508,
0.10049875311720698,0.04351491446794707,
0.10054862842892769,0.018072458836246537,
0.10059850374064838,0.05973654463840909,
0.10064837905236908,0.02528838567930109,
0.10069825436408977,0.0435891368896521,
0.10074812967581047,0.040230466410434366,
0.10079800498753118,0.01599810951858318,
0.10084788029925187,0.05641788807143992,
0.10089775561097257,0.026237693643369756,
0.10094763092269327,0.037337138819895914,
0.10099750623441396,0.056463836503141455,
0.10104738154613466,0.046392691775735774,
0.10109725685785537,0.030739771395321466,
0.10114713216957606,0.015519147125773899,
0.10119700748129676,0.024426435281271332,
0.10124688279301745,-0.01381896968097859,
0.10129675810473815,0.040880329672255036,
0.10134663341645886,0.06064393772252255,
0.10139650872817955,0.03432362479505841,
0.10144638403990025,0.009239979320471627,
0.10149625935162095,0.031526976357375405,
0.10154613466334164,0.03331756975221631,
0.10159600997506234,0.03112877054137662,
0.10164588528678305,0.031286790976381824,
0.10169576059850374,0.03977099310295826,
0.10174563591022444,0.0036130021403040433,
0.10179551122194513,0.019981332317097242,
0.10184538653366583,0.028224913974949587,
0.10189526184538654,0.05086754823949133,
0.10194513715710724,0.030663706411484415,
0.10199501246882793,0.042299609355302886,
0.10204488778054863,0.015033499468336868,
0.10209476309226932,0.024135052694577722,
0.10214463840399003,0.03264136025825452,
0.10219451371571073,0.038007051661517105,
0.10224438902743142,0.01690567087363464,
0.10229426433915212,0.014981808588815985,
0.10234413965087281,0.03595582180637092,
0.10239401496259351,0.018345062087530166,
0.10244389027431422,0.030987031874077118,
0.10249376558603492,-0.002222790655183604,
0.10254364089775561,0.048871743469021525,
0.10259351620947631,0.02884357730650963,
0.102643391521197,-0.02084518636753471,
0.10269326683291771,0.04128941146591837,
0.10274314214463841,0.009829256927244193,
0.1027930174563591,0.031779341332513686,
0.1028428927680798,0.03341155372015282,
0.1028927680798005,0.016600064370867026,
0.10294264339152119,0.035408658866874304,
0.1029925187032419,0.04572138689383928,
0.1030423940149626,0.00806855434520714,
0.10309226932668329,0.04529970837137628,
0.10314214463840399,0.020615534140101824,
0.10319201995012468,0.026223344361639596,
0.10324189526184539,0.028532366735008266,
0.10329177057356609,0.024780285675222592,
0.10334164588528678,0.011443546737575245,
0.10339152119700748,0.018463044455693998,
0.10344139650872818,0.010801593262708385,
0.10349127182044887,0.01876989304963223,
0.10354114713216958,0.036468826929964844,
0.10359102244389028,0.012690277668538082,
0.10364089775561097,0.009222826859922493,
0.10369077306733167,0.029879898027329824,
0.10374064837905236,0.05305076027687961,
0.10379052369077307,0.027168277873285206,
0.10384039900249377,0.03032816783095151,
0.10389027431421446,0.02810241208020271,
0.10394014962593516,0.0031316622705269935,
0.10399002493765586,0.0024880130306016435,
0.10403990024937655,0.032248498552840524,
0.10408977556109726,0.020892696646463663,
0.10413965087281796,0.03794872701153884,
0.10418952618453865,0.0250084343635116,
0.10423940149625935,0.028232714983035243,
0.10428927680798004,0.018415360069327095,
0.10433915211970075,0.00321781283765021,
0.10438902743142145,0.014935260941339436,
0.10443890274314215,0.01883343182466939,
0.10448877805486284,0.02843633071132448,
0.10453865336658354,0.012842133366704016,
0.10458852867830425,0.046237859252048916,
0.10463840399002494,0.021307543223035748,
0.10468827930174564,-0.0018776237061508237,
0.10473815461346633,0.02034189289140343,
0.10478802992518703,0.005822715877400811,
0.10483790523690772,0.0333051571111497,
0.10488778054862843,0.019587577112489794,
0.10493765586034913,0.012592490630012106,
0.10498753117206983,0.010928254453746615,
0.10503740648379052,0.002994196026043835,
0.10508728179551122,0.01551414882256922,
0.10513715710723193,0.01881948480786182,
0.10518703241895262,0.029443978698681927,
0.10523690773067332,0.046822302765932654,
0.10528678304239401,0.010495945213803216,
0.10533665835411471,-0.0010021007947250901,
0.1053865336658354,0.001807147617417789,
0.10543640897755611,0.005076930975506879,
0.10548628428927681,0.029562696989796508,
0.1055361596009975,-0.008736982090032631,
0.1055860349127182,0.016597181590563254,
0.1056359102244389,0.0037434432531257104,
0.10568578553615961,0.011553867816468548,
0.1057356608478803,0.007492051856661942,
0.105785536159601,0.022185054879397294,
0.1058354114713217,0.0181538172781742,
0.10588528678304239,0.018475178072804258,
0.10593516209476309,0.022021763307243994,
0.1059850374064838,0.03694323295681786,
0.10603491271820449,0.006985615316942457,
0.10608478802992519,-0.0069351080136101,
0.10613466334164588,0.0010483180477438622,
0.10618453865336658,-0.005281521260663247,
0.10623441396508729,-0.001712836363929852,
0.10628428927680798,0.0036162884113659557,
0.10633416458852868,0.0015293050604143219,
0.10638403990024937,0.012590162577121158,
0.10643391521197007,0.030545346166371053,
0.10648379052369077,0.021352623722260728,
0.10653366583541148,0.0019611666686665035,
0.10658354114713217,-0.007165264403713704,
0.10663341645885287,0.022843130604016163,
0.10668329177057356,0.004371503851307478,
0.10673316708229426,0.010775444548247106,
0.10678304239401497,0.00432715470397451,
0.10683291770573566,0.01295156729578278,
0.10688279301745636,0.03434504813401246,
0.10693266832917706,0.00836701699365312,
0.10698254364089775,-0.009280052535306824,
0.10703241895261846,0.009715104034981721,
0.10708229426433916,0.0005279472176147734,
0.10713216957605985,-0.00396837136838548,
0.10718204488778055,0.014026599856305721,
0.10723192019950124,0.0012527062555993402,
0.10728179551122194,-0.008587739724909695,
0.10733167082294265,-0.002333610578590211,
0.10738154613466334,0.00023981833271295022,
0.10743142144638404,-0.0080734656001154,
0.10748129675810474,0.030875030092693465,
0.10753117206982543,0.005523651508677394,
0.10758104738154614,0.023040943251518682,
0.10763092269326684,0.0163454264988963,
0.10768079800498753,-0.000450611819105549,
0.10773067331670823,0.019751440013271206,
0.10778054862842892,-0.004619856835720179,
0.10783042394014962,-0.007726135405606549,
0.10788029925187033,-0.007078910043301457,
0.10793017456359102,-0.0160525355085026,
0.10798004987531172,-0.016155592251388545,
0.10802992518703242,0.0017053236868461831,
0.10807980049875311,0.0006033378842458586,
0.10812967581047382,-5.3927672457398414e-05,
0.10817955112219452,-0.0198152712710575,
0.10822942643391521,-0.03645575918207585,
0.10827930174563591,-0.020942107787309747,
0.1083291770573566,0.013798346219041873,
0.1083790523690773,0.002409141328951584,
0.10842892768079801,-0.0037834077495924397,
0.1084788029925187,-0.02136756256633895,
0.1085286783042394,0.003926773672534951,
0.1085785536159601,-0.007537378253794212,
0.10862842892768079,0.0016656855792373457,
0.1086783042394015,0.011079271049367555,
0.1087281795511222,-0.008050284032261103,
0.1087780548628429,0.00107021294337609,
0.10882793017456359,0.012632612452942381,
0.10887780548628428,-0.019712412529743022,
0.108927680798005,-0.01367036074469746,
0.10897755610972569,-0.0013650270055695843,
0.10902743142144639,-0.007301508458144213,
0.10907730673316708,-0.006162463686153686,
0.10912718204488778,-0.026102403484861127,
0.10917705735660847,-0.008970870684451415,
0.10922693266832918,0.0027921353133864603,
0.10927680798004988,0.002611282446649413,
0.10932668329177057,-0.01575895833389151,
0.10937655860349127,-0.004922394828135307,
0.10942643391521197,0.004124088052004716,
0.10947630922693267,0.02870404210398248,
0.10952618453865337,-0.011861000582947308,
0.10957605985037407,0.018184093632293254,
0.10962593516209476,-0.0073895425141851144,
0.10967581047381546,-0.012714698267082072,
0.10972568578553615,-0.01303664836232584,
0.10977556109725686,-0.020148379911731636,
0.10982543640897756,-0.03630535704157414,
0.10987531172069825,-0.021612848709102583,
0.10992518703241895,-0.002935205440803723,
0.10997506234413965,0.007831048012534139,
0.11002493765586036,0.016890569292014344,
0.11007481296758105,-0.010799471765292055,
0.11012468827930175,-0.007378061962306967,
0.11017456359102244,-0.0030217853221951507,
0.11022443890274314,-0.01954612586470346,
0.11027431421446383,-0.006617469378032298,
0.11032418952618454,-0.025464835198690736,
0.11037406483790524,0.00753540015095247,
0.11042394014962593,-0.0299974219196407,
0.11047381546134663,-0.020165797675526474,
0.11052369077306733,0.01120016389873371,
0.11057356608478804,-0.003506410821038982,
0.11062344139650873,6.96662504567399e-05,
0.11067331670822943,-0.0005972525508594322,
0.11072319201995012,-0.008613058527049036,
0.11077306733167082,-0.006755634622168778,
0.11082294264339151,-0.018289069627332906,
0.11087281795511222,0.016108723793709805,
0.11092269326683292,-0.02159208125682378,
0.11097256857855362,-0.0046942689398649885,
0.11102244389027431,-0.022257613577368697,
0.111072319201995,-0.017559102733851844,
0.11112219451371572,-0.0012713758930394062,
0.11117206982543641,0.00357402372736426,
0.11122194513715711,-0.040662700661896534,
0.1112718204488778,-0.013645772073166968,
0.1113216957605985,-0.02165954591706916,
0.11137157107231921,-0.011873044763688645,
0.1114214463840399,-0.013656068049511751,
0.1114713216957606,0.015144676630859078,
0.1115211970074813,0.005748616372636866,
0.11157107231920199,-0.0453567199700711,
0.11162094763092269,-0.005316151673982044,
0.1116708229426434,0.006948967671009129,
0.11172069825436409,-0.007313866618718425,
0.11177057356608479,-0.024602383312460757,
0.11182044887780548,0.012564571604847684,
0.11187032418952618,0.003826233616565861,
0.11192019950124689,-0.008022480734937753,
0.11197007481296758,-0.011653876561885516,
0.11201995012468828,-0.010730760337646996,
0.11206982543640898,-0.0051936487276884715,
0.11211970074812967,-0.027786580054241887,
0.11216957605985037,-0.008063516119844292,
0.11221945137157108,0.0012295595976839543,
0.11226932668329177,-0.0017936623512838333,
0.11231920199501247,-0.011189598180753765,
0.11236907730673316,-0.010340648670725512,
0.11241895261845386,-0.02585561288025289,
0.11246882793017457,0.01070428482040861,
0.11251870324189527,-0.02205848534921031,
0.11256857855361596,-0.0006634703150969184,
0.11261845386533666,-0.018050364120911953,
0.11266832917705735,0.0011156227387774768,
0.11271820448877805,0.004040864240677879,
0.11276807980049876,0.01991467020491762,
0.11281795511221945,-0.022085473156341285,
0.11286783042394015,-0.028506509514940097,
0.11291770573566084,0.004793592936879086,
0.11296758104738154,0.00233867176057914,
0.11301745635910225,-0.037014937188884364,
0.11306733167082295,-0.017747985522686513,
0.11311720698254364,-0.002265299133055389,
0.11316708229426434,-0.02946099706500744,
0.11321695760598503,0.005582959033952279,
0.11326683291770574,-0.008239338129542266,
0.11331670822942644,-0.022255678721636165,
0.11336658354114713,-0.015244832173013818,
0.11341645885286783,-0.024378194145227846,
0.11346633416458853,-0.022068539718120356,
0.11351620947630922,-0.00037602428896074767,
0.11356608478802993,0.002418050156725743,
0.11361596009975063,-0.02115666614677032,
0.11366583541147132,-0.012166844413553337,
0.11371571072319202,-0.0071297380961340626,
0.11376558603491271,-0.0031039592679426575,
0.11381546134663342,-0.007025739319603176,
0.11386533665835412,-0.022834990939637173,
0.11391521197007481,0.005801301526251598,
0.11396508728179551,-0.008566517626199912,
0.1140149625935162,-0.014168451336169355,
0.1140648379052369,-0.005812195137383892,
0.11411471321695761,-0.01143993779252677,
0.1141645885286783,0.01869451533522254,
0.114214463840399,-0.003457747421131557,
0.1142643391521197,0.010766973410106833,
0.1143142144638404,0.027656482111627127,
0.1143640897755611,-0.016900038772965517,
0.1144139650872818,0.021666250845175254,
0.1144638403990025,0.0066405476437726065,
0.11451371571072319,-0.028006435090245762,
0.11456359102244389,-0.049659175960648755,
0.11461346633416458,-0.0019773167035221305,
0.11466334164588529,-0.01621608974485833,
0.11471321695760599,0.013183743241227973,
0.11476309226932668,0.013967230749371229,
0.11481296758104738,-0.03159025665449138,
0.11486284289276807,-0.0009101640551165926,
0.11491271820448878,-0.008573426251439623,
0.11496259351620948,0.007445003863419077,
0.11501246882793018,-0.01108942368327898,
0.11506234413965087,-0.012134324777425735,
0.11511221945137157,-0.002520325582734684,
0.11516209476309226,0.004486882299074284,
0.11521197007481297,-0.002544181939148428,
0.11526184538653367,-0.008832615790743428,
0.11531172069825436,0.017659194261170442,
0.11536159600997506,-0.010693593525951822,
0.11541147132169575,0.0018313508950325423,
0.11546134663341646,0.04109908615913228,
0.11551122194513716,-0.03816520868529343,
0.11556109725685786,-0.0046289670500300195,
0.11561097256857855,0.01197455257732584,
0.11566084788029925,0.006935103172252429,
0.11571072319201996,0.006208778190405686,
0.11576059850374065,-0.02362239484208531,
0.11581047381546135,-0.0011814444590983629,
0.11586034912718204,-0.005899790316028119,
0.11591022443890274,0.004518441298412093,
0.11596009975062344,-0.008883537030112833,
0.11600997506234415,0.0352566412954399,
0.11605985037406484,-0.0006250514318030496,
0.11610972568578554,0.014392835527335099,
0.11615960099750623,0.013067299129442852,
0.11620947630922693,0.020093663247330452,
0.11625935162094764,0.021256995287100375,
0.11630922693266833,0.01589175648966,
0.11635910224438903,0.02759306190752612,
0.11640897755610972,-0.028426328693278675,
0.11645885286783042,-0.0004947812103344648,
0.11650872817955112,0.01635369533959234,
0.11655860349127183,0.040349724193232406,
0.11660847880299252,0.013351854539057184,
0.11665835411471322,-0.003338403624853218,
0.11670822942643391,0.0012704762830382365,
0.11675810473815461,0.01814133438591628,
0.11680798004987532,0.024163179674151217,
0.11685785536159601,0.016085194411911478,
0.11690773067331671,0.014696410969372282,
0.1169576059850374,-0.005648549502647303,
0.1170074812967581,0.012339804474720344,
0.1170573566084788,0.0037331374504991736,
0.1171072319201995,0.011663942860047724,
0.1171571072319202,0.020602882885639155,
0.1172069825436409,0.01246338148630026,
0.1172568578553616,-0.0011192624941321443,
0.11730673316708229,0.021156134641190923,
0.117356608478803,0.02120742563036084,
0.1174064837905237,0.007611168169534635,
0.11745635910224439,-0.0012806919175726156,
0.11750623441396509,0.019941770247019253,
0.11755610972568578,0.015383998231044147,
0.11760598503740648,0.023740511512238948,
0.11765586034912719,0.002205710995970986,
0.11770573566084788,0.010515206154149128,
0.11775561097256858,0.009435336066834641,
0.11780548628428927,-0.015376861594349246,
0.11785536159600997,0.04172187782070001,
0.11790523690773068,0.024668072139350905,
0.11795511221945137,0.010424124391236553,
0.11800498753117207,0.0381500797898647,
0.11805486284289277,0.005505207305984347,
0.11810473815461346,0.01206291284169619,
0.11815461346633417,0.026304791917827308,
0.11820448877805487,0.028736980286692818,
0.11825436408977556,0.008504530038016364,
0.11830423940149626,0.03830004216539505,
0.11835411471321695,0.020600640334608487,
0.11840399002493765,0.03512409533899683,
0.11845386533665836,0.0016006895953500667,
0.11850374064837906,0.037188338984042,
0.11855361596009975,0.02829643623312701,
0.11860349127182045,0.03059201081818764,
0.11865336658354114,0.0014446020050822815,
0.11870324189526185,0.032879069913754375,
0.11875311720698255,0.009935425987227155,
0.11880299251870324,0.00017440431755259486,
0.11885286783042394,0.005414693264244597,
0.11890274314214463,0.0374555832162491,
0.11895261845386533,0.005227219337424888,
0.11900249376558604,0.016853636692474052,
0.11905236907730674,0.01308099348159201,
0.11910224438902743,0.03526062260517094,
0.11915211970074813,0.020793345044517155,
0.11920199501246882,0.007550813253291065,
0.11925187032418953,0.04632053887599132,
0.11930174563591023,0.02194168658166677,
0.11935162094763092,0.026915955072320936,
0.11940149625935162,0.047634359128865045,
0.11945137157107232,0.015322628568582408,
0.11950124688279301,0.013461535601421557,
0.11955112219451372,0.011880382431242491,
0.11960099750623442,0.015047394779968028,
0.11965087281795511,0.04219353225645715,
0.11970074812967581,0.016559061688603192,
0.1197506234413965,0.018929277484707664,
0.11980049875311721,-0.001038413642535204,
0.11985037406483791,0.021668945705749038,
0.1199002493765586,0.02875032581206995,
0.1199501246882793,0.04630206911271137,
0.12,0.03212528333193203,
0.1200498753117207,0.03906922282603546,
0.1200997506234414,0.0015699769968821227,
0.1201496259351621,0.025091163632823276,
0.12019950124688279,0.06155320633598138,
0.12024937655860349,0.028088631206013022,
0.12029925187032418,0.03647628846498399,
0.1203491271820449,0.03511539920853243,
0.12039900249376559,0.023086620733061516,
0.12044887780548628,0.015310334596146858,
0.12049875311720698,0.03883966156326754,
0.12054862842892768,0.02439368373238,
0.12059850374064839,0.01949356550471483,
0.12064837905236908,0.012223091584777947,
0.12069825436408978,0.020721498554890326,
0.12074812967581047,0.020545215560215296,
0.12079800498753117,0.01916762571332451,
0.12084788029925186,0.028830705191110285,
0.12089775561097257,0.06446403277609379,
0.12094763092269327,0.029758119199240696,
0.12099750623441397,0.044111860479457754,
0.12104738154613466,0.028758898963512882,
0.12109725685785536,0.014733344978928047,
0.12114713216957607,0.034105082435357086,
0.12119700748129676,0.03567684597004167,
0.12124688279301746,0.02795314435987417,
0.12129675810473815,0.02653510478583449,
0.12134663341645885,0.01648267969618692,
0.12139650872817954,0.031788360621162894,
0.12144638403990025,0.03402222991577297,
0.12149625935162095,0.036898915384117645,
0.12154613466334165,0.04261609798392743,
0.12159600997506234,0.022648921541144725,
0.12164588528678304,0.05020504955671595,
0.12169576059850375,0.031161358115870123,
0.12174563591022444,0.021221754101707256,
0.12179551122194514,0.024775795508373118,
0.12184538653366583,0.019867016161348165,
0.12189526184538653,0.02392762683320855,
0.12194513715710723,0.026067284373559818,
0.12199501246882793,0.02764931752888328,
0.12204488778054863,0.017664839503422736,
0.12209476309226933,0.029028725793559522,
0.12214463840399002,0.025648918118874223,
0.12219451371571072,0.03821558754019381,
0.12224438902743143,9.001032688579422e-05,
0.12229426433915212,0.013373136181311257,
0.12234413965087282,0.04287892559092752,
0.12239401496259351,0.027456194439874897,
0.12244389027431421,0.010235935742141187,
0.12249376558603492,0.01911877907804531,
0.12254364089775562,0.017246870130726503,
0.12259351620947631,0.0470131508405903,
0.122643391521197,0.03161770097931574,
0.1226932668329177,0.019148748436460236,
0.1227431421446384,0.021244622522922866,
0.12279301745635911,0.011513834677878861,
0.1228428927680798,-0.0007421954508823707,
0.1228927680798005,0.016341776570948596,
0.1229426433915212,0.005241605540971014,
0.12299251870324189,0.03354276048724097,
0.1230423940149626,0.025604518883132497,
0.1230922693266833,0.03734524084054476,
0.12314214463840399,0.020332911010468597,
0.12319201995012469,0.018898678205523545,
0.12324189526184538,0.008212936107547059,
0.12329177057356608,0.03792859235151676,
0.12334164588528679,-0.000490154991756895,
0.12339152119700748,0.03495411897513882,
0.12344139650872818,0.021519806046386952,
0.12349127182044888,0.02559668414244475,
0.12354114713216957,0.005277039597572145,
0.12359102244389028,0.043524887574695796,
0.12364089775561098,0.028086180620942473,
0.12369077306733167,0.02581765597392618,
0.12374064837905237,-0.004699348601913077,
0.12379052369077306,0.03383742170898128,
0.12384039900249376,0.021678766620565084,
0.12389027431421447,0.01720997770882909,
0.12394014962593516,0.03722209383459894,
0.12399002493765586,0.026821349282301538,
0.12403990024937656,0.014598781243821508,
0.12408977556109725,0.014276818048782962,
0.12413965087281796,0.04684776464564895,
0.12418952618453866,0.01552399604799921,
0.12423940149625935,0.027843531990130236,
0.12428927680798005,0.0204655066569548,
0.12433915211970074,0.020618605608516163,
0.12438902743142144,0.017803200312021844,
0.12443890274314215,0.016288231603887763,
0.12448877805486284,0.007039283379341208,
0.12453865336658354,0.011093674489187721,
0.12458852867830424,0.04398279522111356,
0.12463840399002493,0.013410096655288077,
0.12468827930174564,0.02318441292092129,
0.12473815461346634,0.04305929511523657,
0.12478802992518703,0.04113719403296841,
0.12483790523690773,0.03631459718813725,
0.12488778054862842,0.01852170894397496,
0.12493765586034913,0.007527776139012026,
0.12498753117206983,0.0030892255313840333,
0.12503740648379053,0.0052218678841676105,
0.12508728179551123,0.008713901883031581,
0.12513715710723192,-0.0004595960231682378,
0.12518703241895263,0.01697367531593153,
0.1252369077306733,0.0007441905183527518,
0.12528678304239402,0.03634734178512551,
0.1253366583541147,0.0378468898504623,
0.1253865336658354,0.030864824325556872,
0.12543640897755612,0.02268096599943279,
0.1254862842892768,0.017589624240934795,
0.1255361596009975,0.04377723513894566,
0.1255860349127182,0.01616937003806895,
0.1256359102244389,0.0030305277460644722,
0.1256857855361596,-0.0027503544125259596,
0.1257356608478803,0.01701760661817505,
0.125785536159601,0.0532147425221309,
0.12583541147132168,0.004442422813703729,
0.1258852867830424,-0.00107664356863639,
0.1259351620947631,-0.004492817303142353,
0.12598503740648379,0.027732244724676815,
0.1260349127182045,-0.021697486128654696,
0.12608478802992518,0.0012250670732790146,
0.1261346633416459,-8.15684942252308e-05,
0.1261845386533666,0.0312870851756781,
0.12623441396508728,-0.006367307086691459,
0.126284289276808,-0.009567308940695938,
0.12633416458852867,-0.0020399922284932755,
0.12638403990024938,0.01182310883162321,
0.1264339152119701,0.004583341679002224,
0.12648379052369077,0.011447831905854699,
0.12653366583541148,-0.011446508570178,
0.12658354114713216,0.04073979526400548,
0.12663341645885287,-0.017646860833973856,
0.12668329177057355,0.018753464283891453,
0.12673316708229426,0.01688398417759293,
0.12678304239401497,0.0248472888567391,
0.12683291770573565,0.03059575689620078,
0.12688279301745636,0.003567288256727578,
0.12693266832917705,-0.003687293831412794,
0.12698254364089775,0.006351792242074138,
0.12703241895261846,0.00235608331705508,
0.12708229426433915,0.03523204467015579,
0.12713216957605986,-0.017541514245435708,
0.12718204488778054,0.04346210751032018,
0.12723192019950125,0.023277572191727828,
0.12728179551122196,-0.018603177793393037,
0.12733167082294264,-0.010128206794946826,
0.12738154613466335,0.009375609060571735,
0.12743142144638403,-0.0069903042451004505,
0.12748129675810474,0.00897831764156985,
0.12753117206982545,0.003135687194966892,
0.12758104738154613,-0.012964334679934558,
0.12763092269326684,-0.0012739271354664976,
0.12768079800498752,0.004298691847549053,
0.12773067331670823,0.0014351914736330821,
0.1277805486284289,0.03488398905688761,
0.12783042394014962,-0.000823697231396842,
0.12788029925187033,0.006490887121692746,
0.12793017456359101,0.003234357580645009,
0.12798004987531172,-0.012823000918962043,
0.1280299251870324,0.014368500451799425,
0.12807980049875312,0.03036501981070444,
0.12812967581047383,0.005335135590621965,
0.1281795511221945,-0.016018331903016714,
0.12822942643391522,0.002369347759522864,
0.1282793017456359,-0.004782122241235485,
0.1283291770573566,-0.0058211893157636245,
0.12837905236907732,-0.005846588357725526,
0.128428927680798,0.004491363596217516,
0.1284788029925187,-0.00153047709429255,
0.1285286783042394,0.0034706956368426474,
0.1285785536159601,-0.016768897120730066,
0.1286284289276808,-0.003650550754983489,
0.1286783042394015,-0.0187135627206319,
0.1287281795511222,-0.01431994662917098,
0.12877805486284288,-0.022639200334226343,
0.1288279301745636,-0.01099988403054657,
0.1288778054862843,0.008260960117393287,
0.12892768079800498,-0.01115015479278038,
0.1289775561097257,0.0005345729720401789,
0.12902743142144638,-0.0016277635412000964,
0.12907730673316709,-0.01072816623642546,
0.12912718204488777,0.004003311005093331,
0.12917705735660848,-0.00020414368409470487,
0.1292269326683292,-0.015880508311190367,
0.12927680798004987,-0.01765747771676838,
0.12932668329177058,-0.014570666168441248,
0.12937655860349126,-0.003226512684890167,
0.12942643391521197,0.00029123962282160114,
0.12947630922693268,-0.005502123387302995,
0.12952618453865336,-0.0013366051433868062,
0.12957605985037407,0.006273264822833042,
0.12962593516209475,0.00526372662053801,
0.12967581047381546,-0.029540988805732693,
0.12972568578553617,-0.029492862963429657,
0.12977556109725685,-0.01623334916774179,
0.12982543640897756,-0.01735459129500294,
0.12987531172069824,-0.006761055630706298,
0.12992518703241895,0.0049216262210749675,
0.12997506234413966,0.002079881218314556,
0.13002493765586035,0.013255221944132782,
0.13007481296758105,0.00013928703588059546,
0.13012468827930174,0.005940734225210903,
0.13017456359102245,-0.029062024283109847,
0.13022443890274316,-0.00638812614023757,
0.13027431421446384,-0.015481555165660351,
0.13032418952618455,0.010821054961288363,
0.13037406483790523,-0.027139636551040548,
0.13042394014962594,0.016092248400248258,
0.13047381546134662,-0.017449998450342306,
0.13052369077306733,0.018961102837766156,
0.13057356608478804,0.006394910415683028,
0.13062344139650872,-0.034788511602108135,
0.13067331670822943,-0.014768585108981252,
0.1307231920199501,0.0037368554757855714,
0.13077306733167082,-0.0023318691841047613,
0.13082294264339153,0.006162042093377966,
0.13087281795511221,-0.012475774591980597,
0.13092269326683292,-0.010927483925081522,
0.1309725685785536,-0.01918769801169838,
0.13102244389027431,0.01457307034495663,
0.13107231920199502,-0.015525048899393011,
0.1311221945137157,-0.017950539461271467,
0.13117206982543642,-0.0005903059593265828,
0.1312219451371571,-0.03801526189379699,
0.1312718204488778,-0.026353265362638174,
0.13132169576059852,-0.013586523306074863,
0.1313715710723192,-0.013468283228227101,
0.1314214463840399,-0.0034614234490993713,
0.1314713216957606,-0.014048203605934662,
0.1315211970074813,0.000625482499984344,
0.13157107231920198,-0.020928286709359305,
0.1316209476309227,-0.002684276378582314,
0.1316708229426434,-0.021631754453511325,
0.13172069825436408,-0.01396175567301626,
0.1317705735660848,0.0059326211188905995,
0.13182044887780547,-0.006594308964337943,
0.13187032418952618,-0.008564857758634192,
0.1319201995012469,-0.01626247789976832,
0.13197007481296757,-0.001037334571903024,
0.13201995012468828,-0.001830722378537257,
0.13206982543640897,-0.02265406767339382,
0.13211970074812968,-0.013224989796584633,
0.13216957605985039,-0.012634403884481761,
0.13221945137157107,0.023273166090918316,
0.13226932668329178,-0.0006096489887747226,
0.13231920199501246,0.0010757477436541558,
0.13236907730673317,-0.012074147821627152,
0.13241895261845388,0.0017570032407228028,
0.13246882793017456,-0.00619572114699761,
0.13251870324189527,-0.011379548065917202,
0.13256857855361595,-0.01254553625969506,
0.13261845386533666,0.01440789934307005,
0.13266832917705737,-0.019386854206494098,
0.13271820448877805,-0.009662723801297316,
0.13276807980049876,-0.012220734037858779,
0.13281795511221944,0.0010642570224078489,
0.13286783042394015,-0.021072211435993013,
0.13291770573566083,-0.019742798295932465,
0.13296758104738154,-0.004248029286810314,
0.13301745635910225,0.002472726538750341,
0.13306733167082294,-0.002134588841267688,
0.13311720698254365,0.01973007721939351,
0.13316708229426433,-0.007257525284932631,
0.13321695760598504,-0.010908901391180576,
0.13326683291770575,0.022825454009662675,
0.13331670822942643,-0.010351518123004612,
0.13336658354114714,-0.019318226284813535,
0.13341645885286782,-0.020501695002213292,
0.13346633416458853,-0.0024356589484958013,
0.13351620947630924,-0.004818628760726397,
0.13356608478802992,-0.002702307553105524,
0.13361596009975063,-0.03208456775177335,
0.1336658354114713,-0.005041873983518236,
0.13371571072319202,-0.003396787904752705,
0.13376558603491273,-0.003675280235681321,
0.1338154613466334,-0.004269005907703601,
0.13386533665835412,-0.0004632693024765504,
0.1339152119700748,-0.03371273614452663,
0.13396508728179551,-0.02451620193697658,
0.1340149625935162,0.02274576756385891,
0.1340648379052369,0.006278991350197136,
0.13411471321695762,-0.014729985957435958,
0.1341645885286783,0.023663184983932137,
0.134214463840399,-0.0006751550949572001,
0.1342643391521197,-0.01986553813119378,
0.1343142144638404,-0.038889004385238984,
0.1343640897755611,-0.0068386922675228445,
0.1344139650872818,0.002509230786827173,
0.1344638403990025,0.015419625353041533,
0.13451371571072318,0.012626281962888022,
0.1345635910224439,-0.019250871914760565,
0.1346134663341646,-0.00127125187244845,
0.13466334164588528,0.0031037737026079664,
0.134713216957606,-0.013991912364281014,
0.13476309226932667,0.013766064388116514,
0.13481296758104738,0.004976431588692565,
0.1348628428927681,0.0011742736886178303,
0.13491271820448877,-0.01870318165724383,
0.13496259351620948,-0.015605312381029716,
0.13501246882793017,-0.003852233511121769,
0.13506234413965088,-0.010658781067276267,
0.13511221945137158,0.0020204914190283816,
0.13516209476309227,0.01480691748842217,
0.13521197007481298,0.00043367074820448376,
0.13526184538653366,0.011365028858030706,
0.13531172069825437,0.011606113931096382,
0.13536159600997505,0.004375790191386618,
0.13541147132169576,0.009847558526015775,
0.13546134663341647,-0.012529201031109497,
0.13551122194513715,-0.0033464790311297527,
0.13556109725685786,0.00024159117069131632,
0.13561097256857854,-0.014091284497437613,
0.13566084788029925,0.017031048351390403,
0.13571072319201996,-0.00033736517274468667,
0.13576059850374064,0.040810343332462244,
0.13581047381546135,0.001197722634176569,
0.13586034912718203,0.008133181549110871,
0.13591022443890274,0.008649371023237748,
0.13596009975062345,0.013774135154957887,
0.13600997506234414,-0.0013276655460599113,
0.13605985037406484,-0.0040417057593604595,
0.13610972568578553,0.019514467713233914,
0.13615960099750624,-0.005830952802763764,
0.13620947630922695,0.04754974222675918,
0.13625935162094763,-0.006243172722424922,
0.13630922693266834,0.012677175444203345,
0.13635910224438902,-0.0077748567417216825,
0.13640897755610973,0.008966799368071533,
0.1364588528678304,0.0205657526471629,
0.13650872817955112,0.029405870626956133,
0.13655860349127183,0.01061026857290867,
0.1366084788029925,0.011537765535700373,
0.13665835411471322,0.021559826002738695,
0.1367082294264339,-0.010033447671556747,
0.1367581047381546,0.023392996426626553,
0.13680798004987532,0.01652905722445666,
0.136857855361596,0.01415118787438032,
0.1369077306733167,-0.015775818242032436,
0.1369576059850374,-0.0071615527386650595,
0.1370074812967581,0.023139624603035203,
0.13705735660847881,-0.004482215172135368,
0.1371072319201995,0.014676734530789985,
0.1371571072319202,0.006469414309868976,
0.1372069825436409,0.028062585695856603,
0.1372568578553616,0.000448242541098251,
0.1373067331670823,0.035194497901963766,
0.137356608478803,0.03250966043849033,
0.1374064837905237,0.011840583720933492,
0.13745635910224438,-0.016152274867421684,
0.1375062344139651,0.053869123151080126,
0.1375561097256858,0.03687858973342425,
0.13760598503740648,0.0079939179343244,
0.1376558603491272,0.04766629880374561,
0.13770573566084787,-0.003521260994106667,
0.13775561097256858,0.026781824959778967,
0.13780548628428926,0.005910869572833606,
0.13785536159600997,0.01686216343894988,
0.13790523690773068,0.017601350904278654,
0.13795511221945136,0.02042235693086279,
0.13800498753117207,-0.007226622737573511,
0.13805486284289276,0.018422357076261796,
0.13810473815461347,0.015345031953769503,
0.13815461346633418,0.018299264576716927,
0.13820448877805486,0.03389327223871484,
0.13825436408977557,0.05186752654397832,
0.13830423940149625,0.02718019620675769,
0.13835411471321696,0.013044874240667696,
0.13840399002493767,0.01863976142354697,
0.13845386533665835,0.033886396615982486,
0.13850374064837906,-0.002994576942695261,
0.13855361596009974,0.007210180573266056,
0.13860349127182045,0.04155328652288412,
0.13865336658354116,0.0008852719550533523,
0.13870324189526184,0.0110528730046735,
0.13875311720698255,0.016514865262218556,
0.13880299251870323,0.017189676147241713,
0.13885286783042394,0.03514884226139938,
0.13890274314214462,0.01957276295308337,
0.13895261845386533,0.01457847829799309,
0.13900249376558604,0.005196910810635367,
0.13905236907730673,0.0027101004680235886,
0.13910224438902744,0.04805167243750587,
0.13915211970074812,0.02467638778661557,
0.13920199501246883,0.010689218556598951,
0.13925187032418954,0.014432280633090808,
0.13930174563591022,0.027676028490690924,
0.13935162094763093,0.010971988451947084,
0.1394014962593516,0.03694788057170682,
0.13945137157107232,0.02594935370851299,
0.13950124688279303,0.02162607333762776,
0.1395511221945137,0.0370876587066215,
0.13960099750623442,0.012516761337944769,
0.1396508728179551,0.01984645493587621,
0.1397007481296758,0.033861820416911145,
0.13975062344139652,0.018243894145844847,
0.1398004987531172,0.021506331392656994,
0.1398503740648379,0.038361260806088905,
0.1399002493765586,0.04963844473654515,
0.1399501246882793,0.022346173976175103,
0.14,0.03756751981481246,
0.1400498753117207,0.03425926376971356,
0.1400997506234414,0.021808197851874878,
0.1401496259351621,0.006748007285166245,
0.1401995012468828,0.020671425962100098,
0.14024937655860348,0.05677998698764445,
0.1402992518703242,0.025675229218081633,
0.1403491271820449,0.03421018359651915,
0.14039900249376558,0.04088655674173368,
0.1404488778054863,0.0359964895897358,
0.14049875311720697,0.036705771566263104,
0.14054862842892768,0.05188701460477649,
0.1405985037406484,0.008471195052555537,
0.14064837905236907,0.04133416520136104,
0.14069825436408978,0.05890754945739514,
0.14074812967581046,0.04257231454939754,
0.14079800498753117,0.02209175398293894,
0.14084788029925188,0.029045009473256486,
0.14089775561097256,0.03191001779096656,
0.14094763092269327,0.033185706325254714,
0.14099750623441396,0.029864645823131926,
0.14104738154613466,0.033108538480746394,
0.14109725685785537,0.04326728874266857,
0.14114713216957606,0.00437664909870554,
0.14119700748129677,0.025965053432522325,
0.14124688279301745,0.027468952346032312,
0.14129675810473816,0.03202497386287084,
0.14134663341645887,0.033981494066114844,
0.14139650872817955,0.04198600062387857,
