time,amplitude,label
0.0,0.01310618638120899,
4.987531172069826e-05,0.013047337569811858,
9.975062344139652e-05,0.04660180888274692,
0.00014962593516209475,0.042090925600569484,
0.00019950124688279303,0.04869920173042453,
0.00024937655860349125,0.054346093525424674,
0.0002992518703241895,-0.005385993973593475,
0.00034912718204488776,0.016582536068914883,
0.00039900249376558606,0.02159620359039396,
0.0004488778054862843,0.013767920187367281,
0.0004987531172069825,0.013219213415136329,
0.0005486284289276808,0.028620778326610384,
0.000598503740648379,0.012447037381867854,
0.0006483790523690773,0.012799419801984005,
0.0006982543640897755,0.022575884587623014,
0.0007481296758104738,0.017142443219289646,
0.0007980049875311721,0.025363053926041004,
0.0008478802992518703,-0.0032633486992296352,
0.0008977556109725686,0.06229709108305315,
0.0009476309226932668,0.0026685385276017486,
0.000997506234413965,0.03448584423771845,
0.0010473815461346633,0.02062185790493218,
0.0010972568578553616,-0.004519708618340942,
0.00114713216957606,0.031077674214631278,
0.001197007481296758,0.02432325070299439,
0.0012468827930174563,0.026441565672631947,
0.0012967581047381546,-0.0004535346507753106,
0.001346633416458853,0.00499212055113365,
0.001396508728179551,0.016034796248399534,
0.0014463840399002493,-0.007211340502666908,
0.0014962593516209476,-0.01690098906815982,
0.001546134663341646,0.011822144524514518,
0.0015960099750623442,0.016122007539215933,
0.0016458852867830423,0.027268472659717744,
0.0016957605985037406,0.018103032392897796,
0.001745635910224439,0.004743201158463462,
0.0017955112219451373,0.02041614068522713,
0.0018453865336658353,0.009770272878472775,
0.0018952618453865336,0.030705066681386003,
0.001945137157107232,0.019582366503543298,
0.00199501246882793,0.00192273608974617,
0.0020448877805486283,0.02976709478480125,
0.0020947630922693266,0.03837120120719088,
0.002144638403990025,0.003017582812363754,
0.0021945137157107233,-0.0014373364120574376,
0.0022443890274314216,0.019863679143151514,
0.00229426433915212,0.0055157979844954914,
0.0023441396508728177,0.02843740224401825,
0.002394014962593516,0.039520571963698736,
0.0024438902743142144,0.027708518402945963,
0.0024937655860349127,0.03255657364043949,
0.002543640897755611,0.03633545027763861,
0.0025935162094763093,0.04905365703550685,
0.0026433915211970076,-0.018512954272198977,
0.002693266832917706,-0.003151920582529402,
0.002743142144638404,0.017850492694536212,
0.002793017456359102,0.02667475620275427,
0.0028428927680798004,0.016639911348578455,
0.0028927680798004987,0.03133164478313408,
0.002942643391521197,0.021962306817410723,
0.0029925187032418953,0.013419044581721865,
0.0030423940149625936,0.030100464695539626,
0.003092269326683292,0.021515588000270633,
0.00314214463840399,0.018606324952533494,
0.0031920199501246885,0.02506984594345111,
0.0032418952618453864,0.01871835948438857,
0.0032917705735660847,0.03199637597244894,
0.003341645885286783,0.029018880207315793,
0.0033915211970074813,0.02836623350609252,
0.0034413965087281796,0.02898207766417453,
0.003491271820448878,0.044436112839821185,
0.003541147132169576,-0.0014527779623028803,
0.0035910224438902745,0.014693470181074803,
0.0036408977556109724,-0.005718477792835516,
0.0036907730673316707,0.030677548089977746,
0.003740648379052369,0.010924180309741025,
0.0037905236907730673,-0.008122275591304023,
0.0038403990024937656,0.025814054834536363,
0.003890274314214464,0.014935703023678087,
0.003940149625935162,0.0016244853938118652,
0.00399002493765586,0.02734058656136238,
0.004039900249376558,0.0029623604993304613,
0.004089775561097257,0.014239167923934553,
0.004139650872817955,0.047361996375864385,
0.004189526184538653,-0.004588225303098199,
0.004239401496259352,0.013918645618836059,
0.00428927680798005,0.02012990688980954,
0.004339152119700748,0.011100929957268909,
0.0043890274314214465,0.02022671261676637,
0.004438902743142145,0.03332128966211663,
0.004488778054862843,0.018869017580388066,
0.004538653366583541,0.016591794146907538,
0.00458852867830424,0.03758594460772433,
0.004638403990024938,0.008746397124889876,
0.0046882793017456355,0.04053943354055037,
0.004738154613466334,0.012064797869761033,
0.004788029925187032,0.007537825590354073,
0.00483790523690773,0.014248901980067102,
0.004887780548628429,-0.004299814626077279,
0.004937655860349127,0.011491771948251439,
0.004987531172069825,-0.027780396571871334,
0.005037406483790524,0.011184890609096824,
0.005087281795511222,0.006436824910630448,
0.00513715710723192,0.010158230712035808,
0.0051870324189526185,0.002946500070807206,
0.005236907730673317,-0.03787615843254649,
0.005286783042394015,-0.009195989616404113,
0.0053366583541147134,0.006746262382575663,
0.005386533665835412,0.015357049085146969,
0.00543640897755611,0.003259959842807679,
0.005486284289276808,-0.006983661177754146,
0.005536159600997507,-0.00797250372968899,
0.005586034912718204,-0.014394469624020884,
0.005635910224438902,0.03261174177590837,
0.005685785536159601,0.008974004010313832,
0.005735660847880299,0.014592204047794908,
0.005785536159600997,0.00742412892437263,
0.005835411471321696,0.03216043452025723,
0.005885286783042394,0.007197303765762587,
0.005935162094763092,-0.03144515565515506,
0.0059850374064837905,0.011806100365452831,
0.006034912718204489,-0.00034778241374583234,
0.006084788029925187,-0.009088501708722174,
0.0061346633416458855,-0.009102630675067627,
0.006184538653366584,-0.015160547882441734,
0.006234413965087282,-0.020962653493908537,
0.00628428927680798,0.01187995899464989,
0.006334164588528679,0.007789495312986156,
0.006384039900249377,-0.0007020777058400626,
0.006433915211970074,-0.01822349240487824,
0.006483790523690773,0.01528442449037824,
0.006533665835411471,0.004548223615263776,
0.006583541147132169,-0.006090024137924809,
0.006633416458852868,-0.00469195866574863,
0.006683291770573566,0.001126666860772387,
0.006733167082294264,-0.0020378981208872965,
0.0067830423940149626,-0.02409850620796236,
0.006832917705735661,0.0010047957441149309,
0.006882793017456359,0.0008014144155348711,
0.0069326683291770575,-0.021163924020125565,
0.006982543640897756,-0.010341057618488664,
0.007032418952618454,-0.0015275499336388915,
0.007082294264339152,0.006644444032606241,
0.007132169576059851,-0.0016185166878472947,
0.007182044887780549,-0.002627521211049818,
0.007231920199501247,-0.0050478935456931585,
0.007281795511221945,-0.02247699700812055,
0.007331670822942643,-0.007534654690321852,
0.007381546134663341,-0.022614305010194104,
0.00743142144638404,-0.002360853347017477,
0.007481296758104738,-0.0117342539464164,
0.007531172069825436,-0.029902322656680292,
0.007581047381546135,-0.013318795366818865,
0.007630922693266833,-0.019111889442553293,
0.007680798004987531,-0.03765459496349574,
0.0077306733167082295,-0.01615083409641022,
0.007780548628428928,-0.005119612043985687,
0.007830423940149626,-0.0035058541372640474,
0.007880299251870324,-0.03357292511572357,
0.007930174563591023,-0.015609203350901837,
0.00798004987531172,-0.005115383729215122,
0.00802992518703242,0.003320700561770893,
0.008079800498753117,-0.013359416562651393,
0.008129675810473816,-0.025423392601609147,
0.008179551122194513,-0.02217919153070904,
0.008229426433915213,0.006846448526306359,
0.00827930174563591,-0.027016904911264468,
0.00832917705735661,-0.014832691643136272,
0.008379052369077307,-0.020371265229670282,
0.008428927680798006,-0.019105985875588455,
0.008478802992518703,-0.008464606428913593,
0.0085286783042394,-0.010722117271857819,
0.0085785536159601,-0.006853724843074109,
0.008628428927680797,-0.020284785282275036,
0.008678304239401496,-0.028341929934880432,
0.008728179551122194,-0.00028194412086725816,
0.008778054862842893,-0.02561900530835691,
0.00882793017456359,0.010098808417510392,
0.00887780548628429,-0.026322816492888534,
0.008927680798004987,-0.0287938723878414,
0.008977556109725686,-0.02746202739480192,
0.009027431421446384,-0.0421282067014019,
0.009077306733167083,-0.0018171655464801865,
0.00912718204488778,-0.013107079031739823,
0.00917705735660848,-0.028279767363573467,
0.009226932668329177,-0.04166326716189124,
0.009276807980049876,-0.027907628086905292,
0.009326683291770574,-0.02069211955933212,
0.009376558603491271,-0.030097112138359666,
0.00942643391521197,-0.01270862105735204,
0.009476309226932668,-0.005261040105830332,
0.009526184538653367,-0.029646791538424144,
0.009576059850374064,-0.018795423329187322,
0.009625935162094763,-0.0030725697645583444,
0.00967581047381546,-0.0031661490250349898,
0.00972568578553616,-0.04548609607156834,
0.009775561097256857,-0.020808933249171165,
0.009825436408977557,-0.03348542431334499,
0.009875311720698254,-0.02486092891585161,
0.009925187032418953,-0.014994265467269811,
0.00997506234413965,0.014382118142243095,
0.01002493765586035,-0.019345011947203932,
0.010074812967581047,-0.02724609647514777,
0.010124688279301746,-0.019919036273655374,
0.010174563591022444,-0.01183195400304882,
0.010224438902743141,-0.01266569124034812,
0.01027431421446384,-0.035286362081403726,
0.010324189526184538,-0.03769529294784134,
0.010374064837905237,-0.03396296507039687,
0.010423940149625935,-0.02125794576585305,
0.010473815461346634,-0.020337053733051173,
0.010523690773067331,-0.0169683186387642,
0.01057356608478803,-0.031200247965698848,
0.010623441396508728,-0.04357949125101253,
0.010673316708229427,-0.017169584000809493,
0.010723192019950124,-0.025827209925417795,
0.010773067331670824,0.008280440621870597,
0.010822942643391521,-0.019297397961241212,
0.01087281795511222,-0.03986070062420503,
0.010922693266832918,-0.027208967174490135,
0.010972568578553617,-0.037464827417013714,
0.011022443890274314,-0.011479512796059575,
0.011072319201995013,0.006617583858535427,
0.01112219451371571,-0.030131732575707625,
0.011172069825436408,-0.022673246963280855,
0.011221945137157107,-0.010580484047317628,
0.011271820448877805,-0.003887091967285275,
0.011321695760598504,-0.011236095574101062,
0.011371571072319201,-0.030946171238518547,
0.0114214463840399,-0.022018362209369164,
0.011471321695760598,0.008252954907182555,
0.011521197007481297,-0.0019247114059353365,
0.011571072319201995,-0.01870683996555956,
0.011620947630922694,-0.022895971176197225,
0.011670822942643391,-0.01718309064049782,
0.01172069825436409,-0.010901136865684868,
0.011770573566084788,-0.04044095151736718,
0.011820448877805487,-0.020119504427885005,
0.011870324189526184,-0.014592984928400846,
0.011920199501246884,-0.012557836379866027,
0.011970074812967581,-0.018263774802819727,
0.012019950124688279,-0.038712773527691036,
0.012069825436408978,-0.016706150301642898,
0.012119700748129675,-0.018351535665387043,
0.012169576059850374,-0.016611108525142342,
0.012219451371571072,-0.01585914390902683,
0.012269326683291771,0.0003419251436658395,
0.012319201995012468,-0.041024035111323506,
0.012369077306733168,-0.014046742444473006,
0.012418952618453865,-0.02061186030442684,
0.012468827930174564,-0.03644359497696449,
0.012518703241895262,-0.01833816899479125,
0.01256857855361596,-0.044190994901868785,
0.012618453865336658,-0.017859559336876656,
0.012668329177057357,-0.0026133101898086174,
0.012718204488778055,-0.02146017101661517,
0.012768079800498754,-0.030458691982786695,
0.012817955112219451,-0.009531303246779345,
0.012867830423940149,-0.01723999845461465,
0.012917705735660848,-0.02893533860258311,
0.012967581047381545,0.007292852505649872,
0.013017456359102245,-0.0014383899267604808,
0.013067331670822942,-0.00919484328334388,
0.013117206982543641,-0.028268557488047234,
0.013167082294264339,0.0012969129771724357,
0.013216957605985038,0.011347180549564746,
0.013266832917705735,-0.04287456952880346,
0.013316708229426434,0.012536268848693183,
0.013366583541147132,-0.00702538891508456,
0.013416458852867831,-0.010400756256721199,
0.013466334164588529,-0.04176840235733416,
0.013516209476309228,-0.004313630640829815,
0.013566084788029925,0.004834613351430107,
0.013615960099750624,-0.0182800883628675,
0.013665835411471322,-0.0205495931537997,
0.01371571072319202,-0.013793370952921174,
0.013765586034912718,-0.03833304412619509,
0.013815461346633416,-0.017532454382567328,
0.013865336658354115,-0.015466123201740805,
0.013915211970074812,-0.02375938701445033,
0.013965087281795512,0.005768226476501444,
0.014014962593516209,-0.021819732974762245,
0.014064837905236908,0.0020666946997908477,
0.014114713216957606,-0.028803350247327286,
0.014164588528678305,-0.025502416145435573,
0.014214463840399002,0.008395237410706994,
0.014264339152119701,-0.033614927138003396,
0.014314214463840399,-0.009888078855940141,
0.014364089775561098,-0.020935303152327986,
0.014413965087281795,-0.025551728941465457,
0.014463840399002495,-0.016899821179943958,
0.014513715710723192,0.008681060796278395,
0.01456359102244389,-0.021070220695048276,
0.014613466334164589,0.0068793228808218514,
0.014663341645885286,-0.028512314820407475,
0.014713216957605985,-0.03356541552519302,
0.014763092269326683,-0.0014903093147759167,
0.014812967581047382,-0.01877979042926798,
0.01486284289276808,-0.02364282307279486,
0.014912718204488778,0.023578680351558096,
0.014962593516209476,-0.011163637675936894,
0.015012468827930175,-0.024362102696146137,
0.015062344139650873,-0.0023847962183193255,
0.015112219451371572,0.01396972218148572,
0.01516209476309227,0.002035877923351248,
0.015211970074812968,-0.03278800225376281,
0.015261845386533666,-0.008359033395145911,
0.015311720698254365,-0.01934489648253447,
0.015361596009975062,-0.0032845241524772865,
0.01541147132169576,0.004850512764406496,
0.015461346633416459,-0.022307434137362216,
0.015511221945137156,-0.022022835842285655,
0.015561097256857856,-0.004724114283392882,
0.015610972568578553,-0.013514353236872695,
0.015660847880299252,-0.017919598157935847,
0.01571072319201995,-0.013570283287062761,
0.015760598503740647,0.009322662436708425,
0.015810473815461346,-0.006651165543499709,
0.015860349127182045,-0.006100648797347262,
0.015910224438902745,0.0199488837344509,
0.01596009975062344,-0.024949861419900736,
0.01600997506234414,-0.012851787895630984,
0.01605985037406484,-0.011189359250897165,
0.016109725685785538,0.029300385258516807,
0.016159600997506234,0.0016943695486192427,
0.016209476309226933,-0.008948005224833681,
0.016259351620947632,0.01745847657725666,
0.016309226932668328,0.025313182963301664,
0.016359102244389027,0.013048503688765969,
0.016408977556109726,-0.010200428486536848,
0.016458852867830425,0.0027683110233130076,
0.01650872817955112,-0.0028996108447845886,
0.01655860349127182,-0.022026362539253934,
0.01660847880299252,-0.009883406140729599,
0.01665835411471322,0.013813500207412979,
0.016708229426433914,0.03758643093355647,
0.016758104738154613,0.0032196036411411134,
0.016807980049875312,-0.013327059179072207,
0.01685785536159601,0.001961942770798974,
0.016907730673316707,-0.015778922027747482,
0.016957605985037406,0.0016921432880884863,
0.017007481296758106,-0.012233977947950933,
0.0170573566084788,0.032663325484223495,
0.0171072319201995,0.019116646315934765,
0.0171571072319202,-0.01684878635513233,
0.0172069825436409,0.0338841804558197,
0.017256857855361595,0.00801355752382614,
0.017306733167082294,0.0356371486481771,
0.017356608478802993,0.02112744759024715,
0.017406483790523692,0.01817753466813414,
0.017456359102244388,0.03901646183957653,
0.017506234413965087,-0.006053973566967061,
0.017556109725685786,0.017659598358973197,
0.017605985037406485,0.015164494279959542,
0.01765586034912718,0.01779807565994891,
0.01770573566084788,0.025655972806416294,
0.01775561097256858,0.024961828699174127,
0.01780548628428928,0.01915738163364189,
0.017855361596009974,0.033303723010842494,
0.017905236907730673,0.008809468600871753,
0.017955112219451373,-0.0010977307101685818,
0.018004987531172068,0.04446699733837131,
0.018054862842892767,0.03488498979745005,
0.018104738154613467,0.023953428042524417,
0.018154613466334166,-0.000952508500213705,
0.01820448877805486,0.01183214904866835,
0.01825436408977556,0.0034544854245782443,
0.01830423940149626,0.0006110807078779888,
0.01835411471321696,0.030160857412954045,
0.018403990024937655,-0.0025963029504605505,
0.018453865336658354,0.03553858183905099,
0.018503740648379053,0.03539660740131841,
0.018553615960099752,0.009642265037195442,
0.018603491271820448,0.01669947011866947,
0.018653366583541147,0.01140860188238403,
0.018703241895261846,-0.0010361346781809274,
0.018753117206982542,-0.0009522932397190847,
0.01880299251870324,0.015295129133521582,
0.01885286783042394,0.010901912271217257,
0.01890274314214464,0.033009541299549514,
0.018952618453865335,-0.006921923351383585,
0.019002493765586034,0.00737003298208035,
0.019052369077306733,0.021078476680471622,
0.019102244389027433,0.020542005346637228,
0.01915211970074813,0.02210280364428238,
0.019201995012468828,0.0378615482501476,
0.019251870324189527,-0.009313722284585234,
0.019301745635910226,0.020199833332369136,
0.01935162094763092,0.014694054898305131,
0.01940149625935162,0.01785024710237737,
0.01945137157107232,0.04933780307080035,
0.01950124688279302,0.018728989535752617,
0.019551122194513715,0.042274715242097013,
0.019600997506234414,0.056928075088917146,
0.019650872817955113,0.005903806922476763,
0.01970074812967581,0.018645316902259262,
0.019750623441396508,0.013462069273566735,
0.019800498753117207,-0.0004621592777914532,
0.019850374064837906,-0.005179837182747209,
0.019900249376558602,0.03488416003257809,
0.0199501246882793,0.02807270566542481,
0.02,0.01599978797413993,
0.0200498753117207,0.02434704747170721,
0.020099750623441395,-0.00963256356431014,
0.020149625935162094,0.02109949288319287,
0.020199501246882794,0.023743261707663298,
0.020249376558603493,0.025251948423341903,
0.02029925187032419,-0.0015484534716222742,
0.020349127182044888,0.02575166052366035,
0.020399002493765587,0.002381860040663583,
0.020448877805486283,0.028764184724918672,
0.02049875311720698,0.0212176526109054,
0.02054862842892768,0.01758860904173343,
0.02059850374064838,0.05279585802032731,
0.020648379052369076,0.03868062336784236,
0.020698254364089775,0.04477497678343683,
0.020748129675810474,0.01629717821626985,
0.020798004987531173,0.015392169221615924,
0.02084788029925187,0.02187254118717435,
0.020897755610972568,-0.0022161851017829665,
0.020947630922693267,0.01107805317552866,
0.020997506234413967,-0.011990639232996762,
0.021047381546134662,0.021357978801734373,
0.02109725685785536,-0.01932253057297711,
0.02114713216957606,0.011919974592398045,
0.02119700748129676,0.02674992007476089,
0.021246882793017455,0.020929215467057845,
0.021296758104738155,-0.00017168666926678858,
0.021346633416458854,0.030805217444527536,
0.02139650872817955,0.00874715093924375,
0.02144638403990025,0.018018120464535513,
0.021496259351620948,0.02883516133953265,
0.021546134663341647,0.04008930976708883,
0.021596009975062343,0.04475193794596123,
0.021645885286783042,0.002978371020997527,
0.02169576059850374,0.037140241627754325,
0.02174563591022444,-0.000471871780328266,
0.021795511221945136,0.015059656910507636,
0.021845386533665835,0.03163201902994974,
0.021895261845386534,0.006528862426048889,
0.021945137157107233,0.01618942588356565,
0.02199501246882793,0.00967189329567655,
0.02204488778054863,0.005643096115413054,
0.022094763092269327,0.02349779720850808,
0.022144638403990027,0.009967168056052656,
0.022194513715710722,0.008025724707737297,
0.02224438902743142,-0.002359052950745906,
0.02229426433915212,0.002904893896187921,
0.022344139650872816,0.03078193794208115,
0.022394014962593516,-0.00678253027311608,
0.022443890274314215,0.03480119639386724,
0.022493765586034914,0.0021125492253632125,
0.02254364089775561,0.039084874463477,
0.02259351620947631,0.005425675104388291,
0.022643391521197008,-0.00859523140407972,
0.022693266832917707,-0.0013848123620701785,
0.022743142144638403,0.023994877477253287,
0.022793017456359102,0.01747555753073455,
0.0228428927680798,0.002925439082279626,
0.0228927680798005,0.012439801674123214,
0.022942643391521196,0.011023733698274626,
0.022992518703241895,0.00958902544297367,
0.023042394014962594,0.020689482418316855,
0.02309226932668329,0.03567900455744327,
0.02314214463840399,0.007907630418504431,
0.02319201995012469,0.027677772357478106,
0.023241895261845388,0.017139000311150194,
0.023291770573566083,0.0025056762425478656,
0.023341645885286783,0.013061458663742392,
0.02339152119700748,0.010430653457045247,
0.02344139650872818,-0.011509057376013106,
0.023491271820448877,-0.012654524611139906,
0.023541147132169576,0.03149586510920833,
0.023591022443890275,0.03632143754442646,
0.023640897755610974,0.02732081594416566,
0.02369077306733167,0.034449553680947556,
0.02374064837905237,0.008294684958982753,
0.023790523690773068,0.016573628556604714,
0.023840399002493767,0.013828727717793076,
0.023890274314214463,0.024557658291181207,
0.023940149625935162,0.011816209490849054,
0.02399002493765586,0.006255718809663814,
0.024039900249376557,0.002617573254209046,
0.024089775561097256,0.0348149458772138,
0.024139650872817955,-0.00275270997092884,
0.024189526184538655,0.03745322123382873,
0.02423940149625935,0.01978093495656899,
0.02428927680798005,0.04010759471247706,
0.02433915211970075,0.01337218499540452,
0.024389027431421448,0.021429068120521907,
0.024438902743142144,0.025865413620649015,
0.024488778054862843,0.0008301879539698402,
0.024538653366583542,0.03070677703777834,
0.02458852867830424,0.020680538095107476,
0.024638403990024937,0.018015254595286086,
0.024688279301745636,0.0155503839185203,
0.024738154613466335,0.00767048175922899,
0.02478802992518703,-0.012437593493945638,
0.02483790523690773,0.029242238238528232,
0.02488778054862843,0.020793739766764262,
0.02493765586034913,0.02699456963240904,
0.024987531172069824,0.022823729870138764,
0.025037406483790523,0.02844049337980695,
0.025087281795511222,0.01049156663633655,
0.02513715710723192,-0.013686130077148041,
0.025187032418952617,0.013258461568200798,
0.025236907730673316,0.011955018372029592,
0.025286783042394016,0.005254589741046421,
0.025336658354114715,0.030218374109014193,
0.02538653366583541,0.0198683810938902,
0.02543640897755611,0.029043432973325893,
0.02548628428927681,0.024793414968765876,
0.025536159600997508,0.014623327612557632,
0.025586034912718204,-0.012041449503903522,
0.025635910224438903,0.00700714668354279,
0.025685785536159602,-0.007652483549329398,
0.025735660847880298,-0.0021354672048904556,
0.025785536159600997,0.0061513810858521735,
0.025835411471321696,-0.015412503583702844,
0.025885286783042395,0.020738859819044532,
0.02593516209476309,0.009801349127653182,
0.02598503740648379,0.023083237912278044,
0.02603491271820449,0.017466943011796632,
0.02608478802992519,0.018048828137784818,
0.026134663341645884,0.012474116871298763,
0.026184538653366583,0.006937501476325806,
0.026234413965087282,0.002415488001892156,
0.02628428927680798,-0.0016579569110407569,
0.026334164588528677,-0.01060450882494062,
0.026384039900249377,0.010341548787023376,
0.026433915211970076,0.01036705645462007,
0.02648379052369077,0.013741839735263321,
0.02653366583541147,-0.010801949789008123,
0.02658354114713217,0.010525738040686098,
0.02663341645885287,-0.029190796803928554,
0.026683291770573565,-0.0019996136573750423,
0.026733167082294264,-0.012125783130195472,
0.026783042394014963,0.0035339841273857326,
0.026832917705735662,-0.0016452670406124962,
0.026882793017456358,-0.035599005617919684,
0.026932668329177057,0.009639569836493004,
0.026982543640897756,-0.0028257280986355836,
0.027032418952618455,-0.042049178304082134,
0.02708229426433915,-0.007672129736230303,
0.02713216957605985,0.011003508367860036,
0.02718204488778055,0.007904618857686771,
0.02723192019950125,-0.00703876173868477,
0.027281795511221944,0.02808867510086975,
0.027331670822942643,-0.002634833853118386,
0.027381546134663343,-0.011943693063072127,
0.02743142144638404,0.019375843288778772,
0.027481296758104738,-0.020546594799332525,
0.027531172069825437,-0.017020669457802368,
0.027581047381546136,-0.008638235061966417,
0.02763092269326683,0.013500773735093438,
0.02768079800498753,-0.03129660075443509,
0.02773067331670823,-0.016644782632504265,
0.02778054862842893,0.003331024081206769,
0.027830423940149625,-0.021478653323693787,
0.027880299251870324,-0.014480030926410124,
0.027930174563591023,-0.0007674701776275725,
0.027980049875311722,-0.01814721521380732,
0.028029925187032418,0.002434607812605325,
0.028079800498753117,-0.004727307279193771,
0.028129675810473816,-0.0010200722045858555,
0.028179551122194512,-0.011573564137498299,
0.02822942643391521,-0.023320668303870664,
0.02827930174563591,-0.020854840437148525,
0.02832917705735661,-0.012643920756869428,
0.028379052369077305,-0.0033574995882486736,
0.028428927680798004,-0.013961053442668953,
0.028478802992518704,-0.008370790120769167,
0.028528678304239403,-0.0035806002012373286,
0.0285785536159601,-0.03231213719635432,
0.028628428927680798,-0.012244675015382452,
0.028678304239401497,-0.0038656533301779927,
0.028728179551122196,0.0004666331769330352,
0.02877805486284289,-0.01017924044204444,
0.02882793017456359,-0.035345381519249895,
0.02887780548628429,-0.029876563620969354,
0.02892768079800499,0.006523437064029653,
0.028977556109725685,-0.02354027376732303,
0.029027431421446384,-0.0038351649202467628,
0.029077306733167083,-0.006628490540754983,
0.02912718204488778,-0.016294899593943268,
0.029177057356608478,0.017728457031842046,
0.029226932668329177,0.014407543091178403,
0.029276807980049877,-0.005479772363426037,
0.029326683291770572,-0.012551577768856799,
0.02937655860349127,-0.00667850215409073,
0.02942643391521197,-0.010982804672137235,
0.02947630922693267,-0.02752409813627963,
0.029526184538653365,-0.008113736213405331,
0.029576059850374065,0.006260550308885034,
0.029625935162094764,-0.022268959121636213,
0.029675810473815463,-0.018268620900097253,
0.02972568578553616,-0.006897314107996008,
0.029775561097256858,-0.012224274288661375,
0.029825436408977557,-0.009058287944588392,
0.029875311720698253,-0.014911214905982602,
0.029925187032418952,-0.016792641253468934,
0.02997506234413965,-0.024014035940948676,
0.03002493765586035,-0.002626562873339105,
0.030074812967581046,-0.0043934717560257415,
0.030124688279301745,-0.0034294381729149063,
0.030174563591022444,-0.015962811530299697,
0.030224438902743143,-0.006049159190929123,
0.03027431421446384,-0.03526553468540162,
0.03032418952618454,-0.007141505942983673,
0.030374064837905237,-0.02268855617411357,
0.030423940149625937,0.003608486894845442,
0.030473815461346632,-0.026630260051892438,
0.03052369077306733,-0.030823094170742853,
0.03057356608478803,-0.021748478981504074,
0.03062344139650873,-0.055159584900149744,
0.030673316708229426,-0.000882923387583022,
0.030723192019950125,-0.0003038893473221206,
0.030773067331670824,-0.0002095169596892342,
0.03082294264339152,-0.02908525237034191,
0.03087281795511222,-0.009181483621745704,
0.030922693266832918,-0.023498260474768606,
0.030972568578553617,-0.014823180313369915,
0.031022443890274313,0.007819230925844852,
0.031072319201995012,-0.03397141053177746,
0.03112219451371571,-0.020747305972283234,
0.03117206982543641,-0.023387800406458867,
0.031221945137157106,-0.036251080364728974,
0.03127182044887781,-0.02323019814373367,
0.031321695760598504,-0.02450057045746023,
0.0313715710723192,-0.0232775865622275,
0.0314214463840399,-0.030600174797873456,
0.0314713216957606,-0.03167914589333971,
0.031521197007481294,-0.02610579692489488,
0.031571072319202,-0.00016179637758112833,
0.03162094763092269,-0.0028768986646503826,
0.03167082294264339,-0.016073498445117178,
0.03172069825436409,-0.00795404484860676,
0.03177057356608479,0.006170929367830858,
0.03182044887780549,-0.0027789601951133548,
0.031870324189526185,-0.002906998072258641,
0.03192019950124688,-0.01695055291174571,
0.03197007481296758,-0.013593916737656489,
0.03201995012468828,-0.0439151977481442,
0.032069825436408975,-0.033056935524867034,
0.03211970074812968,-0.016389173600733786,
0.03216957605985037,-0.011405155923925431,
0.032219451371571076,-0.004016318080860793,
0.03226932668329177,-0.015582404351622595,
0.03231920199501247,-0.017182957892366388,
0.03236907730673317,-0.025620008587276227,
0.032418952618453865,-0.040377519653292934,
0.03246882793017456,-0.0012196042315766008,
0.032518703241895264,-0.014724900156397977,
0.03256857855361596,-0.002861633602570881,
0.032618453865336655,-0.03145445239191716,
0.03266832917705736,-0.016447014685617174,
0.032718204488778053,-0.0031223112585166517,
0.032768079800498756,-0.037921780552370304,
0.03281795511221945,-0.01996866883830371,
0.03286783042394015,-0.03679753990663801,
0.03291770573566085,-0.04967463706428431,
0.032967581047381546,-0.021076032867781938,
0.03301745635910224,-0.03632622652500946,
0.033067331670822944,-0.024423888360128147,
0.03311720698254364,-0.015393904580339719,
0.03316708229426434,-0.022938356956181058,
0.03321695760598504,-0.021209043150241504,
0.033266832917705734,-0.009282427383345226,
0.03331670822942644,-0.022069814152233413,
0.03336658354114713,-0.012408540179484201,
0.03341645885286783,-0.017528341862119146,
0.03346633416458853,-0.016433860734595084,
0.033516209476309226,-0.01594483452010496,
0.03356608478802992,-0.005489980002563768,
0.033615960099750625,-0.021224153858765464,
0.03366583541147132,0.0030096657732774593,
0.03371571072319202,-0.018855997854489315,
0.03376558603491272,-0.006051832952448034,
0.033815461346633414,-0.023666750857610504,
0.03386533665835412,-0.009812039075378153,
0.03391521197007481,-0.030838058351744874,
0.03396508728179551,0.013056885764865965,
0.03401496259351621,-0.027115725882100802,
0.03406483790523691,-0.01952481575032626,
0.0341147132169576,-0.007822271357069073,
0.034164588528678305,-0.03174080642738085,
0.034214463840399,-0.005063600747227834,
0.034264339152119704,0.001655453974800783,
0.0343142144638404,0.0006058627677542408,
0.034364089775561095,-0.008308274556572024,
0.0344139650872818,-0.0068698127807611895,
0.03446384039900249,-0.037469153910709846,
0.03451371571072319,-0.0018970891251792856,
0.03456359102244389,0.00951786990799225,
0.03461346633416459,-0.013409045736787669,
0.03466334164588529,0.008626497852516141,
0.034713216957605986,0.0071929173688122,
0.03476309226932668,0.005118653507285823,
0.034812967581047384,-0.024203734711306036,
0.03486284289276808,-0.00499592189530052,
0.034912718204488775,0.0018938143297251783,
0.03496259351620948,-0.0076464274094978826,
0.035012468827930174,0.0031895265251863933,
0.03506234413965087,-0.023771355941651248,
0.03511221945137157,-0.0065398470169815,
0.03516209476309227,0.014150442414418634,
0.03521197007481297,0.003621603093953718,
0.035261845386533666,0.0023781636577263634,
0.03531172069825436,-0.005289814270434881,
0.035361596009975065,-0.029956010506207355,
0.03541147132169576,-0.01505197099341068,
0.035461346633416456,0.00505838058172062,
0.03551122194513716,-0.012230674112231497,
0.035561097256857854,0.0026683767854499955,
0.03561097256857856,-0.012616615889018504,
0.03566084788029925,-0.008170828174110498,
0.03571072319201995,-0.005293777559662479,
0.03576059850374065,0.01775232716585529,
0.03581047381546135,-0.022714807336941076,
0.03586034912718204,-0.019576743078699894,
0.035910224438902745,0.014332425441398594,
0.03596009975062344,0.013409273712132333,
0.036009975062344136,-0.004739612000749622,
0.03605985037406484,0.0033687952877463497,
0.036109725685785535,-0.008635026279922782,
0.03615960099750624,0.01945423645637389,
0.03620947630922693,0.027233378407750156,
0.03625935162094763,-0.0058115333738230435,
0.03630922693266833,0.024829409110953174,
0.03635910224438903,-0.007817655976812474,
0.03640897755610972,0.008586519464831497,
0.036458852867830426,0.012360768293179626,
0.03650872817955112,-0.004054969769151028,
0.036558603491271824,0.0008543355655627363,
0.03660847880299252,-0.029107359371089138,
0.036658354114713215,0.022919001652152198,
0.03670822942643392,0.006324461747479475,
0.036758104738154614,-0.0008929361651816613,
0.03680798004987531,0.015550884970508012,
0.03685785536159601,-0.0021218656485956847,
0.03690773067331671,-0.014515516019371512,
0.0369576059850374,0.014207113442498295,
0.037007481296758106,-0.003162827610746017,
0.0370573566084788,0.017844684410373058,
0.037107231920199504,0.02417987449911568,
0.0371571072319202,-0.01674830082613366,
0.037206982543640896,-0.0016126224070716674,
0.0372568578553616,0.007914969722478331,
0.037306733167082294,-0.0036768291330154645,
0.03735660847880299,-0.0014235095087226333,
0.03740648379052369,0.0050245883965349845,
0.03745635910224439,0.004328110841020474,
0.037506234413965084,0.016441603255398327,
0.037556109725685786,0.014663724956543582,
0.03760598503740648,-0.0099773880103778,
0.037655860349127185,0.011387372522233938,
0.03770573566084788,0.020306989403295526,
0.037755610972568576,0.017032308835308273,
0.03780548628428928,-0.0003031267130190734,
0.037855361596009975,0.03768183948467355,
0.03790523690773067,0.011629134125669037,
0.03795511221945137,0.0017318259049472276,
0.03800498753117207,0.013639236425626372,
0.03805486284289277,0.0011895347281843764,
0.03810473815461347,-0.0020042420724170097,
0.03815461346633416,0.04355531362005251,
0.038204488778054865,0.03243557713227829,
0.03825436408977556,0.04331452511419262,
0.03830423940149626,-0.015219598201159167,
0.03835411471321696,0.011034643011843072,
0.038403990024937655,0.003868086128299787,
0.03845386533665835,0.008171671395002827,
0.03850374064837905,0.0037938525857296075,
0.03855361596009975,0.03688026832231821,
0.03860349127182045,0.0063393692541910615,
0.03865336658354115,0.022913128732419734,
0.03870324189526184,0.025012663981219437,
0.038753117206982546,0.03360817751412733,
0.03880299251870324,0.005558593211634225,
0.03885286783042394,0.01836011319080286,
0.03890274314214464,0.02373981368739483,
0.038952618453865336,0.010169037161351865,
0.03900249376558604,0.011794386711581686,
0.039052369077306734,-0.0038082899140196892,
0.03910224438902743,0.023954720438566807,
0.03915211970074813,0.035191448939802694,
0.03920199501246883,0.006383650847813865,
0.039251870324189524,0.023626990298757436,
0.039301745635910226,0.028874351379516196,
0.03935162094763092,-0.008630160875144663,
0.03940149625935162,0.02617465920199393,
0.03945137157107232,0.015527687605237579,
0.039501246882793016,0.014795751243712355,
0.03955112219451372,0.017638612822974613,
0.039600997506234414,0.02844497998577499,
0.03965087281795511,0.027226556351434453,
0.03970074812967581,0.00955553156503163,
0.03975062344139651,0.03467898460805563,
0.039800498753117204,0.009580506951031931,
0.03985037406483791,0.01938450289782488,
0.0399002493765586,0.03319188891352193,
0.039950124688279305,0.033387225102942716,
0.04,0.008294225655377402,
0.0400498753117207,0.014925890031066296,
0.0400997506234414,0.050719232278812795,
0.040149625935162095,0.006885828916066851,
0.04019950124688279,0.038093117441579075,
0.04024937655860349,0.007510443720629527,
0.04029925187032419,0.01621443512832619,
0.040349127182044885,0.03550463674746713,
0.04039900249376559,0.03166217226463708,
0.04044887780548628,0.05818827457798333,
0.040498753117206986,0.003194353048756638,
0.04054862842892768,0.027316675094481734,
0.04059850374064838,0.023946692756071416,
0.04064837905236908,0.011405321654109395,
0.040698254364089775,0.029944893480271087,
0.04074812967581047,0.014329182118227667,
0.040798004987531174,-0.00012595140741418487,
0.04084788029925187,0.026068982202205777,
0.040897755610972565,0.023373558108445176,
0.04094763092269327,0.018924167760073357,
0.04099750623441396,0.01669002491307126,
0.041047381546134666,0.01677733887431994,
0.04109725685785536,0.008691722232705956,
0.04114713216957606,0.050667253488060254,
0.04119700748129676,0.03508851707285449,
0.041246882793017456,0.03297407958166128,
0.04129675810473815,0.037513914588075015,
0.041346633416458854,0.007987538863257409,
0.04139650872817955,0.026367969899726652,
0.04144638403990025,0.010264065148565333,
0.04149625935162095,0.0348608747796994,
0.041546134663341644,0.05174823746238219,
0.04159600997506235,0.005201609216317623,
0.04164588528678304,-0.0009566882527111582,
0.04169576059850374,0.020138756784897714,
0.04174563591022444,0.03187649891223344,
0.041795511221945136,0.028229969103226227,
0.04184538653366583,0.015015337272368524,
0.041895261845386535,0.005027453883628193,
0.04194513715710723,-0.003141903968470812,
0.04199501246882793,-0.013901319823561659,
0.04204488778054863,-0.004963273636492849,
0.042094763092269324,0.010031038790806052,
0.04214463840399003,0.019610621668739465,
0.04219451371571072,-0.006816980307621515,
0.04224438902743142,0.01627936936554075,
0.04229426433915212,0.023169551117553908,
0.04234413965087282,0.04852588607908847,
0.04239401496259352,0.009633340115386406,
0.042443890274314215,0.02842889620710787,
0.04249376558603491,0.011115778208658882,
0.042543640897755614,-0.007288885467103903,
0.04259351620947631,0.04817140399160283,
0.042643391521197005,0.015184038462629626,
0.04269326683291771,0.016316125511323862,
0.0427431421446384,0.01638509146135259,
0.0427930174563591,0.011940126683370345,
0.0428428927680798,-0.008065591769050692,
0.0428927680798005,0.031204705094120638,
0.0429426433915212,0.02402002217212742,
0.042992518703241896,0.006330359388804482,
0.04304239401496259,0.03443043210821352,
0.043092269326683294,0.04273130024909047,
0.04314214463840399,0.013164406171515954,
0.043192019950124685,0.017452266038097602,
0.04324189526184539,-0.018424685121632183,
0.043291770573566084,0.010906713392815577,
0.043341645885286786,-0.00044875387074193307,
0.04339152119700748,0.010591506189903439,
0.04344139650872818,0.020429661741687394,
0.04349127182044888,0.03374934481288332,
0.043541147132169576,0.024412129491210285,
0.04359102244389027,-0.0021818290947348724,
0.043640897755610975,0.043032002544951195,
0.04369077306733167,0.018284898434013454,
0.043740648379052366,0.021506657275827512,
0.04379052369077307,0.03271342218284026,
0.043840399002493764,0.01599280220507565,
0.04389027431421447,0.03551350672702432,
0.04394014962593516,0.031174135563506004,
0.04399002493765586,0.023719292876275475,
0.04403990024937656,0.03237437963798081,
0.04408977556109726,0.06308801254964486,
0.04413965087281795,0.008034320299631942,
0.044189526184538655,-0.0004015468111521689,
0.04423940149625935,0.0376359858651901,
0.04428927680798005,0.0038088233587051674,
0.04433915211970075,0.014660562164343955,
0.044389027431421445,0.014557117642419402,
0.04443890274314215,0.031039861805061637,
0.04448877805486284,0.026925923568059302,
0.04453865336658354,0.030816303787152943,
0.04458852867830424,0.021785112848279598,
0.04463840399002494,0.0010872803049040407,
0.04468827930174563,0.003344704943899778,
0.044738154613466335,0.02635456302991994,
0.04478802992518703,0.005671120635548662,
0.044837905236907734,-0.01664224523145018,
0.04488778054862843,-0.002185809095025564,
0.044937655860349125,0.01645624703135729,
0.04498753117206983,0.008240775379930322,
0.045037406483790524,-0.00807388139353328,
0.04508728179551122,-0.01714811932072058,
0.04513715710723192,0.02611829235960595,
0.04518703241895262,-0.008815486448477182,
0.04523690773067331,0.030895505027294875,
0.045286783042394016,0.0143923161757868,
0.04533665835411471,-0.0011845042386999967,
0.045386533665835414,0.01851734331031378,
0.04543640897755611,0.011955032623479566,
0.045486284289276806,0.00490965275622334,
0.04553615960099751,0.005765082010574142,
0.045586034912718204,0.015888984010786224,
0.0456359102244389,0.03868014833121963,
0.0456857855361596,0.03322622159426787,
0.0457356608478803,0.015184575885747332,
0.045785536159601,0.004862564352826409,
0.045835411471321696,0.002493533692705224,
0.04588528678304239,0.020012353734429923,
0.045935162094763095,0.02112398367331024,
0.04598503740648379,0.00651955592490976,
0.046034912718204486,0.003283171104437546,
0.04608478802992519,0.014231022692595494,
0.046134663341645885,0.043051476222385476,
0.04618453865336658,-0.013628123454726932,
0.04623441396508728,0.031808857563598636,
0.04628428927680798,0.007214979124013501,
0.04633416458852868,0.0022777382687260714,
0.04638403990024938,0.004326238915812991,
0.04643391521197007,-0.00822792389131222,
0.046483790523690775,-0.021459452667767477,
0.04653366583541147,-0.007510732070323114,
0.04658354114713217,0.02234212922779808,
0.04663341645885287,-0.0003690036766842786,
0.046683291770573565,-0.0013015658865568398,
0.04673316708229427,0.028240482327984914,
0.04678304239401496,0.0038966751467149324,
0.04683291770573566,-0.012173226906995514,
0.04688279301745636,-0.010333630660274665,
0.04693266832917706,-0.016276247984915664,
0.04698254364089775,0.021342715992629668,
0.047032418952618456,-0.019598761781706334,
0.04708229426433915,-0.016095800869826385,
0.04713216957605985,0.016751750152273363,
0.04718204488778055,-0.02743937037690648,
0.047231920199501246,0.002534652322252222,
0.04728179551122195,-0.01187698414884559,
0.047331670822942644,-0.031028819880756602,
0.04738154613466334,-0.03825080393516742,
0.04743142144638404,-0.024558108943058394,
0.04748129675810474,-0.0002121901232390454,
0.047531172069825434,0.006959101565105222,
0.047581047381546136,0.0151585624273643,
0.04763092269326683,-0.014541467566026582,
0.047680798004987535,-0.009436091731853526,
0.04773067331670823,-0.024477436420735545,
0.047780548628428926,-0.004627771140376628,
0.04783042394014963,-0.01380207221876564,
0.047880299251870324,-0.0147943067879399,
0.04793017456359102,-0.013260688889154933,
0.04798004987531172,-0.029725716764321886,
0.04802992518703242,0.008365555193245035,
0.048079800498753114,-0.01774279394123288,
0.04812967581047382,0.0039167185320592,
0.04817955112219451,-0.013606778288071669,
0.048229426433915215,-0.018831299382516205,
0.04827930174563591,0.023843315968249526,
0.048329177057356607,-0.001313245626205218,
0.04837905236907731,-0.0076376929872925044,
0.048428927680798005,-0.005803159400609537,
0.0484788029925187,-0.001625067456756067,
0.0485286783042394,-0.01328826944625797,
0.0485785536159601,-0.004744040779808946,
0.048628428927680795,-0.01952109167399604,
0.0486783042394015,-0.003617845511234558,
0.04872817955112219,0.0010930363793995035,
0.048778054862842896,-0.01003822742391966,
0.04882793017456359,-0.010724017660393992,
0.04887780548628429,-0.00022142030696894327,
0.04892768079800499,-0.011589261159851007,
0.048977556109725685,-0.014635022566977924,
0.04902743142144638,0.015075484312273593,
0.049077306733167084,-0.02683710930770953,
0.04912718204488778,-0.01775124713689379,
0.04917705735660848,0.0001974397527033274,
0.04922693266832918,-0.017181600312524845,
0.04927680798004987,0.0037855488158642734,
0.049326683291770576,-0.007107544732292816,
0.04937655860349127,-0.02167389119480022,
0.04942643391521197,-0.003847614376701383,
0.04947630922693267,-0.0028133644538242547,
0.049526184538653366,-0.033517918829102024,
0.04957605985037406,-0.017619433497592703,
0.049625935162094764,-0.030914802522536363,
0.04967581047381546,0.003668658782968624,
0.04972568578553616,-0.010506219261071011,
0.04977556109725686,-0.03137681634328125,
0.049825436408977554,-0.01572726920210661,
0.04987531172069826,-0.018444979212907543,
0.04992518703241895,-0.017337737032009026,
0.04997506234413965,-0.015010170980324464,
0.05002493765586035,-0.032470725377998416,
0.050074812967581046,0.002182805489063286,
0.05012468827930175,-0.0354977008711299,
0.050174563591022445,-0.01972732405203242,
0.05022443890274314,-0.02318040226906483,
0.05027431421446384,-0.01544385703898771,
0.05032418952618454,0.010832807113128553,
0.050374064837905234,-0.015882905508632944,
0.05042394014962594,-0.00933256923459505,
0.05047381546134663,-0.012753639354240676,
0.05052369077306733,-0.008087308536227548,
0.05057356608478803,0.03327695728489516,
0.05062344139650873,-0.005647990472706909,
0.05067331670822943,-0.002897078329285251,
0.050723192019950125,-0.02093332677315078,
0.05077306733167082,-0.0061217180770261805,
0.050822942643391524,-0.0028263193025701034,
0.05087281795511222,-0.04102667775118539,
0.050922693266832915,-0.01934426461975576,
0.05097256857855362,-0.004967898983268607,
0.05102244389027431,-0.04733913372837834,
0.051072319201995016,-0.02245029032317589,
0.05112219451371571,-0.020631555435309458,
0.05117206982543641,-0.01252149939627448,
0.05122194513715711,-0.023168936966359292,
0.051271820448877806,-0.003964014957469711,
0.0513216957605985,-0.028766279594478916,
0.051371571072319204,-0.004665953333577527,
0.0514214463840399,-0.022310234768632354,
0.051471321695760595,-0.0032563557053351243,
0.0515211970074813,-0.0016176260986350468,
0.051571072319201994,-0.016860163713788925,
0.051620947630922696,-0.004962670573582833,
0.05167082294264339,-0.006037016913697995,
0.05172069825436409,-0.03248915777819446,
0.05177057356608479,-0.004874276985423514,
0.051820448877805486,-0.03157117357957514,
0.05187032418952618,-0.016608029708844278,
0.051920199501246884,0.0014229913368970191,
0.05197007481296758,-0.012012918165674753,
0.052019950124688276,-0.010167962724219692,
0.05206982543640898,-0.012283739904754046,
0.052119700748129674,-0.022060094917642912,
0.05216957605985038,-0.018019874901658496,
0.05221945137157107,-0.011672427599169413,
0.05226932668329177,-0.014285610270367491,
0.05231920199501247,-0.009422971377878677,
0.05236907730673317,-0.029548757365772463,
0.05241895261845386,-0.015226929532769181,
0.052468827930174565,-0.026134918831148796,
0.05251870324189526,-0.01956014512178297,
0.05256857855361596,-0.03067613373803096,
0.05261845386533666,-0.011254416514592112,
0.052668329177057355,-0.025916488850284858,
0.05271820448877806,-0.028637631821392236,
0.05276807980049875,0.0011354213183851734,
0.05281795511221945,-0.027537390053767524,
0.05286783042394015,0.0043271176364635,
0.05291770573566085,0.01142086713947876,
0.05296758104738154,-0.006483231302101009,
0.053017456359102245,-0.008356294599464856,
0.05306733167082294,-0.02305123282733644,
0.053117206982543644,-0.029115946455327866,
0.05316708229426434,-0.03718549389997901,
0.053216957605985035,-0.010123571485355368,
0.05326683291770574,-0.0002812895205251617,
0.053316708229426434,-0.009251488038782014,
0.05336658354114713,-0.012235531588735056,
0.05341645885286783,0.007044376310978189,
0.05346633416458853,-0.013210609861720842,
0.05351620947630923,-0.03265263821719567,
0.053566084788029926,0.012328052084877052,
0.05361596009975062,-0.018699378980893626,
0.053665835411471324,-0.015012121866990384,
0.05371571072319202,0.0035784906949181926,
0.053765586034912716,-0.014411772512927856,
0.05381546134663342,-0.019017834122919464,
0.053865336658354114,-0.004996826063926255,
0.05391521197007481,-0.02641450745203795,
0.05396508728179551,-0.024168503573816422,
0.05401496259351621,-0.023060348861861847,
0.05406483790523691,-0.02366592177545477,
0.054114713216957606,-0.007082563449811636,
0.0541645885286783,0.013601592310861665,
0.054214463840399005,-0.004273849623708754,
0.0542643391521197,-0.0086950573269618,
0.054314214463840396,-0.01999480588932069,
0.0543640897755611,-0.015148052478137409,
0.054413965087281795,-0.008587659641908187,
0.0544638403990025,-0.007169446979240177,
0.05451371571072319,-0.04377577701476432,
0.05456359102244389,0.007293170623365944,
0.05461346633416459,-0.009292815457912934,
0.05466334164588529,0.010960582250946121,
0.05471321695760598,-0.003052562538809208,
0.054763092269326685,-0.027393655112630356,
0.05481296758104738,-0.039077274801922766,
0.05486284289276808,-0.011319373512037476,
0.05491271820448878,-0.005123465471770351,
0.054962593516209475,0.006096644965510436,
0.05501246882793018,0.015029246688151605,
0.05506234413965087,0.018147587890739655,
0.05511221945137157,-0.0009183660103488285,
0.05516209476309227,0.0005309545714694284,
0.05521197007481297,0.001905176635974188,
0.05526184538653366,0.011937849676123049,
0.055311720698254366,0.0012152888577344804,
0.05536159600997506,0.0017610075623937021,
0.05541147132169576,-0.002857594564559295,
0.05546134663341646,-0.008650471911852572,
0.055511221945137156,0.0032940396992413475,
0.05556109725685786,-0.0008674629573449896,
0.055610972568578554,-0.020319496327946093,
0.05566084788029925,0.018831388281578324,
0.05571072319201995,0.009514937844104007,
0.05576059850374065,-0.002309407029197495,
0.055810473815461344,-0.021153184412907193,
0.055860349127182046,0.0038934944149148793,
0.05591022443890274,0.008727155346440956,
0.055960099750623445,0.00918254489410156,
0.05600997506234414,-0.011814239748705574,
0.056059850374064836,0.008033749697537076,
0.05610972568578554,0.01519421896443212,
0.056159600997506234,0.023045186185684657,
0.05620947630922693,-0.016417735709596582,
0.05625935162094763,-0.002874080763124654,
0.05630922693266833,0.02366796507762745,
0.056359102244389024,-0.019050042949419012,
0.05640897755610973,0.01203541464827327,
0.05645885286783042,0.015212307377863256,
0.056508728179551125,0.03376222699512325,
0.05655860349127182,-0.007344417622231977,
0.056608478802992516,0.01123266269548628,
0.05665835411471322,0.0002353875164817741,
0.056708229426433915,-0.004321218166924096,
0.05675810473815461,0.013960991155398672,
0.05680798004987531,0.008799272162411477,
0.05685785536159601,-0.0015124042620235697,
0.05690773067331671,0.0017100598559102289,
0.05695760598503741,-0.004155910892517744,
0.0570074812967581,0.003553288888376565,
0.057057356608478806,0.022771457925566667,
0.0571072319201995,-0.015566112039567063,
0.0571571072319202,-0.004910069451589297,
0.0572069825436409,0.015272324989489367,
0.057256857855361595,0.023729423811211823,
0.05730673316708229,-0.004421232312016018,
0.057356608478802994,0.0016367170186586955,
0.05740648379052369,0.005130243763626327,
0.05745635910224439,0.005599541975781267,
0.05750623441396509,0.023109612336319092,
0.05755610972568578,0.027250561058219484,
0.057605985037406486,0.01829894695001242,
0.05765586034912718,0.006752132423240746,
0.05770573566084788,0.038094730956447186,
0.05775561097256858,0.015604419126949537,
0.057805486284289276,0.02218628635145948,
0.05785536159600998,0.028594452782363316,
0.057905236907730674,0.02293357740552436,
0.05795511221945137,0.01647858082326993,
0.05800498753117207,-0.0031168545356479015,
0.05805486284289277,0.015468697808013016,
0.058104738154613464,0.01569055850393253,
0.05815461346633417,0.0027718159114679813,
0.05820448877805486,0.020500447415441964,
0.05825436408977556,0.014033585382129392,
0.05830423940149626,-0.009928333949372346,
0.058354114713216956,0.02650675624059487,
0.05840399002493766,0.010640421712994404,
0.058453865336658355,0.017390852753416407,
0.05850374064837905,0.01816243523510383,
0.05855361596009975,0.01264867066180694,
0.05860349127182045,0.019626857526680655,
0.058653366583541144,0.01533803511485845,
0.05870324189526185,0.01891012634661176,
0.05875311720698254,0.046747089095928174,
0.05880299251870324,0.027126055962781823,
0.05885286783042394,0.03782079746406696,
0.05890274314214464,0.04049063207236672,
0.05895261845386534,0.034962625892147194,
0.059002493765586035,0.01803025050589999,
0.05905236907730673,0.009163302882259005,
0.059102244389027433,0.03504822177182382,
0.05915211970074813,0.014045066627797167,
0.059201995012468825,0.02180708950425148,
0.05925187032418953,0.005216959064330531,
0.05930174563591022,0.03230279297402792,
0.059351620947630926,0.029321269782031055,
0.05940149625935162,0.03274647776148559,
0.05945137157107232,0.02304812834685529,
0.05950124688279302,0.019495820718371477,
0.059551122194513716,0.006991847234690858,
0.05960099750623441,0.037426799157470284,
0.059650872817955114,0.01832406999931714,
0.05970074812967581,0.025194634281180003,
0.059750623441396505,0.02211226661884986,
0.05980049875311721,0.0008200596375229421,
0.059850374064837904,0.03357639568904548,
0.059900249376558606,0.011735049190858257,
0.0599501246882793,0.018643058273829942,
0.06,0.006316680009550442,
0.0600498753117207,0.013094658151314817,
0.060099750623441396,0.03131250684504232,
0.06014962593516209,0.03531559393458199,
0.060199501246882794,0.020495217559524808,
0.06024937655860349,0.010211256545442209,
0.06029925187032419,0.06409046276720813,
0.06034912718204489,0.041386011684296176,
0.060399002493765584,0.015907318957114835,
0.06044887780548629,0.020927214387505562,
0.06049875311720698,0.014196231628378284,
0.06054862842892768,0.012895038103581299,
0.06059850374064838,0.039470260457364875,
0.06064837905236908,0.03347724492173952,
0.06069825436408977,0.042983925671807505,
0.060748129675810475,0.03446773462724302,
0.06079800498753117,0.02457133841240276,
0.06084788029925187,0.023170518614030786,
0.06089775561097257,0.02265197845669197,
0.060947630922693265,0.007045168732992702,
0.06099750623441397,0.013021305408485128,
0.06104738154613466,0.0007997701192782071,
0.06109725685785536,0.028558474507208317,
0.06114713216957606,0.01455198940583344,
0.06119700748129676,0.004413531042404058,
0.06124688279301746,0.027984456428390078,
0.061296758104738155,0.019530194966778498,
0.06134663341645885,0.0027020013216870996,
0.061396508728179554,0.04414532904550222,
0.06144638403990025,0.03218862763604361,
0.061496259351620945,0.03009019052579736,
0.06154613466334165,0.013095229831923091,
0.061596009975062344,0.04754927966517504,
0.06164588528678304,0.027666176934091763,
0.06169576059850374,0.034090051522070966,
0.06174563591022444,0.034946046292270244,
0.06179551122194514,-0.009170122929371,
0.061845386533665836,0.034057995887573654,
0.06189526184538653,0.025827464842189077,
0.061945137157107234,-0.0006614951333433726,
0.06199501246882793,0.06202157406503703,
0.062044887780548626,0.010916541372767328,
0.06209476309226933,0.033476074329906125,
0.062144638403990024,-0.0014879710734135194,
0.06219451371571072,0.02373901671059718,
0.06224438902743142,0.0372372573305127,
0.06229426433915212,0.043101386348450614,
0.06234413965087282,0.02616716347401437,
0.062394014962593516,0.023559905747805473,
0.06244389027431421,-0.0009618063715748047,
0.062493765586034915,0.028231100707331643,
0.06254364089775562,0.01853337610530281,
0.06259351620947631,0.03147532746825067,
0.06264339152119701,0.03785903102627596,
0.0626932668329177,0.013062593321942059,
0.0627431421446384,0.030730967562934683,
0.0627930174563591,0.044648192713313994,
0.0628428927680798,-0.010813694663867494,
0.0628927680798005,0.038931749081925204,
0.0629426433915212,-0.0026387678367075507,
0.06299251870324189,0.017672946372311607,
0.06304239401496259,0.03614876273921467,
0.0630922693266833,0.02114063495408718,
0.063142144638404,0.023026018688720274,
0.06319201995012469,-0.007386596600272709,
0.06324189526184539,0.007176141357489866,
0.06329177057356608,0.02268835565050807,
0.06334164588528678,0.008705830161074804,
0.06339152119700749,0.009280963696326335,
0.06344139650872818,0.014796721072042716,
0.06349127182044888,0.02783253812994354,
0.06354114713216957,0.027524185226332046,
0.06359102244389027,0.021818787248271045,
0.06364089775561098,0.016498581094653523,
0.06369077306733167,0.015997910644624216,
0.06374064837905237,0.03428886686693925,
0.06379052369077307,0.024051382908288777,
0.06384039900249376,0.06130126977148202,
0.06389027431421446,0.011288734687409221,
0.06394014962593517,0.01520677861030673,
0.06399002493765586,0.015765761757861894,
0.06403990024937656,0.009831707713213254,
0.06408977556109725,0.014188437384325098,
0.06413965087281795,0.037418295308179673,
0.06418952618453866,0.005199653584625373,
0.06423940149625935,0.01759969479242421,
0.06428927680798005,0.03600890772794275,
0.06433915211970075,0.008599409806977041,
0.06438902743142144,-0.009241897172002269,
0.06443890274314215,0.03325641978388799,
0.06448877805486285,0.050239560376323704,
0.06453865336658354,0.0293702144950514,
0.06458852867830424,0.04432132010620666,
0.06463840399002493,0.03718398345939898,
0.06468827930174563,0.006453788928557757,
0.06473815461346634,0.005225584779149859,
0.06478802992518704,-0.014643415025960001,
0.06483790523690773,0.02125232137732433,
0.06488778054862843,0.0075214354227729745,
0.06493765586034912,0.007685166339982614,
0.06498753117206983,0.020455959224343102,
0.06503740648379053,0.019050877485999092,
0.06508728179551122,0.03220298950797823,
0.06513715710723192,0.004931536014732971,
0.06518703241895261,0.02112505767786408,
0.06523690773067331,0.03133481806555236,
0.06528678304239402,0.0022431876558781857,
0.06533665835411472,0.013373071214899229,
0.06538653366583541,0.009264572960893773,
0.06543640897755611,0.024455777750928,
0.0654862842892768,0.02203457588320523,
0.06553615960099751,0.0444243503755827,
0.06558603491271821,0.015790776646955263,
0.0656359102244389,-0.0089376618083618,
0.0656857855361596,0.01245219137464069,
0.0657356608478803,-0.004231193746868599,
0.06578553615960099,-0.007216582154471098,
0.0658354114713217,0.02343403339086744,
0.0658852867830424,-0.026650276883897747,
0.06593516209476309,-0.0026076837784369134,
0.06598503740648379,0.009063907151895265,
0.06603491271820448,0.015324062810242177,
0.06608478802992519,0.03176571649014362,
0.06613466334164589,0.025261998771173272,
0.06618453865336658,0.030861184878930345,
0.06623441396508728,0.009461605367567322,
0.06628428927680798,0.00608837581614073,
0.06633416458852869,-0.03872069626013215,
0.06638403990024938,0.001627549922245146,
0.06643391521197008,0.0092382728688407,
0.06648379052369077,0.01607123060307968,
0.06653366583541147,0.005441864891245436,
0.06658354114713216,0.008954298708727597,
0.06663341645885287,0.00850547492365844,
0.06668329177057357,-0.0030070702253089314,
0.06673316708229426,0.016197523201214724,
0.06678304239401496,-0.02342768733627681,
0.06683291770573566,0.015476669857457985,
0.06688279301745637,0.019228872963777316,
0.06693266832917706,-0.010223301739968254,
0.06698254364089776,0.01992095802958816,
0.06703241895261845,0.01538714785887943,
0.06708229426433915,-0.016264619467096557,
0.06713216957605984,-0.018532870261932392,
0.06718204488778055,0.018807374248959167,
0.06723192019950125,-0.016126268104312703,
0.06728179551122195,-0.016988333625510367,
0.06733167082294264,0.0026886423785603686,
0.06738154613466334,0.0012684851489681275,
0.06743142144638405,-0.003721098692225786,
0.06748129675810474,0.016590157347882845,
0.06753117206982544,0.023754703382980115,
0.06758104738154613,0.034514861159166056,
0.06763092269326683,0.005226962843818731,
0.06768079800498752,-0.02134643922364591,
0.06773067331670823,-0.009740487495999789,
0.06778054862842893,-0.037106502769236493,
0.06783042394014963,-0.021066140743561546,
0.06788029925187032,0.002903510135349798,
0.06793017456359102,-0.003125666251434944,
0.06798004987531173,-0.03475668436738859,
0.06802992518703242,-0.029421785345327783,
0.06807980049875312,-0.003283862510879063,
0.06812967581047381,0.02866137725948976,
0.06817955112219451,0.017409326826278555,
0.0682294264339152,-0.005833361970844301,
0.06827930174563591,0.01704106842350108,
0.06832917705735661,-0.0118877620649607,
0.0683790523690773,-0.0359826874648768,
0.068428927680798,-0.01196743582146165,
0.0684788029925187,-0.00041513034625732803,
0.06852867830423941,0.038309538755753554,
0.0685785536159601,-0.01010025079728029,
0.0686284289276808,-0.015016652898631003,
0.0686783042394015,0.0017662729310469073,
0.06872817955112219,-0.010387731216461134,
0.0687780548628429,-0.01737209619014153,
0.0688279301745636,0.010433178300305934,
0.06887780548628429,0.012668326839646669,
0.06892768079800499,-0.01224670825088898,
0.06897755610972568,-0.024775500780442314,
0.06902743142144638,0.013311028286337519,
0.06907730673316709,0.003071873366797215,
0.06912718204488778,-0.006483150159708516,
0.06917705735660848,-0.010950340783171194,
0.06922693266832917,-0.002347881675517338,
0.06927680798004987,-0.0056371403449017934,
0.06932668329177058,0.005489286995948455,
0.06937655860349128,-0.008412595033587714,
0.06942643391521197,-0.024550373437646128,
0.06947630922693267,-0.021701700782684984,
0.06952618453865336,-0.009633911244214739,
0.06957605985037406,-0.02645017342409034,
0.06962593516209477,-0.007681123811897841,
0.06967581047381546,-0.029960171250390917,
0.06972568578553616,-0.007561289137200331,
0.06977556109725686,0.007025842357563792,
0.06982543640897755,-0.022620761852567665,
0.06987531172069826,-0.047041927687572926,
0.06992518703241896,-0.037136515168573137,
0.06997506234413965,-0.007603805220659619,
0.07002493765586035,-0.030157566356645318,
0.07007481296758104,-0.01942140135478084,
0.07012468827930174,0.005742619044283749,
0.07017456359102245,0.0011855221133440438,
0.07022443890274314,-0.02940695492682495,
0.07027431421446384,0.001753273464396363,
0.07032418952618454,-0.040427785632299894,
0.07037406483790523,-0.05124964007577908,
0.07042394014962594,-0.017185835479188317,
0.07047381546134664,-0.012773860318450474,
0.07052369077306733,0.003949810116733357,
0.07057356608478803,-0.00922864298343657,
0.07062344139650872,-0.03424624534400369,
0.07067331670822943,0.001915221081322525,
0.07072319201995013,-0.03151036093046844,
0.07077306733167082,-0.02367013564237631,
0.07082294264339152,-0.020548871760309714,
0.07087281795511222,-0.015679808789190362,
0.07092269326683291,-0.031473001532352225,
0.07097256857855362,-0.034247716198869224,
0.07102244389027432,0.004702377393509165,
0.07107231920199501,-0.010551326982053853,
0.07112219451371571,-0.02161808155769058,
0.0711720698254364,-0.004613171938888494,
0.07122194513715711,-0.013854644406101208,
0.07127182044887781,-0.019580845338473374,
0.0713216957605985,0.004757537936244897,
0.0713715710723192,-0.010502313429185763,
0.0714214463840399,-0.004029998217934087,
0.07147132169576059,-0.0112412682129007,
0.0715211970074813,-0.010232802238817524,
0.071571072319202,-0.013694632182015257,
0.0716209476309227,-0.02641883912996194,
0.07167082294264339,-0.004634651521528078,
0.07172069825436408,-0.008245167174231911,
0.0717705735660848,-0.02009238388308539,
0.07182044887780549,-0.00473131614485838,
0.07187032418952619,-0.010032309417522119,
0.07192019950124688,-0.01934063147724375,
0.07197007481296758,-0.008444690446322933,
0.07201995012468827,-0.010117411594741995,
0.07206982543640898,-0.02815046484262059,
0.07211970074812968,-0.01891248482696449,
0.07216957605985037,-0.00458020140626051,
0.07221945137157107,-0.007070093988413002,
0.07226932668329177,0.02524711244641556,
0.07231920199501247,-0.008465706349969286,
0.07236907730673317,-0.02518812524968765,
0.07241895261845387,-0.021282496980071938,
0.07246882793017456,-0.0066450850054191445,
0.07251870324189526,-0.036846869065493344,
0.07256857855361595,0.004242660895059893,
0.07261845386533666,-0.03330458752645671,
0.07266832917705736,-0.028507681855545593,
0.07271820448877805,-0.04348938823459043,
0.07276807980049875,-0.012909292047046014,
0.07281795511221945,-0.035653763805310906,
0.07286783042394016,0.015628109633179194,
0.07291770573566085,-0.017378079267707215,
0.07296758104738155,-0.029704551131481884,
0.07301745635910224,-0.02637364022125717,
0.07306733167082294,-0.03419234900524744,
0.07311720698254365,-0.010791858189773615,
0.07316708229426434,-0.004870652142920652,
0.07321695760598504,0.011175049533686695,
0.07326683291770573,-0.010569206790054535,
0.07331670822942643,0.0010194699753171606,
0.07336658354114713,-0.026036701730317025,
0.07341645885286784,-0.0040686464821450665,
0.07346633416458853,0.0019005012366264153,
0.07351620947630923,-0.010195565869021992,
0.07356608478802992,-0.011043355796088896,
0.07361596009975062,-0.0033500203239715783,
0.07366583541147133,-0.01703628130618398,
0.07371571072319202,0.002177714226385274,
0.07376558603491272,-0.01376636874220535,
0.07381546134663342,-0.0009661216188784844,
0.07386533665835411,-0.02888202010519187,
0.0739152119700748,-0.004453413635428595,
0.07396508728179552,-0.0012165616169271583,
0.07401496259351621,0.020378248417006736,
0.07406483790523691,-0.027692252715528415,
0.0741147132169576,0.010554793639107725,
0.0741645885286783,-0.006424034063375369,
0.07421446384039901,-0.0040773655922891755,
0.0742643391521197,-0.006049825812656725,
0.0743142144638404,-0.021397447362882682,
0.0743640897755611,-0.0012880655159904506,
0.07441396508728179,0.011793699055334166,
0.07446384039900249,-0.026393958648301498,
0.0745137157107232,-0.03714711340603109,
0.07456359102244389,-0.008021605964951991,
0.07461346633416459,0.0039686267775176625,
0.07466334164588528,-0.01498075145900689,
0.07471321695760598,-0.023559441386731505,
0.07476309226932669,-0.022963284390374053,
0.07481296758104738,-0.0018829630729669399,
0.07486284289276808,-0.013413450938138935,
0.07491271820448878,-0.014717004210601368,
0.07496259351620947,0.03452374421179386,
0.07501246882793017,0.019841079064208022,
0.07506234413965088,0.008257765843873784,
0.07511221945137157,0.02210792980403739,
0.07516209476309227,-0.005874592370639295,
0.07521197007481296,-0.022710596242107053,
0.07526184538653366,-0.0005299660053907094,
0.07531172069825437,0.02220878218113737,
0.07536159600997507,0.01186483002467633,
0.07541147132169576,0.023856124271721253,
0.07546134663341646,0.0024280943564168656,
0.07551122194513715,0.012838069845798687,
0.07556109725685786,0.011537255009240018,
0.07561097256857856,-0.01731595533405142,
0.07566084788029925,0.002820314332727257,
0.07571072319201995,0.007755931164614558,
0.07576059850374064,0.010635119262402532,
0.07581047381546134,-0.014622092942682737,
0.07586034912718205,0.00911898949023415,
0.07591022443890275,0.004484770314827644,
0.07596009975062344,-0.0029385611985212534,
0.07600997506234414,-0.012739073106616561,
0.07605985037406483,-0.01984727945279522,
0.07610972568578554,0.011968337712405925,
0.07615960099750624,0.032630740835804306,
0.07620947630922693,-0.01565432909887306,
0.07625935162094763,-0.0020939342113092674,
0.07630922693266833,-0.021777632902710467,
0.07635910224438902,0.0022437965544875402,
0.07640897755610973,0.012243989361215915,
0.07645885286783043,0.007778584111390303,
0.07650872817955112,-0.0019982278811868127,
0.07655860349127182,0.007628082581688929,
0.07660847880299251,-0.02147314370477473,
0.07665835411471322,-0.00228970187747099,
0.07670822942643392,0.03431803568767364,
0.07675810473815461,0.01297923828661579,
0.07680798004987531,0.0030393340386476054,
0.076857855361596,0.022478088062914174,
0.0769077306733167,0.00809918425062286,
0.07695760598503741,0.002450928650597415,
0.0770074812967581,0.01877497266391539,
0.0770573566084788,0.023503822535307882,
0.0771072319201995,0.035987750308175914,
0.0771571072319202,0.016918801128662113,
0.0772069825436409,-0.0025579037536194033,
0.0772568578553616,0.029875703371809857,
0.0773067331670823,0.010665411883040795,
0.07735660847880299,0.010428675303842122,
0.07740648379052369,-0.003632008583614326,
0.0774563591022444,0.00014301344362864163,
0.07750623441396509,0.001148214342858056,
0.07755610972568579,0.018311830251248284,
0.07760598503740648,0.0005053383183665928,
0.07765586034912718,0.02659675422266658,
0.07770573566084787,0.015714279489991014,
0.07775561097256858,-0.012755571335743801,
0.07780548628428928,0.014801751824549842,
0.07785536159600998,0.024861363247745683,
0.07790523690773067,0.04942379473546814,
0.07795511221945137,0.04065250454022701,
0.07800498753117208,0.03877723669027357,
0.07805486284289277,0.019985026397047467,
0.07810473815461347,0.030735487855613287,
0.07815461346633416,0.0013116284373524863,
0.07820448877805486,0.011700990287045607,
0.07825436408977555,0.03809042633250233,
0.07830423940149626,0.02565289009586768,
0.07835411471321696,0.014795141054326978,
0.07840399002493766,0.007098526291473372,
0.07845386533665835,0.014673570279574662,
0.07850374064837905,0.03550723842298038,
0.07855361596009976,0.02363336611988376,
0.07860349127182045,0.02422651778684535,
0.07865336658354115,0.021191849575849544,
0.07870324189526184,0.013950646613259227,
0.07875311720698254,0.028476393142158933,
0.07880299251870324,0.028119515933358347,
0.07885286783042394,0.018047929105181364,
0.07890274314214464,0.011718674004686586,
0.07895261845386534,0.0002575570111970245,
0.07900249376558603,0.045406340132580214,
0.07905236907730673,0.0038171917877367068,
0.07910224438902744,0.009673248534353918,
0.07915211970074813,0.017534171575908773,
0.07920199501246883,-0.0033640364973074183,
0.07925187032418952,0.016892663691998204,
0.07930174563591022,-0.00043295551451453737,
0.07935162094763092,0.0465556314656375,
0.07940149625935163,0.02432145720907658,
0.07945137157107232,0.011735358475919411,
0.07950124688279302,0.011174419267980719,
0.07955112219451371,0.005686518620577639,
0.07960099750623441,-0.003149213873844474,
0.07965087281795512,0.023224246051111588,
0.07970074812967581,0.04733545408465488,
0.07975062344139651,0.008370450210914322,
0.0798004987531172,0.03922244043049631,
0.0798503740648379,-0.006935611693783622,
0.07990024937655861,0.00923571886322596,
0.0799501246882793,0.02566366776998764,
0.08,-0.0030366869717055357,
0.0800498753117207,0.03155863727501547,
0.0800997506234414,0.02243993846197815,
0.08014962593516209,0.02991494173191979,
0.0801995012468828,0.017414204951245266,
0.0802493765586035,0.03334062276811421,
0.08029925187032419,0.026115073001317178,
0.08034912718204489,0.012422580540592337,
0.08039900249376558,0.01728826941902971,
0.08044887780548629,0.009995880066432414,
0.08049875311720699,0.05648736215594646,
0.08054862842892768,0.02287914282512343,
0.08059850374064838,0.019320422187598205,
0.08064837905236907,0.040180863458775,
0.08069825436408977,0.020019335081387507,
0.08074812967581048,-0.009773842710480745,
0.08079800498753117,0.04548029386884862,
0.08084788029925187,0.008066183084901084,
0.08089775561097257,0.025108263715713366,
0.08094763092269326,0.03343126111273958,
0.08099750623441397,0.016013340979066974,
0.08104738154613467,0.036781045646513646,
0.08109725685785536,0.02972695742773323,
0.08114713216957606,0.04149543340931201,
0.08119700748129675,0.019674878594699574,
0.08124688279301745,0.004970855565115246,
0.08129675810473816,0.0455493096695894,
0.08134663341645886,0.009442504855972093,
0.08139650872817955,0.015573598094378869,
0.08144638403990025,0.01873645412060216,
0.08149625935162094,0.023548933455152018,
0.08154613466334165,0.026032314344403455,
0.08159600997506235,0.026434694859472817,
0.08164588528678304,0.04801713185716676,
0.08169576059850374,0.04842521362753873,
0.08174563591022443,0.03993985005679584,
0.08179551122194513,0.01389647705709067,
0.08184538653366584,0.02548776347743398,
0.08189526184538654,0.035528703824923374,
0.08194513715710723,0.06836754227675737,
0.08199501246882793,0.025346431381444788,
0.08204488778054862,0.011028540690719204,
0.08209476309226933,0.03920704723558171,
0.08214463840399003,0.006885836605673136,
0.08219451371571072,0.008185766149602158,
0.08224438902743142,0.03298481229181381,
0.08229426433915212,0.024487092267558432,
0.08234413965087282,0.024164752023847554,
0.08239401496259352,0.024427694586128524,
0.08244389027431422,-0.004671280085661485,
0.08249376558603491,0.04023297471116508,
0.08254364089775561,0.021700343396685903,
0.0825935162094763,0.04403504373676248,
0.08264339152119701,0.042153734356889086,
0.08269326683291771,0.026836668569942827,
0.0827431421446384,0.047555619714282724,
0.0827930174563591,0.015869117785711047,
0.0828428927680798,0.01357410405717789,
0.0828927680798005,0.023961004861665844,
0.0829426433915212,0.02251933480881482,
0.0829925187032419,0.014364246979331408,
0.08304239401496259,0.04175516141986423,
0.08309226932668329,0.04020511046521577,
0.08314214463840398,0.02437794768454316,
0.0831920199501247,0.03211769015200255,
0.08324189526184539,0.030967597578257268,
0.08329177057356608,0.024910202451571273,
0.08334164588528678,0.03693974358605997,
0.08339152119700748,0.02453184895881054,
0.08344139650872819,0.009398905548295405,
0.08349127182044888,2.7502602270124826e-05,
0.08354114713216958,0.021849129811567045,
0.08359102244389027,0.03146216721369478,
0.08364089775561097,0.017203496572144893,
0.08369077306733166,0.0263939099241814,
0.08374064837905237,-0.005127039725934365,
0.08379052369077307,0.03151419244891587,
0.08384039900249377,0.0037974944243764318,
0.08389027431421446,0.03952769742262539,
0.08394014962593516,0.007718320818437778,
0.08399002493765587,0.004168186837072785,
0.08403990024937656,0.024769714908308742,
0.08408977556109726,0.02042543747562351,
0.08413965087281795,0.038088507754246284,
0.08418952618453865,0.030940222460232633,
0.08423940149625936,0.04012850889195006,
0.08428927680798005,0.0212259381750602,
0.08433915211970075,0.028299671146166425,
0.08438902743142145,0.025411119508185608,
0.08443890274314214,0.010336635623366182,
0.08448877805486284,0.010370524960928842,
0.08453865336658355,0.0190387224797865,
0.08458852867830424,-0.011042436095533171,
0.08463840399002494,0.007285846139673905,
0.08468827930174563,0.0008763942517915884,
0.08473815461346633,0.0039086174922910374,
0.08478802992518704,0.005175549277830087,
0.08483790523690773,0.021736338046008098,
0.08488778054862843,0.013516300473303322,
0.08493765586034913,0.032682416603535,
0.08498753117206982,0.020378654992331255,
0.08503740648379052,0.006111901958297294,
0.08508728179551123,0.00040299252061616955,
0.08513715710723192,0.013335377040802437,
0.08518703241895262,0.018903203581675007,
0.08523690773067331,0.004903231987416769,
0.08528678304239401,0.016501429997604823,
0.08533665835411472,0.014263498643114292,
0.08538653366583542,0.017175657806205738,
0.08543640897755611,0.0017804076117756557,
0.0854862842892768,0.005263760746230982,
0.0855361596009975,0.02035112941162282,
0.0855860349127182,0.02221012774020909,
0.08563591022443891,0.02183681160441647,
0.0856857855361596,0.013287301075180821,
0.0857356608478803,-0.004454870599552517,
0.085785536159601,0.00990373572909794,
0.08583541147132169,0.016456035274104323,
0.0858852867830424,-0.01277287480616498,
0.0859351620947631,0.006019671563756806,
0.08598503740648379,0.008840443354274913,
0.08603491271820449,0.027371073652752532,
0.08608478802992518,0.017673382644490216,
0.08613466334164588,0.013623305552884452,
0.08618453865336659,0.03232491875562138,
0.08623441396508728,-0.005311247507125415,
0.08628428927680798,-0.008018093372662296,
0.08633416458852868,0.01284963990351053,
0.08638403990024937,0.03421282637934294,
0.08643391521197008,0.0308938758402001,
0.08648379052369078,0.006358678848357495,
0.08653366583541147,0.013938450678658499,
0.08658354114713217,-0.010444340401819267,
0.08663341645885286,-0.005623735145016195,
0.08668329177057357,-0.000999487006663536,
0.08673316708229427,0.008296069105151476,
0.08678304239401496,0.0034569503341189997,
0.08683291770573566,-0.0019218474311805118,
0.08688279301745636,-0.006818867210712537,
0.08693266832917705,0.006932663350877456,
0.08698254364089776,-0.011924877188399453,
0.08703241895261846,0.005759051569251496,
0.08708229426433915,-0.017486832644831043,
0.08713216957605985,0.013919310808223905,
0.08718204488778054,0.016780683212784114,
0.08723192019950125,0.03002072166028166,
0.08728179551122195,-0.002157141987839333,
0.08733167082294264,-0.020241140295347917,
0.08738154613466334,0.009493671545981968,
0.08743142144638404,0.0035813198077898536,
0.08748129675810473,0.001088750856442602,
0.08753117206982544,-0.01196599970764489,
0.08758104738154614,-0.014479893176948613,
0.08763092269326683,0.017846216708178937,
0.08768079800498753,0.005509110759093748,
0.08773067331670822,0.0029380693517846255,
0.08778054862842893,0.003006562430019619,
0.08783042394014963,-0.017397585179260884,
0.08788029925187033,-0.02910874054169075,
0.08793017456359102,0.0033688499664891233,
0.08798004987531172,0.018396545503817197,
0.08802992518703241,-0.00956856403127802,
0.08807980049875312,-0.012120099512012025,
0.08812967581047382,0.006515235552320748,
0.08817955112219451,0.008085233290062497,
0.08822942643391521,-0.021061457994850766,
0.0882793017456359,-0.012906064144557854,
0.08832917705735661,-0.023804576764947186,
0.08837905236907731,-0.00740116030054821,
0.088428927680798,-0.015134124913407052,
0.0884788029925187,-0.02653027442124674,
0.0885286783042394,0.013251141219088821,
0.0885785536159601,-0.014852109620221342,
0.0886284289276808,-0.03987258328264167,
0.0886783042394015,-0.03737974497232033,
0.0887281795511222,-0.003966725358183522,
0.08877805486284289,-0.013338143256467063,
0.08882793017456359,0.0012375895785007966,
0.0888778054862843,0.00309379440953619,
0.08892768079800499,-0.003056595198496835,
0.08897755610972569,0.005638573749631408,
0.08902743142144638,0.013334510389423666,
0.08907730673316708,-0.024165141214368926,
0.08912718204488779,-0.000729171445036661,
0.08917705735660848,0.007505053910099306,
0.08922693266832918,-0.03291065729368298,
0.08927680798004987,0.006603442034365374,
0.08932668329177057,-0.034587749823847394,
0.08937655860349127,0.010140481223325063,
0.08942643391521198,-0.01881309590615625,
0.08947630922693267,-0.02424464324554683,
0.08952618453865337,-0.0126420945039281,
0.08957605985037406,-0.013927766609820811,
0.08962593516209476,0.007617087545438786,
0.08967581047381547,0.017921773516129308,
0.08972568578553616,-0.010724483455768244,
0.08977556109725686,-0.02064971378012271,
0.08982543640897755,-0.019918261819904894,
0.08987531172069825,-0.03552773391776046,
0.08992518703241895,-0.02000301487124774,
0.08997506234413966,-0.005629841419169888,
0.09002493765586035,0.0024774267337660857,
0.09007481296758105,-0.007787166800792912,
0.09012468827930174,-0.015516931054865391,
0.09017456359102244,-0.01499928248310322,
0.09022443890274315,0.008734243986296004,
0.09027431421446384,0.003673134956247482,
0.09032418952618454,-0.006080088286903802,
0.09037406483790524,0.0005869929893803066,
0.09042394014962593,-0.011047836993882836,
0.09047381546134663,-0.009424465788051038,
0.09052369077306734,-0.009763208742853979,
0.09057356608478803,-0.012715114173118984,
0.09062344139650873,-0.03807428037841496,
0.09067331670822942,-0.035986116955173945,
0.09072319201995012,-0.004379106430645995,
0.09077306733167083,-0.020939067829707187,
0.09082294264339152,-0.0034902266123370846,
0.09087281795511222,-0.003563845429228711,
0.09092269326683292,-0.00670594608509337,
0.09097256857855361,-0.007542930024156502,
0.09102244389027432,-0.026548476642482124,
0.09107231920199502,-0.000726243183085451,
0.09112219451371571,-0.0036078724135993404,
0.09117206982543641,-0.020278538487686078,
0.0912219451371571,-0.022606007281945235,
0.0912718204488778,-0.0020559544487087824,
0.09132169576059851,-0.0017476495968062992,
0.0913715710723192,-0.00045232562240506494,
0.0914214463840399,-0.007881867485990825,
0.0914713216957606,-0.0042814579108237626,
0.09152119700748129,0.009974024346077987,
0.091571072319202,-0.0015951632702503604,
0.0916209476309227,-0.012767280845367733,
0.09167082294264339,0.009393090165393591,
0.09172069825436409,0.00956468330592289,
0.09177057356608478,-0.028478269776728463,
0.09182044887780548,-0.028519990785077744,
0.09187032418952619,-0.02699060511609215,
0.09192019950124689,-0.02870499385205538,
0.09197007481296758,-0.007126675503463531,
0.09201995012468828,0.013459954617474845,
0.09206982543640897,0.0008876285223046922,
0.09211970074812968,-0.0023511574593413215,
0.09216957605985038,-0.01674453925349789,
0.09221945137157107,-0.02150632197786291,
0.09226932668329177,-0.0337745408524878,
0.09231920199501246,-0.03797689864311785,
0.09236907730673316,-0.008201122066520319,
0.09241895261845387,-0.024504296708005524,
0.09246882793017457,-0.007907892628411323,
0.09251870324189526,-0.06249554416321742,
0.09256857855361596,-0.009408072697102754,
0.09261845386533665,0.002406136710985973,
0.09266832917705736,-0.018330335445942682,
0.09271820448877806,-0.014642953568653956,
0.09276807980049875,-0.014212385235104864,
0.09281795511221945,-0.002022458853943287,
0.09286783042394015,-0.017445441839874253,
0.09291770573566084,-0.007405727545807223,
0.09296758104738155,0.002293768480991323,
0.09301745635910225,0.01993582146238061,
0.09306733167082294,0.0015595314971875388,
0.09311720698254364,-0.009332926529794044,
0.09316708229426433,-0.0023575896891223956,
0.09321695760598504,-0.011699175141225268,
0.09326683291770574,-0.010678249727931903,
0.09331670822942643,-0.034808546557110215,
0.09336658354114713,-0.01746140597819895,
0.09341645885286783,-0.038339491996371856,
0.09346633416458854,-0.01424101498959853,
0.09351620947630923,-0.016046184197700857,
0.09356608478802993,0.016353594126600524,
0.09361596009975062,0.001311293943224874,
0.09366583541147132,0.03622661539045521,
0.09371571072319201,-0.00037299733955286317,
0.09376558603491272,-0.0072440137958214275,
0.09381546134663342,0.004780678301324729,
0.09386533665835411,-0.024314852244788354,
0.09391521197007481,-0.01572409205021498,
0.0939650872817955,0.014105179477856769,
0.09401496259351622,-0.011635102435003666,
0.09406483790523691,-0.006527377657896543,
0.09411471321695761,0.003318501186538099,
0.0941645885286783,-0.04181512824820148,
0.094214463840399,-0.012026274509305487,
0.0942643391521197,-0.02294475840049191,
0.0943142144638404,0.0012250961242694612,
0.0943640897755611,-0.030370174197526627,
0.0944139650872818,-0.01002584547608066,
0.09446384039900249,-0.00026360837496953787,
0.09451371571072319,-0.018261231112100897,
0.0945635910224439,0.0028681971077144314,
0.09461346633416459,-0.013462338755266232,
0.09466334164588529,-0.019931843311167898,
0.09471321695760598,0.005607173547089536,
0.09476309226932668,-0.0022166927042237207,
0.09481296758104737,0.004727910549915412,
0.09486284289276808,0.004995315082595127,
0.09491271820448878,-0.004091608469645982,
0.09496259351620948,0.005024419607198932,
0.09501246882793017,0.004058100818538318,
0.09506234413965087,0.004184425455508836,
0.09511221945137158,-0.013078725106471885,
0.09516209476309227,-0.042630396627508504,
0.09521197007481297,-0.015319247094703333,
0.09526184538653366,-0.01577474724383003,
0.09531172069825436,0.014238616774512096,
0.09536159600997507,0.006049644666852424,
0.09541147132169576,-0.016210094244707082,
0.09546134663341646,0.007095551605215427,
0.09551122194513716,0.0013798599710875806,
0.09556109725685785,0.011647459719128232,
0.09561097256857855,-0.001661677694382497,
0.09566084788029926,0.01934675405905868,
0.09571072319201995,0.013534352152675292,
0.09576059850374065,0.006804204048849018,
0.09581047381546134,-0.023020711986593306,
0.09586034912718204,0.015834147315882917,
0.09591022443890275,0.00708711170672021,
0.09596009975062345,0.004840984793543893,
0.09600997506234414,-0.0038738597871266654,
0.09605985037406484,0.00562921046849431,
0.09610972568578553,0.020498838736738016,
0.09615960099750623,0.013725645247221889,
0.09620947630922694,0.011166233302741555,
0.09625935162094763,-0.0017498797807663424,
0.09630922693266833,0.00624836423053669,
0.09635910224438902,0.0011881007961732212,
0.09640897755610972,0.01688686216516582,
0.09645885286783043,0.020154991167505094,
0.09650872817955113,0.026080310528739277,
0.09655860349127182,0.04738950400505655,
0.09660847880299252,-0.010576792648980825,
0.09665835411471321,0.015233396706555683,
0.09670822942643391,-0.009933607023742186,
0.09675810473815462,-0.014530041353150341,
0.09680798004987531,0.024649999264825917,
0.09685785536159601,0.025403878102134504,
0.0969077306733167,-0.0062735043609823665,
0.0969576059850374,-0.005436009913069072,
0.09700748129675811,0.003079247912174529,
0.0970573566084788,0.0063557790053539575,
0.0971072319201995,0.020882695842915376,
0.0971571072319202,0.0002537132062436411,
0.0972069825436409,0.033910664592549676,
0.09725685785536159,0.017427945188716154,
0.0973067331670823,0.04132862965710005,
0.097356608478803,0.02622437516095668,
0.09740648379052369,0.04079101573273598,
0.09745635910224439,0.010136904680856613,
0.09750623441396508,0.00930653567102318,
0.09755610972568579,0.02006968766072387,
0.09760598503740649,0.022394177967335404,
0.09765586034912718,0.02148731777143572,
0.09770573566084788,0.028075611909615,
0.09775561097256857,-0.004514665223408116,
0.09780548628428928,0.022956768652755352,
0.09785536159600998,0.0340620773744013,
0.09790523690773068,-0.012574445814507264,
0.09795511221945137,0.021588684642068517,
0.09800498753117207,0.028493131941539577,
0.09805486284289276,-0.009169148072525373,
0.09810473815461347,-0.002098579891279293,
0.09815461346633417,0.0351051343709009,
0.09820448877805486,0.03292480571201195,
0.09825436408977556,0.015277225876269568,
0.09830423940149625,0.011928281187024027,
0.09835411471321696,0.02351934357109453,
0.09840399002493766,0.038686310883369976,
0.09845386533665836,0.018414207376094057,
0.09850374064837905,0.03681934550443644,
0.09855361596009975,0.02055468362408427,
0.09860349127182044,0.04201948353224405,
0.09865336658354115,0.04764286582174445,
0.09870324189526185,-0.006070076793735973,
0.09875311720698254,0.029605758988421008,
0.09880299251870324,0.02582618112726211,
0.09885286783042393,-0.0001619308752947371,
0.09890274314214464,0.016021397520901582,
0.09895261845386534,0.03591954225375453,
0.09900249376558604,0.053490423591632294,
0.09905236907730673,0.016823045671017185,
0.09910224438902743,0.018462162277991627,
0.09915211970074812,0.035748010023847435,
0.09920199501246883,0.00910265361433398,
0.09925187032418953,0.009853128129464194,
0.09930174563591022,0.03082567251066582,
0.09935162094763092,0.04678876169057396,
0.09940149625935162,0.013469889716860172,
0.09945137157107233,0.009009644052943666,
0.09950124688279302,0.03337973775096001,
0.09955112219451372,0.033784203601398805,
0.09960099750623441,0.012752030584655303,
0.09965087281795511,0.0163731221068823,
0.0997007481296758,0.04507593811702626,
0.09975062344139651,0.02273360551642467,
0.09980049875311721,0.02239943478991382,
0.0998503740648379,0.010461574782125197,
0.0999002493765586,0.01025193595874025,
0.0999501246882793,0.03744142950264412,
0.1,0.014354846160313454,
0.1000498753117207,0.021750107010110136,
0.1000997506234414,0.030863549708528875,
0.10014962593516209,0.0072970557407272575,
0.10019950124688279,0.006696906058528764,
0.1002493765586035,0.05001421561606918,
0.1002992518703242,0.02682595465052995,
0.10034912718204489,0.024653315536534093,
0.10039900249376559,0.04882859906646024,
0.10044887780548628,0.014666812377574704,
0.10049875311720698,-0.004167766588472007,
0.10054862842892769,0.033240108737983345,
0.10059850374064838,0.03639423073449771,
0.10064837905236908,0.03808934354615243,
0.10069825436408977,0.025414459891788563,
0.10074812967581047,0.01536725462682794,
0.10079800498753118,0.031726876105314716,
0.10084788029925187,0.032312277641592876,
0.10089775561097257,0.01049856160523615,
0.10094763092269327,0.021423857904513302,
0.10099750623441396,0.024902141154706993,
0.10104738154613466,0.030660994098327145,
0.10109725685785537,0.02978339972226031,
0.10114713216957606,0.0159623616180612,
0.10119700748129676,0.03462702917986634,
0.10124688279301745,0.04964631112690608,
0.10129675810473815,0.03843856192688047,
0.10134663341645886,0.007261802476692461,
0.10139650872817955,0.02284740481286604,
0.10144638403990025,-0.0020422064726043423,
0.10149625935162095,0.04283443651364235,
0.10154613466334164,0.02485277353809967,
0.10159600997506234,0.01825023003935282,
0.10164588528678305,0.05325128856311345,
0.10169576059850374,0.03053567181433446,
0.10174563591022444,0.03328051835278048,
0.10179551122194513,0.043322768533425295,
0.10184538653366583,0.012454575505294548,
0.10189526184538654,0.03619515139342316,
0.10194513715710724,0.027392935779727,
0.10199501246882793,0.029320641466816122,
0.10204488778054863,0.034536222133541135,
0.10209476309226932,0.024384707309795983,
0.10214463840399003,0.021766958374124335,
0.10219451371571073,-0.012866965893884235,
0.10224438902743142,0.021874764018031866,
0.10229426433915212,0.022764203945958197,
0.10234413965087281,0.0097791897546851,
0.10239401496259351,0.017441629144111827,
0.10244389027431422,0.027042491295505285,
0.10249376558603492,-0.0016580744366032595,
0.10254364089775561,0.00973477306200142,
0.10259351620947631,0.02044829342529241,
0.102643391521197,0.0100008796145848,
0.10269326683291771,0.014961164157074778,
0.10274314214463841,0.02291792146190148,
0.1027930174563591,0.013296564069436065,
0.1028428927680798,0.002107335620759175,
0.1028927680798005,0.05109536673290675,
0.10294264339152119,0.013360125669240308,
0.1029925187032419,0.011643834658107885,
0.1030423940149626,0.03512019047862346,
0.10309226932668329,0.04329922873136107,
0.10314214463840399,0.034066585240118796,
0.10319201995012468,0.035017709536585076,
0.10324189526184539,0.03854885665800964,
0.10329177057356609,0.021537786358560237,
0.10334164588528678,0.04304405002512292,
0.10339152119700748,0.019949378678470242,
0.10344139650872818,0.02438301285380285,
0.10349127182044887,0.01926028726462375,
0.10354114713216958,0.05486036464189538,
0.10359102244389028,0.019968188752228604,
0.10364089775561097,0.01170570132401144,
0.10369077306733167,0.04427808745794366,
0.10374064837905236,0.02601825017243441,
0.10379052369077307,0.006018271861266938,
0.10384039900249377,-0.011809874777862259,
0.10389027431421446,0.04789730043808962,
0.10394014962593516,0.013610550439762267,
0.10399002493765586,0.0032119768145550884,
0.10403990024937655,0.005587542996787003,
0.10408977556109726,0.019643383986323575,
0.10413965087281796,0.010955464418944348,
0.10418952618453865,-0.011760050995263123,
0.10423940149625935,0.009993461905171567,
0.10428927680798004,-0.005849181345796595,
0.10433915211970075,0.031019932130594088,
0.10438902743142145,0.03380890657195143,
0.10443890274314215,0.004048294992848643,
0.10448877805486284,-0.0006864579076697463,
0.10453865336658354,-0.00031560565405867533,
0.10458852867830425,0.014138798122426962,
0.10463840399002494,0.007701814487439909,
0.10468827930174564,0.037113126993309986,
0.10473815461346633,0.056236775560947395,
0.10478802992518703,0.0386034363134316,
0.10483790523690772,0.010404489787919797,
0.10488778054862843,-0.0026794295116643364,
0.10493765586034913,0.035414230805860925,
0.10498753117206983,0.01776058291763417,
0.10503740648379052,0.02808799840318562,
0.10508728179551122,0.002110094110758654,
0.10513715710723193,0.010458431121026152,
0.10518703241895262,0.010421142608944604,
0.10523690773067332,0.0002775926768130519,
0.10528678304239401,0.03441430803264847,
0.10533665835411471,0.0017845580615777502,
0.1053865336658354,0.003715265378716673,
0.10543640897755611,0.0036126688426951128,
0.10548628428927681,-0.0008161084829192942,
0.1055361596009975,0.03077770874368941,
0.1055860349127182,0.021136662767666556,
0.1056359102244389,0.01169464089414121,
0.10568578553615961,-0.005640615003468777,
0.1057356608478803,0.0012500825141810931,
0.105785536159601,0.025751900985957053,
0.1058354114713217,0.01977390511926648,
0.10588528678304239,0.045156914600484134,
0.10593516209476309,-0.0008735782782976157,
0.1059850374064838,0.006111850153842149,
0.10603491271820449,0.010734330669126173,
0.10608478802992519,0.016477131247627883,
0.10613466334164588,0.019290112923539448,
0.10618453865336658,0.027165957498440026,
0.10623441396508729,0.02331531635914266,
0.10628428927680798,0.03553253582986487,
0.10633416458852868,0.012984304993678185,
0.10638403990024937,0.015977185659049164,
0.10643391521197007,-0.02561961757585194,
0.10648379052369077,-0.031163557649985473,
0.10653366583541148,0.005412918663404434,
0.10658354114713217,0.01804310194523105,
0.10663341645885287,0.006941497624288723,
0.10668329177057356,-0.010939096072088966,
0.10673316708229426,0.003481359112201845,
0.10678304239401497,0.0028681495814492806,
0.10683291770573566,0.010211745615024732,
0.10688279301745636,0.013657646851952473,
0.10693266832917706,0.003987221017663058,
0.10698254364089775,0.009363246100094542,
0.10703241895261846,-0.028351003928814393,
0.10708229426433916,0.007089481683586161,
0.10713216957605985,-0.01793304230058107,
0.10718204488778055,-0.018423658456359,
0.10723192019950124,0.01605892935093541,
0.10728179551122194,-0.0048067255516353125,
0.10733167082294265,0.015068251720753961,
0.10738154613466334,-0.0026118886839149435,
0.10743142144638404,0.020039886836595213,
0.10748129675810474,0.012003345000653219,
0.10753117206982543,-0.006988177240442458,
0.10758104738154614,-0.02753411317653187,
0.10763092269326684,-0.010806750763926253,
0.10768079800498753,0.02295781627432581,
0.10773067331670823,-0.003606844156925166,
0.10778054862842892,-0.02227945231358812,
0.10783042394014962,-0.017004601650806403,
0.10788029925187033,-0.006348772104375802,
0.10793017456359102,-0.01768237226273922,
0.10798004987531172,-0.006490998420364023,
0.10802992518703242,0.015258783641407286,
0.10807980049875311,0.012720587355710028,
0.10812967581047382,-0.005912325534678976,
0.10817955112219452,0.006521690593776136,
0.10822942643391521,-0.01648963851053338,
0.10827930174563591,0.02508259018401525,
0.1083291770573566,-0.009180858050761855,
0.1083790523690773,0.008007726439307014,
0.10842892768079801,0.032336244701808174,
0.1084788029925187,-0.014334473873536578,
0.1085286783042394,-0.0029923371571084732,
0.1085785536159601,0.01358493192441754,
0.10862842892768079,-0.011379297880955097,
0.1086783042394015,-0.024638588161459807,
0.1087281795511222,0.008915542781167962,
0.1087780548628429,0.01981533480069308,
0.10882793017456359,0.0069344907610952924,
0.10887780548628428,0.00976211044509019,
0.108927680798005,0.0005090105164509869,
0.10897755610972569,-0.015889397329264643,
0.10902743142144639,0.007552418833415536,
0.10907730673316708,0.002316025595399675,
0.10912718204488778,0.007504403528487288,
0.10917705735660847,-0.03419523897081937,
0.10922693266832918,-0.012933069480796276,
0.10927680798004988,-0.005546411661496067,
0.10932668329177057,-0.018582477193230376,
0.10937655860349127,-0.016760932324548387,
0.10942643391521197,0.00041693066620178236,
0.10947630922693267,-0.012638454862953931,
0.10952618453865337,-0.009951551147090232,
0.10957605985037407,-0.010312285582838629,
0.10962593516209476,-0.014440144998543717,
0.10967581047381546,-0.03305512258344044,
0.10972568578553615,-0.029194548156475188,
0.10977556109725686,-0.03636026762176248,
0.10982543640897756,0.014733583580173005,
0.10987531172069825,-0.035469578176800035,
0.10992518703241895,-0.012260932578177588,
0.10997506234413965,0.008725935100603,
0.11002493765586036,-0.026246050356039274,
0.11007481296758105,-0.005465855504781695,
0.11012468827930175,0.004691734470527932,
0.11017456359102244,-0.0052100758834460635,
0.11022443890274314,0.004960685986548641,
0.11027431421446383,-0.016932947188221865,
0.11032418952618454,0.0023785469753295208,
0.11037406483790524,-0.004420255568235893,
0.11042394014962593,0.004562229154534594,
0.11047381546134663,0.0031986588890496413,
0.11052369077306733,0.007449205609583712,
0.11057356608478804,0.0027286483176995665,
0.11062344139650873,0.0065080590078092256,
0.11067331670822943,0.015855498045633187,
0.11072319201995012,0.0004252644914483645,
0.11077306733167082,-0.02882092049939506,
0.11082294264339151,0.02692188341822275,
0.11087281795511222,-0.0381336907583331,
0.11092269326683292,-0.019673693483489976,
0.11097256857855362,0.01129102563659279,
0.11102244389027431,-0.018782675686334682,
0.111072319201995,-0.008891177765783976,
0.11112219451371572,-0.024510759620499395,
0.11117206982543641,-0.014992690973813588,
0.11122194513715711,-0.003108598410021649,
0.1112718204488778,-0.016774148316418887,
0.1113216957605985,-0.024867642802408406,
0.11137157107231921,-0.04307192098955779,
0.1114214463840399,-0.01520446892885688,
0.1114713216957606,-0.019944822016759588,
0.1115211970074813,-0.02287141946703978,
0.11157107231920199,-0.011585824481682487,
0.11162094763092269,0.0018074725043774227,
0.1116708229426434,-0.013744961298275994,
0.11172069825436409,-0.028218026044037094,
0.11177057356608479,-0.031183000469741224,
0.11182044887780548,-0.013081349057089414,
0.11187032418952618,-0.013785232049165451,
0.11192019950124689,0.002411154444578619,
0.11197007481296758,0.01102800863157286,
0.11201995012468828,0.0037781626883373973,
0.11206982543640898,-0.0050604579351573205,
0.11211970074812967,0.004797160823850155,
0.11216957605985037,-0.016679904875050895,
0.11221945137157108,-0.008554199370260746,
0.11226932668329177,-0.024033238458923068,
0.11231920199501247,0.005241479733234777,
0.11236907730673316,-0.026726274218801194,
0.11241895261845386,-0.023924503004358375,
0.11246882793017457,-0.010035665057487438,
0.11251870324189527,-0.025009689615034678,
0.11256857855361596,0.006890571051235689,
0.11261845386533666,-0.025197510664734177,
0.11266832917705735,0.0062642830822847734,
0.11271820448877805,0.0128905954308901,
0.11276807980049876,-0.00314432112075026,
0.11281795511221945,-0.01236640667131686,
0.11286783042394015,-0.00748129712477359,
0.11291770573566084,-0.013802793204135964,
0.11296758104738154,0.021354113464651082,
0.11301745635910225,-0.03255147116829208,
0.11306733167082295,-0.006589053265052179,
0.11311720698254364,-0.024754138060639887,
0.11316708229426434,-0.018477185154175957,
0.11321695760598503,0.00013775155110289962,
0.11326683291770574,-0.01177415779417597,
0.11331670822942644,-0.00543171602686607,
0.11336658354114713,-0.014061153091090888,
0.11341645885286783,-0.021972067384103823,
0.11346633416458853,0.01795109052376786,
0.11351620947630922,-0.008849198202356832,
0.11356608478802993,-0.020939653894466975,
0.11361596009975063,0.0013295803046050846,
0.11366583541147132,0.013742661389796658,
0.11371571072319202,0.0027134304494052,
0.11376558603491271,-0.0209888730298968,
0.11381546134663342,0.00891693004013688,
0.11386533665835412,-0.006364655155669476,
0.11391521197007481,-0.01220195996125974,
0.11396508728179551,-0.02955122156006488,
0.1140149625935162,0.032771317562825475,
0.1140648379052369,0.03767716767294621,
0.11411471321695761,0.0062655042179335894,
0.1141645885286783,-0.019829420020120312,
0.114214463840399,-0.0019532907049746584,
0.1142643391521197,-0.01484317177791002,
0.1143142144638404,-0.00828900530261483,
0.1143640897755611,0.024300798595926904,
0.1144139650872818,0.02409782777934192,
0.1144638403990025,0.005251006828632487,
0.11451371571072319,-0.01493524632019394,
0.11456359102244389,-0.01033010878125582,
0.11461346633416458,0.003568321494782342,
0.11466334164588529,-0.004691773384378732,
0.11471321695760599,-0.01401389231116887,
0.11476309226932668,-0.01445773038226171,
0.11481296758104738,0.01753737912992001,
0.11486284289276807,-0.00034266404170059633,
0.11491271820448878,0.018939956368872475,
0.11496259351620948,-0.0002458081677333714,
0.11501246882793018,0.0026443554868875244,
0.11506234413965087,0.01684817468703529,
0.11511221945137157,-0.018632034756724675,
0.11516209476309226,-0.018296961511407667,
0.11521197007481297,0.021850946034228866,
0.11526184538653367,-0.0012010094194236302,
0.11531172069825436,-0.013130058315722466,
0.11536159600997506,0.027136195981257792,
0.11541147132169575,0.0038701845199575237,
0.11546134663341646,-0.02299129780897988,
0.11551122194513716,0.01878825249057401,
0.11556109725685786,-0.0006788296852235703,
0.11561097256857855,-0.007817197118988341,
0.11566084788029925,-0.016087126648145725,
0.11571072319201996,-0.013329007370410933,
0.11576059850374065,0.011894025975312984,
0.11581047381546135,-0.0002416037881112854,
0.11586034912718204,0.020025921355933674,
0.11591022443890274,0.04246012874558884,
0.11596009975062344,0.00428131769097897,
0.11600997506234415,0.013915548028515306,
0.11605985037406484,0.0377602978932485,
0.11610972568578554,0.013325679872752575,
0.11615960099750623,0.010295675481148986,
0.11620947630922693,0.009886357020109472,
0.11625935162094764,0.013415179435792117,
0.11630922693266833,0.017908731366052914,
0.11635910224438903,0.028839237520627725,
0.11640897755610972,-0.02278716728776469,
0.11645885286783042,0.025233744961995826,
0.11650872817955112,-0.001170951035852857,
0.11655860349127183,0.022842302689544187,
0.11660847880299252,-0.0025227692810065577,
0.11665835411471322,0.017151606086902946,
0.11670822942643391,0.009165415008234177,
0.11675810473815461,0.03434223295243189,
0.11680798004987532,0.01573737696340774,
0.11685785536159601,0.008491031927456861,
0.11690773067331671,0.0033519804709538185,
0.1169576059850374,-0.010641254594455238,
0.1170074812967581,0.01878109540837345,
0.1170573566084788,0.0008350732520193086,
0.1171072319201995,0.0227758520673705,
0.1171571072319202,-0.010507859670099833,
0.1172069825436409,0.017522746267969423,
0.1172568578553616,0.024302232437277027,
0.11730673316708229,0.03481543845052476,
0.117356608478803,0.03547344337511191,
0.1174064837905237,-0.004221087409456519,
0.11745635910224439,0.010067173373191522,
0.11750623441396509,0.0010357323900092603,
0.11755610972568578,0.023204376210885145,
0.11760598503740648,0.011724707870695709,
0.11765586034912719,0.012196879440837671,
0.11770573566084788,0.03022782077003422,
0.11775561097256858,0.018648862725647457,
0.11780548628428927,0.039551718253589864,
0.11785536159600997,0.025750365378283818,
0.11790523690773068,0.019026549288671486,
0.11795511221945137,0.015848069998283906,
0.11800498753117207,0.03133756149778016,
0.11805486284289277,0.011858552157824099,
0.11810473815461346,0.021881370615603843,
0.11815461346633417,0.02048870622892293,
0.11820448877805487,0.005391881887971265,
0.11825436408977556,0.012831319762371132,
0.11830423940149626,0.017701323438800695,
0.11835411471321695,0.024238288097133114,
0.11840399002493765,0.038064253523936595,
0.11845386533665836,0.0224736792975592,
0.11850374064837906,0.03315965657764848,
0.11855361596009975,0.02003820004532233,
0.11860349127182045,0.01191164535163313,
0.11865336658354114,0.04567458466696227,
0.11870324189526185,0.014279347204249402,
0.11875311720698255,0.03790598195106132,
0.11880299251870324,0.01735776161376962,
0.11885286783042394,0.016005405729662088,
0.11890274314214463,0.0405087619692547,
0.11895261845386533,0.039040031215143475,
0.11900249376558604,0.013948632219837425,
0.11905236907730674,0.04252145745129486,
0.11910224438902743,0.02990126383586826,
0.11915211970074813,0.029666493560344696,
0.11920199501246882,0.03177916999973048,
0.11925187032418953,0.04054863237546635,
0.11930174563591023,0.049325449046742756,
0.11935162094763092,0.012899413011447371,
0.11940149625935162,0.043085187099681004,
0.11945137157107232,0.04802707004071455,
0.11950124688279301,0.004709743324173704,
0.11955112219451372,0.026624060275397942,
0.11960099750623442,0.03471037726385012,
0.11965087281795511,0.041312879931208316,
0.11970074812967581,0.019508117020857106,
0.1197506234413965,0.007833905694259218,
0.11980049875311721,0.01403684608771704,
0.11985037406483791,0.009803207934094404,
0.1199002493765586,0.01859514268749311,
0.1199501246882793,0.025520045196395304,
0.12,0.04717773366483768,
0.1200498753117207,0.011330318691211098,
0.1200997506234414,0.03440168984393231,
0.1201496259351621,0.04674791457994902,
0.12019950124688279,0.007221803669984185,
0.12024937655860349,0.022085152446356407,
0.12029925187032418,0.024718160882217056,
0.1203491271820449,0.03423412155767825,
0.12039900249376559,0.013023908284350565,
0.12044887780548628,0.034791350955485835,
0.12049875311720698,0.061521687059574025,
0.12054862842892768,0.024043169567608966,
0.12059850374064839,0.04277309251960213,
0.12064837905236908,0.019897766388907785,
0.12069825436408978,0.04326003212270432,
0.12074812967581047,0.029035606332157522,
0.12079800498753117,0.04572798955259168,
0.12084788029925186,0.06129623676470802,
0.12089775561097257,0.04017675073114429,
0.12094763092269327,0.02875724851289931,
0.12099750623441397,0.0028974219750930175,
0.12104738154613466,0.02670930007524546,
0.12109725685785536,0.03024585106435584,
0.12114713216957607,0.05574153022621338,
0.12119700748129676,0.03210051847215337,
0.12124688279301746,0.016323642839217938,
0.12129675810473815,0.04685602920032128,
0.12134663341645885,0.030312247959827444,
0.12139650872817954,0.03461215768276971,
0.12144638403990025,0.03059033345369691,
0.12149625935162095,0.03168458830578149,
0.12154613466334165,0.03873903302802043,
0.12159600997506234,0.036643029467653535,
0.12164588528678304,0.039836167435956304,
0.12169576059850375,0.014664779295240921,
0.12174563591022444,0.03792047825273647,
0.12179551122194514,0.033414210672987665,
0.12184538653366583,0.002732448789111417,
0.12189526184538653,0.008397466793161248,
0.12194513715710723,0.03861607837040509,
0.12199501246882793,0.013734979825188495,
0.12204488778054863,0.025115928435348444,
0.12209476309226933,0.029437140724513935,
0.12214463840399002,0.01228002083235831,
0.12219451371571072,0.016026950795854894,
0.12224438902743143,0.03791210712636082,
0.12229426433915212,0.041135233139540664,
0.12234413965087282,0.03594989873504086,
0.12239401496259351,0.007346397820691533,
0.12244389027431421,0.030506475066788986,
0.12249376558603492,0.025388696740593103,
0.12254364089775562,0.03735910457432273,
0.12259351620947631,0.018530067719615538,
0.122643391521197,0.021311666766741993,
0.1226932668329177,-0.006580811684593228,
0.1227431421446384,0.013636237151641216,
0.12279301745635911,0.01778015587512518,
0.1228428927680798,-0.006230063596576248,
0.1228927680798005,0.0010550066281952916,
0.1229426433915212,0.0333819164190716,
0.12299251870324189,0.052297495429889804,
0.1230423940149626,0.022306487837785025,
0.1230922693266833,0.012147438277417462,
0.12314214463840399,0.01787438992417275,
0.12319201995012469,0.04821059592806892,
0.12324189526184538,0.019747054648673216,
0.12329177057356608,0.04389392626410368,
0.12334164588528679,0.04614236253339389,
0.12339152119700748,0.031639004275772056,
0.12344139650872818,0.02845042293659587,
0.12349127182044888,0.022694663480935958,
0.12354114713216957,0.012152842649408241,
0.12359102244389028,0.032793008011985765,
0.12364089775561098,0.008657170029380972,
0.12369077306733167,0.028433888906566913,
0.12374064837905237,0.042213551585060856,
0.12379052369077306,0.02314197805514184,
0.12384039900249376,0.02338814665700462,
0.12389027431421447,0.0238453465214453,
0.12394014962593516,-0.009615543158378499,
0.12399002493765586,0.022998524146961165,
0.12403990024937656,0.028919613142392577,
0.12408977556109725,0.007802978207801537,
0.12413965087281796,0.02903079950282616,
0.12418952618453866,0.03491655592928514,
0.12423940149625935,0.01951056830149231,
0.12428927680798005,0.020416379481714278,
0.12433915211970074,0.03213134689240769,
0.12438902743142144,-0.008012812496770948,
0.12443890274314215,0.050384658821791925,
0.12448877805486284,0.001974556790444025,
0.12453865336658354,0.02778822669701153,
0.12458852867830424,-0.012633389899462548,
0.12463840399002493,0.029798231489049455,
0.12468827930174564,0.0335986038897704,
0.12473815461346634,0.014159321930501428,
0.12478802992518703,0.033812267669064075,
0.12483790523690773,0.009166446130712946,
0.12488778054862842,0.043984003990517447,
0.12493765586034913,0.039114422391641424,
0.12498753117206983,0.024875339537553685,
0.12503740648379053,0.0044848680066384965,
0.12508728179551123,0.0070115253956235905,
0.12513715710723192,0.015563099729789887,
0.12518703241895263,0.003952263144834184,
0.1252369077306733,-0.0048713162616657885,
0.12528678304239402,0.008992295999075771,
0.1253366583541147,-0.0034997682909529843,
0.1253865336658354,-0.011756642487821121,
0.12543640897755612,0.011251849880693457,
0.1254862842892768,0.03791202028641842,
0.1255361596009975,-0.009659722990906375,
0.1255860349127182,-0.0047813952037202186,
0.1256359102244389,0.026999820447915872,
0.1256857855361596,1.5758697752697032e-05,
0.1257356608478803,-0.02065886874997161,
0.125785536159601,0.024541825473354782,
0.12583541147132168,0.0014628753876389892,
0.1258852867830424,0.015888534701173823,
0.1259351620947631,-0.003981528076819219,
0.12598503740648379,-0.03169054119202226,
0.1260349127182045,-0.004903576985029797,
0.12608478802992518,0.031706010742356336,
0.1261346633416459,0.014287805014563277,
0.1261845386533666,0.001801681841242915,
0.12623441396508728,0.007987712359872607,
0.126284289276808,-0.005064453142472747,
0.12633416458852867,0.007233459304657446,
0.12638403990024938,0.02066494010725565,
0.1264339152119701,0.018136286483009745,
0.12648379052369077,-0.005683778273990551,
0.12653366583541148,0.021778063751634852,
0.12658354114713216,-0.010848497779256528,
0.12663341645885287,-0.012369226336678734,
0.12668329177057355,0.007287920257312402,
0.12673316708229426,0.014252056646777905,
0.12678304239401497,0.04079086329280038,
0.12683291770573565,0.014748055657790533,
0.12688279301745636,0.026463163608046382,
0.12693266832917705,0.028257897890961975,
0.12698254364089775,0.016074153696553548,
0.12703241895261846,0.046697130842958415,
0.12708229426433915,0.03766129871477976,
0.12713216957605986,-0.0010723631407494718,
0.12718204488778054,-0.01592016113337428,
0.12723192019950125,0.010971629833862882,
0.12728179551122196,-0.02073411092945785,
0.12733167082294264,-0.01153103740260491,
0.12738154613466335,0.011475624120906011,
0.12743142144638403,-0.010065358683517427,
0.12748129675810474,0.010813410784620382,
0.12753117206982545,0.018054840413434206,
0.12758104738154613,-0.021466063550583087,
0.12763092269326684,0.03582300721915708,
0.12768079800498752,-0.008016781522776208,
0.12773067331670823,-0.006174142068867272,
0.1277805486284289,0.0032824407737336706,
0.12783042394014962,-0.02145307227311355,
0.12788029925187033,-0.018235617231320916,
0.12793017456359101,-0.013093394166447102,
0.12798004987531172,0.02880432760785214,
0.1280299251870324,0.013678891146460896,
0.12807980049875312,-0.011739436781654717,
0.12812967581047383,0.03247797468770759,
0.1281795511221945,-0.004980099385450068,
0.12822942643391522,0.02982341790614431,
0.1282793017456359,0.006133271929820475,
0.1283291770573566,0.02472224585756381,
0.12837905236907732,0.007857216048612635,
0.128428927680798,0.026697423043352507,
0.1284788029925187,0.024256739188674194,
0.1285286783042394,-0.02866324162320131,
0.1285785536159601,0.010132063070451797,
0.1286284289276808,0.007615549608413333,
0.1286783042394015,-0.006198188664004369,
0.1287281795511222,-0.021066547516452795,
0.12877805486284288,-0.021261054858487,
0.1288279301745636,0.0042683393012678365,
0.1288778054862843,0.004592161080951212,
0.12892768079800498,-0.010287305844260491,
0.1289775561097257,0.01679421125479793,
0.12902743142144638,-0.0035123310130143583,
0.12907730673316709,0.0038896892620610395,
0.12912718204488777,-0.0020590412207883825,
0.12917705735660848,-0.0032852066379217013,
0.1292269326683292,-0.049341979535145276,
0.12927680798004987,-0.016828942500632903,
0.12932668329177058,0.0033553976121752545,
0.12937655860349126,-0.003700325852959394,
0.12942643391521197,0.0045465927215752825,
0.12947630922693268,-0.013623421826299607,
0.12952618453865336,0.013158190317883735,
0.12957605985037407,-0.009375020296470055,
0.12962593516209475,-0.004505011013499885,
0.12967581047381546,-0.011116697880805226,
0.12972568578553617,-0.002394057903011145,
0.12977556109725685,-0.007969521101358226,
0.12982543640897756,-0.009631265327072995,
0.12987531172069824,-0.023714703576489762,
0.12992518703241895,-0.013279747621959739,
0.12997506234413966,-0.014754592592805264,
0.13002493765586035,-0.02061048671956177,
0.13007481296758105,0.00605436127088582,
0.13012468827930174,-0.019164243465877157,
0.13017456359102245,-0.027051581531884597,
0.13022443890274316,0.012911069548935238,
0.13027431421446384,-0.04141297605349629,
0.13032418952618455,0.00043274309428570183,
0.13037406483790523,-0.004189919589673489,
0.13042394014962594,0.00734744602183994,
0.13047381546134662,-0.020747929159822757,
0.13052369077306733,-0.008306840608010275,
0.13057356608478804,-0.014892756662298837,
0.13062344139650872,-0.04994136395760222,
0.13067331670822943,-0.027033592510344248,
0.1307231920199501,0.0016220814693365011,
0.13077306733167082,0.00846936749297321,
0.13082294264339153,-0.004206236986192471,
0.13087281795511221,-0.004484633005134587,
0.13092269326683292,-0.0274242322708943,
0.1309725685785536,0.0015136148721259738,
0.13102244389027431,-0.034289279752833315,
0.13107231920199502,0.003775403312983429,
0.1311221945137157,-0.022408151966979033,
0.13117206982543642,-0.010787969785069703,
0.1312219451371571,0.0014595243874073703,
0.1312718204488778,-0.018069264323781593,
0.13132169576059852,-0.007600609242432978,
0.1313715710723192,0.0071360945027782435,
0.1314214463840399,-0.03201520918246355,
0.1314713216957606,0.01985258185323186,
0.1315211970074813,-0.013744823440086198,
0.13157107231920198,-0.03529458938302115,
0.1316209476309227,-0.034187709472394565,
0.1316708229426434,0.002547062146983005,
0.13172069825436408,-0.03439531977686969,
0.1317705735660848,0.014195795508593347,
0.13182044887780547,-0.0033935106723810586,
0.13187032418952618,-0.031132173436921692,
0.1319201995012469,-0.008732648112626739,
0.13197007481296757,0.007273890132695525,
0.13201995012468828,-0.023866904612523984,
0.13206982543640897,-0.011896352341033884,
0.13211970074812968,-0.01941512622536016,
0.13216957605985039,-0.022442685685652386,
0.13221945137157107,-0.005727056360026211,
0.13226932668329178,-0.012787915128232276,
0.13231920199501246,0.0015161462089322755,
0.13236907730673317,-0.013725527791660815,
0.13241895261845388,0.01956598398526694,
0.13246882793017456,-0.001453690172198591,
0.13251870324189527,0.002664277611221729,
0.13256857855361595,-0.02224083647473317,
0.13261845386533666,-0.012104399790782993,
0.13266832917705737,-0.006942927335617729,
0.13271820448877805,-0.024793070578148287,
0.13276807980049876,-0.028375507380987285,
0.13281795511221944,-0.007551113057969025,
0.13286783042394015,-0.021918231562111708,
0.13291770573566083,0.004101880420810746,
0.13296758104738154,-0.010133883850024304,
0.13301745635910225,0.017541299757112702,
0.13306733167082294,-0.01971435207909473,
0.13311720698254365,-0.004575207545832756,
0.13316708229426433,-0.024688231750192927,
0.13321695760598504,0.02639502220051859,
0.13326683291770575,-0.023062971353165262,
0.13331670822942643,-0.023864998267126087,
0.13336658354114714,-0.01391441061497083,
0.13341645885286782,0.013929880777745953,
0.13346633416458853,0.0034445508264009054,
0.13351620947630924,-0.0008679297514835134,
0.13356608478802992,-0.0007918083896002728,
0.13361596009975063,-0.013906215477706395,
0.1336658354114713,-0.023069961857708106,
0.13371571072319202,-0.022816295723585837,
0.13376558603491273,0.005445143971411562,
0.1338154613466334,0.005326146749983373,
0.13386533665835412,-0.011803304826835753,
0.1339152119700748,-0.024534164175913677,
0.13396508728179551,0.003439871833812779,
0.1340149625935162,-0.005899864861532813,
0.1340648379052369,0.007762460920364089,
0.13411471321695762,-0.00239812047410545,
0.1341645885286783,-0.010648531683890317,
0.134214463840399,-0.021092227833964916,
0.1342643391521197,-0.0210440860838117,
0.1343142144638404,-0.018547212221500714,
0.1343640897755611,-0.025444448214080165,
0.1344139650872818,0.0047749825283642635,
0.1344638403990025,0.0013953269920313973,
0.13451371571072318,0.0052251668967776155,
0.1345635910224439,0.0036911675798097674,
0.1346134663341646,0.0004773613480172268,
0.13466334164588528,0.00047053058788996954,
0.134713216957606,0.0002237083279534232,
0.13476309226932667,-0.0010921268408947307,
0.13481296758104738,-0.0014772150149089257,
0.1348628428927681,-0.010187495319388624,
0.13491271820448877,0.021031787834819172,
0.13496259351620948,0.019209612095874077,
0.13501246882793017,-0.011813236895697674,
0.13506234413965088,-0.024524884099708072,
0.13511221945137158,-0.017205561928306953,
0.13516209476309227,-0.008767322364845558,
0.13521197007481298,0.013789792821913695,
0.13526184538653366,-0.011828249653851826,
0.13531172069825437,0.013241238748538362,
0.13536159600997505,-0.007170901193867699,
0.13541147132169576,0.012716987533424533,
0.13546134663341647,0.024376455119286218,
0.13551122194513715,0.014124539818558674,
0.13556109725685786,0.0010104168629089458,
0.13561097256857854,-0.020828784271742454,
0.13566084788029925,-0.004997356061545623,
0.13571072319201996,-0.007240334569852144,
0.13576059850374064,0.017196609550576558,
0.13581047381546135,0.024900501277085423,
0.13586034912718203,0.02570804845106204,
0.13591022443890274,-0.03536980294097747,
0.13596009975062345,-0.0031356554077094367,
0.13600997506234414,-0.006350850809822558,
0.13605985037406484,0.02380582091615363,
0.13610972568578553,0.036780139061060896,
0.13615960099750624,-0.012401433230021009,
0.13620947630922695,0.015442949509057512,
0.13625935162094763,0.03755824071915406,
0.13630922693266834,0.008821505081668278,
0.13635910224438902,0.032972008044605775,
0.13640897755610973,0.028239394045186474,
0.1364588528678304,-0.0045894443566572695,
0.13650872817955112,0.027073418450553673,
0.13655860349127183,-0.004116419912513365,
0.1366084788029925,0.010689905382158025,
0.13665835411471322,-0.0017010467371439183,
0.1367082294264339,0.009634542138549002,
0.1367581047381546,0.004279043135351421,
0.13680798004987532,0.014577532042179688,
0.136857855361596,0.009598094710681841,
0.1369077306733167,0.03929249047332944,
0.1369576059850374,0.020151736888580223,
0.1370074812967581,-0.009924056464060345,
0.13705735660847881,0.016465385691791234,
0.1371072319201995,0.006304557276897662,
0.1371571072319202,0.039338608068183734,
0.1372069825436409,0.012139841123297995,
0.1372568578553616,0.008178539580582423,
0.1373067331670823,0.0038746707725616798,
0.137356608478803,-0.002395380777957236,
0.1374064837905237,7.224659223857566e-05,
0.13745635910224438,0.039265392752951184,
0.1375062344139651,0.00931021324837026,
0.1375561097256858,0.019439829469444364,
0.13760598503740648,0.023879661233766086,
0.1376558603491272,0.04843982878233397,
0.13770573566084787,-0.010607448042204953,
0.13775561097256858,-0.016563526638974552,
0.13780548628428926,0.02483541307955154,
0.13785536159600997,0.03063990210183829,
0.13790523690773068,0.02366547009712001,
0.13795511221945136,0.01639224743009228,
0.13800498753117207,0.013469155569770758,
0.13805486284289276,0.00781441101050747,
0.13810473815461347,0.016776548209797116,
0.13815461346633418,0.0202680261614843,
0.13820448877805486,0.010468491395451446,
0.13825436408977557,0.023558463984846567,
0.13830423940149625,0.02253432606759522,
0.13835411471321696,0.031035807297999145,
0.13840399002493767,0.03589734075178063,
0.13845386533665835,0.01857904035030289,
0.13850374064837906,0.010915983208568148,
0.13855361596009974,0.03931564906693283,
0.13860349127182045,0.036734929026772056,
0.13865336658354116,0.020061323254007304,
0.13870324189526184,0.016078819765639154,
0.13875311720698255,0.02779871835608562,
0.13880299251870323,0.026196038359570246,
0.13885286783042394,0.028598470330698983,
0.13890274314214462,0.027168733528681887,
0.13895261845386533,0.035779080903318494,
0.13900249376558604,0.026061265022616992,
0.13905236907730673,0.04724375601276219,
0.13910224438902744,0.03493196590488187,
0.13915211970074812,0.024776062121950042,
0.13920199501246883,0.02654327280899511,
0.13925187032418954,0.039933574932839395,
0.13930174563591022,0.05875316957805453,
0.13935162094763093,0.050159180368202515,
0.1394014962593516,0.024686832172923057,
0.13945137157107232,0.0047387310355408024,
0.13950124688279303,0.030935867296565583,
0.1395511221945137,0.038365276497712875,
0.13960099750623442,0.027690233907248007,
0.1396508728179551,0.02099214448671921,
0.1397007481296758,0.039349361705762295,
0.13975062344139652,0.017414448092084367,
0.1398004987531172,0.009011074201097487,
0.1398503740648379,0.04494786209924223,
0.1399002493765586,0.012655418451634187,
0.1399501246882793,-0.009451877580110672,
0.14,0.029521689558042106,
0.1400498753117207,0.03862809749490062,
0.1400997506234414,0.047213763293188424,
0.1401496259351621,0.01800330774485477,
0.1401995012468828,0.04117708321216558,
0.14024937655860348,0.03379668404305491,
0.1402992518703242,0.012507155565835312,
0.1403491271820449,0.014494926747619716,
0.14039900249376558,0.015450040898472931,
0.1404488778054863,0.0065592039408355375,
0.14049875311720697,0.020659142521334183,
0.14054862842892768,0.03637944879351706,
0.1405985037406484,0.017035306133499094,
0.14064837905236907,0.04330771231129488,
0.14069825436408978,0.03851973282130429,
0.14074812967581046,0.021106042790085773,
0.14079800498753117,0.03717284006508525,
0.14084788029925188,0.022357281803983664,
0.14089775561097256,0.02602297037091008,
0.14094763092269327,0.035994663882768355,
0.14099750623441396,0.03702028481780365,
0.14104738154613466,0.018656834884359014,
0.14109725685785537,0.013192789834829986,
0.14114713216957606,0.00700526067386896,
0.14119700748129677,0.02337516104233509,
0.14124688279301745,0.03344030523454434,
0.14129675810473816,0.015689798140531373,
0.14134663341645887,0.030206338564840167,
0.14139650872817955,0.04674117266687691,
