time,amplitude,label
0.0,-0.01862948957644795,
4.987531172069826e-05,-0.031225712780284465,
9.975062344139652e-05,0.001898228640793368,
0.00014962593516209475,0.005997715459927663,
0.00019950124688279303,-0.016547746491869877,
0.00024937655860349125,-0.016470032725895336,
0.0002992518703241895,-0.0005105449680651783,
0.00034912718204488776,-0.010665543238462312,
0.00039900249376558606,-0.05148414167762872,
0.0004488778054862843,-0.021134009616466897,
0.0004987531172069825,-0.006959987900463236,
0.0005486284289276808,-0.02870231922527713,
0.000598503740648379,-0.013803010872420073,
0.0006483790523690773,-0.027949362173886664,
0.0006982543640897755,0.002079813016917568,
0.0007481296758104738,-0.01156160727617753,
0.0007980049875311721,0.011354214100703409,
0.0008478802992518703,-0.0011209885073827051,
0.0008977556109725686,-0.028616418167651266,
0.0009476309226932668,-0.006898755162725591,
0.000997506234413965,-0.0020255546620966854,
0.0010473815461346633,-0.0330576380802654,
0.0010972568578553616,-0.04387781905062965,
0.00114713216957606,-0.01580601306418964,
0.001197007481296758,-0.01881048723230477,
0.0012468827930174563,-0.03818493332296681,
0.0012967581047381546,-0.05300541146578433,
0.001346633416458853,-0.0148150960332404,
0.001396508728179551,-0.009334599140295084,
0.0014463840399002493,-0.04615684624327527,
0.0014962593516209476,-0.009575089396697593,
0.001546134663341646,0.00813469962957372,
0.0015960099750623442,-0.014079853339637686,
0.0016458852867830423,0.006249124989557767,
0.0016957605985037406,-0.022828763968890844,
0.001745635910224439,-0.0008501231866816627,
0.0017955112219451373,-0.03512358621722927,
0.0018453865336658353,-0.016451234522961253,
0.0018952618453865336,-0.00714790539191654,
0.001945137157107232,0.007768604277560759,
0.00199501246882793,-0.012542462640383447,
0.0020448877805486283,-0.017438705300795238,
0.0020947630922693266,0.0028567280609663563,
0.002144638403990025,0.0014545798940401745,
0.0021945137157107233,0.038388527077575355,
0.0022443890274314216,-0.014422706932423913,
0.00229426433915212,0.007684935103896617,
0.0023441396508728177,0.02577336170405484,
0.002394014962593516,-0.002273809795662487,
0.0024438902743142144,-0.016803598299366895,
0.0024937655860349127,0.0027039933059927364,
0.002543640897755611,-0.017517244721696527,
0.0025935162094763093,-0.012842971098222746,
0.0026433915211970076,0.0009763925199376263,
0.002693266832917706,-0.010797564304435087,
0.002743142144638404,-0.010925484641520657,
0.002793017456359102,-0.019147509863750137,
0.0028428927680798004,-0.01033010697404241,
0.0028927680798004987,-0.024988879662026123,
0.002942643391521197,-0.0060571711857938465,
0.0029925187032418953,-0.01641397997060587,
0.0030423940149625936,0.004578404074530338,
0.003092269326683292,-0.01722377499137366,
0.00314214463840399,-0.012828066959544786,
0.0031920199501246885,-0.031194892592565315,
0.0032418952618453864,-0.025912816639618242,
0.0032917705735660847,0.007186604410054403,
0.003341645885286783,-0.014685332611445933,
0.0033915211970074813,-0.019254246269329704,
0.0034413965087281796,-0.005720579565890017,
0.003491271820448878,-0.006976432816816581,
0.003541147132169576,0.009223134092869562,
0.0035910224438902745,0.011803718415864629,
0.0036408977556109724,-0.002420989539080752,
0.0036907730673316707,-0.0037105843859864826,
0.003740648379052369,-0.010808230577831271,
0.0037905236907730673,0.016197270027549285,
0.0038403990024937656,0.03014475703157312,
0.003890274314214464,0.011108833891375559,
0.003940149625935162,0.01582405977508085,
0.00399002493765586,-0.00260996940995269,
0.004039900249376558,-0.026932025819617816,
0.004089775561097257,-0.011872544154203515,
0.004139650872817955,0.0025556200334086814,
0.004189526184538653,0.005967767100452325,
0.004239401496259352,-0.009939848848765354,
0.00428927680798005,-0.0012998355339651256,
0.004339152119700748,-0.02185748290019024,
0.0043890274314214465,0.00958753033935196,
0.004438902743142145,-0.00016398200805462946,
0.004488778054862843,0.01846908314350059,
0.004538653366583541,0.012689765914673135,
0.00458852867830424,-0.00266324711345644,
0.004638403990024938,0.022409386092158895,
0.0046882793017456355,0.009070227791379636,
0.004738154613466334,-0.004504747171859279,
0.004788029925187032,0.001232682033710653,
0.00483790523690773,0.025429400095796757,
0.004887780548628429,0.027390562068712522,
0.004937655860349127,-0.01441165869718879,
0.004987531172069825,-0.007575712718168937,
0.005037406483790524,0.004591720338626251,
0.005087281795511222,0.011563299268798838,
0.00513715710723192,0.0077386561034625476,
0.0051870324189526185,0.008620256229994174,
0.005236907730673317,0.006190961884587814,
0.005286783042394015,-0.0038233067054866537,
0.0053366583541147134,0.024617186174815824,
0.005386533665835412,-0.013868955833471308,
0.00543640897755611,0.012458691532154535,
0.005486284289276808,0.028717852537020718,
0.005536159600997507,-0.005256286824893498,
0.005586034912718204,0.012161331010722662,
0.005635910224438902,0.03417383332145114,
0.005685785536159601,0.014212344349869135,
0.005735660847880299,0.016672855389002258,
0.005785536159600997,0.009965663768673942,
0.005835411471321696,-0.023373249673180753,
0.005885286783042394,0.025537022013053422,
0.005935162094763092,0.02561414581173774,
0.0059850374064837905,0.023033519886449312,
0.006034912718204489,-0.0024452988077693395,
0.006084788029925187,0.0008301764570941231,
0.0061346633416458855,-0.0016889168790405681,
0.006184538653366584,0.04142749466776824,
0.006234413965087282,-0.010887278972218502,
0.00628428927680798,0.00534069124944463,
0.006334164588528679,0.040933689038943434,
0.006384039900249377,0.034924595191791,
0.006433915211970074,0.00783381635939641,
0.006483790523690773,0.011980741116251177,
0.006533665835411471,0.01278433100315739,
0.006583541147132169,0.002615226184522701,
0.006633416458852868,0.02600254352126662,
0.006683291770573566,0.009887475294457984,
0.006733167082294264,-0.006824841676321566,
0.0067830423940149626,0.056323401112964376,
0.006832917705735661,0.009147507674935093,
0.006882793017456359,0.021418643522298227,
0.0069326683291770575,-0.024575187468085975,
0.006982543640897756,-0.01391545664802393,
0.007032418952618454,-0.007580983677596222,
0.007082294264339152,-0.010047462140653909,
0.007132169576059851,-0.0011601691907331853,
0.007182044887780549,-0.012057869781532848,
0.007231920199501247,-0.006722755468089835,
0.007281795511221945,0.04317646847918008,
0.007331670822942643,0.006170604176975037,
0.007381546134663341,0.013703854575335222,
0.00743142144638404,0.02083304508889676,
0.007481296758104738,0.023876143096845347,
0.007531172069825436,-0.00039353272582142926,
0.007581047381546135,-0.0032835760638745687,
0.007630922693266833,0.002537775269295304,
0.007680798004987531,0.027414828910826673,
0.0077306733167082295,0.00869709479106951,
0.007780548628428928,0.016844996873735134,
0.007830423940149626,0.014063447047002985,
0.007880299251870324,0.03680951360398281,
0.007930174563591023,-0.004020689072173556,
0.00798004987531172,0.024329589726195446,
0.00802992518703242,0.0053795592560672515,
0.008079800498753117,0.02006739674610767,
0.008129675810473816,-0.004034239333246519,
0.008179551122194513,0.005624291483946289,
0.008229426433915213,0.027476628151709547,
0.00827930174563591,0.022006182584930513,
0.00832917705735661,0.0028493045136788325,
0.008379052369077307,-0.004497139234163568,
0.008428927680798006,0.012535728449717152,
0.008478802992518703,0.040042750899753926,
0.0085286783042394,0.021963262154887014,
0.0085785536159601,0.027023735520652993,
0.008628428927680797,0.014302075653267098,
0.008678304239401496,0.014876254561073703,
0.008728179551122194,0.015924439261562822,
0.008778054862842893,0.04861012119700699,
0.00882793017456359,0.0162441055092909,
0.00887780548628429,0.014411781811564103,
0.008927680798004987,0.010512972157501407,
0.008977556109725686,0.013345365212231484,
0.009027431421446384,0.0077839562930410045,
0.009077306733167083,0.0050000183902246635,
0.00912718204488778,0.023856306174343547,
0.00917705735660848,0.009656099278081183,
0.009226932668329177,0.04202598745705892,
0.009276807980049876,0.03046459081005417,
0.009326683291770574,0.010485762642505635,
0.009376558603491271,0.033660354652861504,
0.00942643391521197,0.015866626528368018,
0.009476309226932668,0.01425976092328974,
0.009526184538653367,0.0017194932312707169,
0.009576059850374064,0.018853959972337964,
0.009625935162094763,0.03104133429043981,
0.00967581047381546,0.0254047774651925,
0.00972568578553616,0.0359064828060777,
0.009775561097256857,0.03570433935237388,
0.009825436408977557,0.0274392698098111,
0.009875311720698254,-0.008074914926410829,
0.009925187032418953,0.05004398991278757,
0.00997506234413965,0.023883687316763224,
0.01002493765586035,0.019737590930191784,
0.010074812967581047,0.013737478472253348,
0.010124688279301746,0.01607111046232835,
0.010174563591022444,0.01797920106187991,
0.010224438902743141,0.022105526290167734,
0.01027431421446384,0.03408397221826248,
0.010324189526184538,0.017460198120746406,
0.010374064837905237,0.022022078597427455,
0.010423940149625935,0.012431450926351353,
0.010473815461346634,0.01930485423235293,
0.010523690773067331,0.006082093738010802,
0.01057356608478803,0.007621612775583878,
0.010623441396508728,0.024001931846412833,
0.010673316708229427,0.034831494101740954,
0.010723192019950124,-0.0050659097821240985,
0.010773067331670824,0.039872715641288754,
0.010822942643391521,0.01456159528891753,
0.01087281795511222,0.03670872727927238,
0.010922693266832918,0.016478985829230346,
0.010972568578553617,0.003350429998295837,
0.011022443890274314,-0.014107561770000828,
0.011072319201995013,0.029944993527920453,
0.01112219451371571,0.015900251432069804,
0.011172069825436408,0.017757890148125857,
0.011221945137157107,0.018955208158019033,
0.011271820448877805,0.023503331245810086,
0.011321695760598504,0.034559215199175194,
0.011371571072319201,0.016222704209505032,
0.0114214463840399,-0.004840436917084464,
0.011471321695760598,0.008212930685694345,
0.011521197007481297,0.009427321419420504,
0.011571072319201995,0.024081208564270498,
0.011620947630922694,0.016783273695843266,
0.011670822942643391,0.010733456650482691,
0.01172069825436409,0.03619423946717039,
0.011770573566084788,0.019213930237872386,
0.011820448877805487,0.006012660988108282,
0.011870324189526184,-0.00819021082028098,
0.011920199501246884,0.011299747478455939,
0.011970074812967581,0.012060593862287949,
0.012019950124688279,0.031037199888899865,
0.012069825436408978,-0.006448568865808689,
0.012119700748129675,-0.004776511832506701,
0.012169576059850374,0.005121764651648508,
0.012219451371571072,0.007409464684291903,
0.012269326683291771,0.015662138117843703,
0.012319201995012468,0.010957397471661424,
0.012369077306733168,-0.007860575342194517,
0.012418952618453865,0.04076486286338409,
0.012468827930174564,0.021828315970600868,
0.012518703241895262,0.03343559033164168,
0.01256857855361596,0.022659018091825217,
0.012618453865336658,0.02538438175023456,
0.012668329177057357,0.026389614742856008,
0.012718204488778055,0.023699403919297674,
0.012768079800498754,-0.033510201745784465,
0.012817955112219451,-0.0037237511225634012,
0.012867830423940149,0.02190154913582971,
0.012917705735660848,-0.0025041809500648826,
0.012967581047381545,0.009928850704432998,
0.013017456359102245,0.023243950519408495,
0.013067331670822942,0.003775741793429599,
0.013117206982543641,-0.0011761330016746901,
0.013167082294264339,0.011732028187494513,
0.013216957605985038,-0.016583654779892727,
0.013266832917705735,-0.00816661914376222,
0.013316708229426434,0.002547899274004765,
0.013366583541147132,-0.019094529045359174,
0.013416458852867831,0.017551678688062615,
0.013466334164588529,0.011274079800292972,
0.013516209476309228,-0.01281913063945543,
0.013566084788029925,-0.0064646495511691505,
0.013615960099750624,0.027527701092073864,
0.013665835411471322,-0.006980171609902773,
0.01371571072319202,-0.022923216401838867,
0.013765586034912718,-0.014543618347377394,
0.013815461346633416,-0.0035311936836397496,
0.013865336658354115,0.022753830112361075,
0.013915211970074812,0.00892812094022184,
0.013965087281795512,-0.008916093807759824,
0.014014962593516209,0.009274113374085059,
0.014064837905236908,0.01758085012439052,
0.014114713216957606,0.01371140647108461,
0.014164588528678305,-0.005894293809876781,
0.014214463840399002,-0.0016584282903505127,
0.014264339152119701,0.018234505118894066,
0.014314214463840399,-0.02671351104519613,
0.014364089775561098,0.008589862556434381,
0.014413965087281795,0.0016290878829638184,
0.014463840399002495,-0.034710247407027245,
0.014513715710723192,-0.00908690026968836,
0.01456359102244389,0.015527628592726411,
0.014613466334164589,-0.011509466004802505,
0.014663341645885286,-0.018616399692104428,
0.014713216957605985,-0.008912393778602609,
0.014763092269326683,-0.04371899323666525,
0.014812967581047382,-0.01958365420348819,
0.01486284289276808,-0.011686721270049393,
0.014912718204488778,-0.019765697125259028,
0.014962593516209476,-0.020023298980911087,
0.015012468827930175,0.004290576028821277,
0.015062344139650873,0.006961032061227812,
0.015112219451371572,-0.0015387447915259957,
0.01516209476309227,0.007180536019804267,
0.015211970074812968,-0.0032921478559313766,
0.015261845386533666,-0.0061178006908426934,
0.015311720698254365,-0.019713941825321366,
0.015361596009975062,-0.014849139338486715,
0.01541147132169576,-0.009555273233185106,
0.015461346633416459,0.004911778158269181,
0.015511221945137156,0.00142318612350637,
0.015561097256857856,-0.02089221255052808,
0.015610972568578553,-0.0202064520861156,
0.015660847880299252,-0.01892501476644557,
0.01571072319201995,-0.008625819464183952,
0.015760598503740647,-0.0431660132843232,
0.015810473815461346,0.0063463686780682056,
0.015860349127182045,-0.03339981042085299,
0.015910224438902745,0.02375974626299917,
0.01596009975062344,-0.029380608520952846,
0.01600997506234414,-0.017619018467975426,
0.01605985037406484,-0.03496217190334494,
0.016109725685785538,-0.036240639017490237,
0.016159600997506234,-0.01521538434972861,
0.016209476309226933,-0.016328234549367507,
0.016259351620947632,-0.007816572129472505,
0.016309226932668328,-0.04423534566043146,
0.016359102244389027,-0.04462527761218753,
0.016408977556109726,-0.0062242272797549195,
0.016458852867830425,-0.017149443476444017,
0.01650872817955112,-0.0037636477701551915,
0.01655860349127182,-0.030554655733897165,
0.01660847880299252,-0.03157047012229117,
0.01665835411471322,-0.007616927922380873,
0.016708229426433914,-0.037003038978752636,
0.016758104738154613,-0.02623174079602446,
0.016807980049875312,-0.00878255207287736,
0.01685785536159601,0.01195163647062961,
0.016907730673316707,-0.04016939853648603,
0.016957605985037406,-0.0031146346421655254,
0.017007481296758106,-0.0350017770961959,
0.0170573566084788,0.014848258263634319,
0.0171072319201995,-0.012592241379283973,
0.0171571072319202,-0.03184980985466597,
0.0172069825436409,-0.004816913253521397,
0.017256857855361595,-0.02557051283529694,
0.017306733167082294,-0.024773688961466978,
0.017356608478802993,-0.011886398279183988,
0.017406483790523692,-0.028433475455905147,
0.017456359102244388,-0.030139675030305596,
0.017506234413965087,-0.029460325991652374,
0.017556109725685786,-0.04691163154329685,
0.017605985037406485,-0.01751076666001064,
0.01765586034912718,-0.011800442196813045,
0.01770573566084788,-0.0009493704862173977,
0.01775561097256858,-0.0031868542456745773,
0.01780548628428928,-0.0053617888589353735,
0.017855361596009974,-0.013532607041764882,
0.017905236907730673,-0.021592739475325737,
0.017955112219451373,-0.038161300138200474,
0.018004987531172068,-0.03847745006618467,
0.018054862842892767,-0.0022584659041783306,
0.018104738154613467,-0.025988438478371904,
0.018154613466334166,0.008065262485189958,
0.01820448877805486,0.001703603487329227,
0.01825436408977556,0.008440271989796987,
0.01830423940149626,-0.0139894559531367,
0.01835411471321696,-0.007967939078789517,
0.018403990024937655,0.012246374999421463,
0.018453865336658354,-0.035696391351598925,
0.018503740648379053,-0.025442473908259246,
0.018553615960099752,-0.018913421797800208,
0.018603491271820448,-0.0023297296293650384,
0.018653366583541147,-0.005310634957303403,
0.018703241895261846,-0.0028781535623685767,
0.018753117206982542,-0.0323689232812264,
0.01880299251870324,-0.02909290921359382,
0.01885286783042394,-0.010640254590651852,
0.01890274314214464,-0.01946507047432924,
0.018952618453865335,-0.014302337789585815,
0.019002493765586034,-0.027780293620484536,
0.019052369077306733,-0.03445217685955296,
0.019102244389027433,-0.029824039977953843,
0.01915211970074813,-0.014905411355607889,
0.019201995012468828,-0.005288514706944214,
0.019251870324189527,-0.028568667390283013,
0.019301745635910226,-0.02600065252619481,
0.01935162094763092,-0.03495792883800141,
0.01940149625935162,-0.03423773244704951,
0.01945137157107232,-0.01709102011551664,
0.01950124688279302,-0.036242911158180686,
0.019551122194513715,-0.005352154298004353,
0.019600997506234414,-0.03777586310226725,
0.019650872817955113,0.021489854093576684,
0.01970074812967581,-0.015181678512941148,
0.019750623441396508,-0.013685111057040279,
0.019800498753117207,-0.026308715451286872,
0.019850374064837906,-0.009285948988577718,
0.019900249376558602,-0.03340510368255881,
0.0199501246882793,-0.03607437285593697,
0.02,-0.009394214237996579,
0.0200498753117207,-0.006160380615651589,
0.020099750623441395,-0.006504698017988248,
0.020149625935162094,-0.017893001728488563,
0.020199501246882794,-0.013942563997074274,
0.020249376558603493,0.008615871622981719,
0.02029925187032419,-0.020762226013477127,
0.020349127182044888,-0.004493516220844294,
0.020399002493765587,-0.031074164425689402,
0.020448877805486283,-0.04003873563675331,
0.02049875311720698,0.00919252391802168,
0.02054862842892768,-0.019845530827286878,
0.02059850374064838,-0.014669206274882121,
0.020648379052369076,-0.005587216375870452,
0.020698254364089775,-0.013263677254344814,
0.020748129675810474,-0.007550080073230553,
0.020798004987531173,-0.019606156256071684,
0.02084788029925187,-0.013992388860993877,
0.020897755610972568,-0.019470134655050757,
0.020947630922693267,-0.03140832086310572,
0.020997506234413967,-0.011808749186030861,
0.021047381546134662,-0.0061775325084331475,
0.02109725685785536,-0.036451512843405906,
0.02114713216957606,0.0013383115558604636,
0.02119700748129676,-0.020205382624777175,
0.021246882793017455,-0.025342540178699385,
0.021296758104738155,-0.029132712964419008,
0.021346633416458854,-0.01781125126135164,
0.02139650872817955,-0.015275769151754692,
0.02144638403990025,-0.024522587957478106,
0.021496259351620948,-0.014799101273107636,
0.021546134663341647,-0.025211427775049977,
0.021596009975062343,0.007443414440829252,
0.021645885286783042,0.004648250732409662,
0.02169576059850374,-0.0019089057121802703,
0.02174563591022444,-0.004058311836976485,
0.021795511221945136,-0.00667700228471044,
0.021845386533665835,-0.0048810187579249025,
0.021895261845386534,-0.02949921262596359,
0.021945137157107233,-0.004911489536027844,
0.02199501246882793,4.4866035873031285e-06,
0.02204488778054863,-0.01827399478538319,
0.022094763092269327,-0.0009797913254070336,
0.022144638403990027,0.021118900544287368,
0.022194513715710722,-0.023754355811513285,
0.02224438902743142,-0.011447474366925225,
0.02229426433915212,-0.05126070544302558,
0.022344139650872816,-0.0029022340488782696,
0.022394014962593516,0.00020132433282567513,
0.022443890274314215,0.0021683106761748432,
0.022493765586034914,-0.03569091560471269,
0.02254364089775561,0.009963413556164445,
0.02259351620947631,-0.01048051321916241,
0.022643391521197008,-0.009675004244564703,
0.022693266832917707,0.00499558854869553,
0.022743142144638403,-0.008658290878124078,
0.022793017456359102,-0.03872707202890443,
0.0228428927680798,-0.030266070025175867,
0.0228927680798005,-0.03594344353430727,
0.022942643391521196,-0.0030392844637846268,
0.022992518703241895,-0.005365552058481255,
0.023042394014962594,-0.006267662543224104,
0.02309226932668329,-0.018413928623736794,
0.02314214463840399,0.01433136260036889,
0.02319201995012469,0.017573556140086325,
0.023241895261845388,0.007147831206967732,
0.023291770573566083,-0.011068793824262296,
0.023341645885286783,0.006375149670769917,
0.02339152119700748,0.017672516448151175,
0.02344139650872818,-0.020520053740991067,
0.023491271820448877,-0.04391103743604799,
0.023541147132169576,-2.8348094644679552e-05,
0.023591022443890275,0.01769705385491637,
0.023640897755610974,0.030209437929290043,
0.02369077306733167,-0.01095290156357617,
0.02374064837905237,-0.027887648861167968,
0.023790523690773068,-0.005668173167494788,
0.023840399002493767,0.014756581404924057,
0.023890274314214463,-0.010261206521006988,
0.023940149625935162,0.021733635418808347,
0.02399002493765586,0.01824984529709318,
0.024039900249376557,-0.014740544026669064,
0.024089775561097256,-0.0026987384038615926,
0.024139650872817955,0.021689696207883066,
0.024189526184538655,-0.001425988986620106,
0.02423940149625935,0.018019034957629746,
0.02428927680798005,-0.01596284957299819,
0.02433915211970075,-0.0064959920370078845,
0.024389027431421448,-0.005521643672657494,
0.024438902743142144,-0.018051143283314516,
0.024488778054862843,-0.01491653849459171,
0.024538653366583542,0.009723913807203671,
0.02458852867830424,-0.019373381061473433,
0.024638403990024937,0.005200850010425893,
0.024688279301745636,0.008533457493442267,
0.024738154613466335,0.017606599075627654,
0.02478802992518703,0.031436164172003296,
0.02483790523690773,-0.005747946941802946,
0.02488778054862843,-0.012147729714548377,
0.02493765586034913,0.003507376111888314,
0.024987531172069824,0.020066713217914596,
0.025037406483790523,0.005585558348426392,
0.025087281795511222,0.017216795932592836,
0.02513715710723192,0.03175949011639143,
0.025187032418952617,0.014300636203383723,
0.025236907730673316,0.017106505966663414,
0.025286783042394016,0.008166127595043768,
0.025336658354114715,0.002807188192017424,
0.02538653366583541,0.0038529396359600118,
0.02543640897755611,0.0035818254264511013,
0.02548628428927681,0.01178188691579052,
0.025536159600997508,-0.003928586548344819,
0.025586034912718204,-0.027515681200328837,
0.025635910224438903,-0.020518039617415704,
0.025685785536159602,0.00759752338261245,
0.025735660847880298,0.003403422141563887,
0.025785536159600997,0.037963843912562835,
0.025835411471321696,0.005277574767889275,
0.025885286783042395,0.009640743367574775,
0.02593516209476309,0.017073413034238212,
0.02598503740648379,0.024414519068365403,
0.02603491271820449,0.008310101418334824,
0.02608478802992519,-0.008189362082500377,
0.026134663341645884,0.03211949686149738,
0.026184538653366583,0.010792813324168031,
0.026234413965087282,0.010693148634510128,
0.02628428927680798,0.01616003815399523,
0.026334164588528677,0.025729879436486545,
0.026384039900249377,0.03343536931793465,
0.026433915211970076,-0.0053802593457474325,
0.02648379052369077,0.0022312130818627554,
0.02653366583541147,0.04858375444043103,
0.02658354114713217,0.0138029800752832,
0.02663341645885287,0.030741100247494903,
0.026683291770573565,0.01055125810836753,
0.026733167082294264,0.017995595253464898,
0.026783042394014963,0.033107561636909935,
0.026832917705735662,0.0008658069866641326,
0.026882793017456358,0.014169300328792614,
0.026932668329177057,-0.004359621180534082,
0.026982543640897756,-0.0006383182979764444,
0.027032418952618455,0.03646051819677115,
0.02708229426433915,0.024980466102025648,
0.02713216957605985,0.021714035584948308,
0.02718204488778055,0.00437453148795422,
0.02723192019950125,0.04404240206736457,
0.027281795511221944,0.03049478300703305,
0.027331670822942643,-0.007820061189270623,
0.027381546134663343,0.0038519345086827778,
0.02743142144638404,0.05072126194519922,
0.027481296758104738,0.01775621516768897,
0.027531172069825437,0.02084105186333367,
0.027581047381546136,0.014983826493703705,
0.02763092269326683,0.021947822509702248,
0.02768079800498753,0.020266163832238032,
0.02773067331670823,0.020882170502145508,
0.02778054862842893,0.01586991231830375,
0.027830423940149625,0.0084054883886495,
0.027880299251870324,0.02022526440006395,
0.027930174563591023,0.008317595083714591,
0.027980049875311722,0.026889011111434456,
0.028029925187032418,0.025190818377278587,
0.028079800498753117,0.02320776642997459,
0.028129675810473816,0.016358588955485257,
0.028179551122194512,0.002693885155649365,
0.02822942643391521,0.003237139865599207,
0.02827930174563591,0.018267162405811305,
0.02832917705735661,0.046869518711605336,
0.028379052369077305,0.028053936315871306,
0.028428927680798004,0.01810583644408281,
0.028478802992518704,0.013038409889185719,
0.028528678304239403,0.01520785940743933,
0.0285785536159601,0.025012029854643746,
0.028628428927680798,0.01757829087001181,
0.028678304239401497,0.014497779764278913,
0.028728179551122196,0.0026558954593174193,
0.02877805486284289,0.018911887641909892,
0.02882793017456359,0.03020965403866738,
0.02887780548628429,0.030296967506395205,
0.02892768079800499,-0.005641624288632113,
0.028977556109725685,0.002496600717300089,
0.029027431421446384,0.040228455696926874,
0.029077306733167083,0.003788605262314934,
0.02912718204488778,0.04710875470389503,
0.029177057356608478,0.015523492058954792,
0.029226932668329177,0.0006643530281299805,
0.029276807980049877,0.015848973457373915,
0.029326683291770572,0.027122548851972392,
0.02937655860349127,0.040006342840785206,
0.02942643391521197,0.018054802284025645,
0.02947630922693267,0.03992718682165548,
0.029526184538653365,0.032790952227662394,
0.029576059850374065,0.0037968941843065304,
0.029625935162094764,0.021068325019867728,
0.029675810473815463,0.02126714523151506,
0.02972568578553616,0.005822199311932834,
0.029775561097256858,0.035198033009609414,
0.029825436408977557,0.04443738486409339,
0.029875311720698253,0.016232941175290044,
0.029925187032418952,0.012946858507247846,
0.02997506234413965,0.022504142828705182,
0.03002493765586035,0.03736564188107231,
0.030074812967581046,0.03830288318180389,
0.030124688279301745,0.03185128386041643,
0.030174563591022444,0.017575786718264354,
0.030224438902743143,0.03021279376944192,
0.03027431421446384,0.004997574963049275,
0.03032418952618454,0.03132255827684042,
0.030374064837905237,0.00865584487680794,
0.030423940149625937,0.022167731186280976,
0.030473815461346632,-0.011634178473852327,
0.03052369077306733,0.016386374470967646,
0.03057356608478803,0.009626013769249282,
0.03062344139650873,0.020870545685701406,
0.030673316708229426,-0.03014429402111712,
0.030723192019950125,0.01936454798360282,
0.030773067331670824,0.02384694171843463,
0.03082294264339152,-0.008116280594970729,
0.03087281795511222,0.005784119340755657,
0.030922693266832918,0.030435560643886403,
0.030972568578553617,-0.005918881757251825,
0.031022443890274313,-0.00025112221962764886,
0.031072319201995012,-0.014442195724927727,
0.03112219451371571,0.030826948581890286,
0.03117206982543641,0.02413250204461471,
0.031221945137157106,0.028701271261165492,
0.03127182044887781,-0.0022910316835956755,
0.031321695760598504,0.016852106312748333,
0.0313715710723192,0.02110590734768263,
0.0314214463840399,0.01120094037780859,
0.0314713216957606,0.009577901547413819,
0.031521197007481294,0.041175340450232134,
0.031571072319202,0.030519634864613992,
0.03162094763092269,0.03747053210809086,
0.03167082294264339,0.021442133187741037,
0.03172069825436409,0.026142175691353412,
0.03177057356608479,0.013644590141376086,
0.03182044887780549,0.026532370461171052,
0.031870324189526185,0.024100843825759093,
0.03192019950124688,0.020996471779055996,
0.03197007481296758,-0.019353462097868465,
0.03201995012468828,0.0041633517002735276,
0.032069825436408975,0.027029591405448583,
0.03211970074812968,0.004798500766851309,
0.03216957605985037,0.016154614430131463,
0.032219451371571076,0.012025768737689993,
0.03226932668329177,-0.00500526864816332,
0.03231920199501247,0.02231831091920708,
0.03236907730673317,0.033559764142229,
0.032418952618453865,0.010383377595654006,
0.03246882793017456,0.010150486187139377,
0.032518703241895264,0.03536575019140721,
0.03256857855361596,0.0010836000237046794,
0.032618453865336655,0.035299416713799325,
0.03266832917705736,0.014896572999571506,
0.032718204488778053,0.01386124030488758,
0.032768079800498756,0.021072878320115583,
0.03281795511221945,0.019315684087688363,
0.03286783042394015,0.018826739202963728,
0.03291770573566085,0.016607847338214507,
0.032967581047381546,0.011429833583511618,
0.03301745635910224,0.008242325794186428,
0.033067331670822944,0.01140018771046387,
0.03311720698254364,-0.01710865496393669,
0.03316708229426434,0.00422482958740957,
0.03321695760598504,0.02070652084687454,
0.033266832917705734,0.02301288897530259,
0.03331670822942644,0.005998930723745149,
0.03336658354114713,-0.007186966503219523,
0.03341645885286783,-0.020971203159489873,
0.03346633416458853,0.023117800312282385,
0.033516209476309226,0.0075646660818416075,
0.03356608478802992,-0.0037413689577347363,
0.033615960099750625,0.01646287750645616,
0.03366583541147132,0.013736443004962656,
0.03371571072319202,0.005609229329748488,
0.03376558603491272,-0.00270494355885274,
0.033815461346633414,0.007473594551548413,
0.03386533665835412,0.00013594322333326412,
0.03391521197007481,0.013136080244238468,
0.03396508728179551,0.018579800326536066,
0.03401496259351621,0.024806843524942186,
0.03406483790523691,0.014572603816926592,
0.0341147132169576,-0.0026195381150346184,
0.034164588528678305,-0.016076573988367048,
0.034214463840399,0.017257483705256156,
0.034264339152119704,-0.016933734693309308,
0.0343142144638404,0.02503169847277556,
0.034364089775561095,0.02942774802104009,
0.0344139650872818,0.0352219194031155,
0.03446384039900249,-0.014788860523773614,
0.03451371571072319,0.013921878272418359,
0.03456359102244389,-0.0066884386613050816,
0.03461346633416459,0.024411917688441174,
0.03466334164588529,-0.022241069320197693,
0.034713216957605986,0.002572234901524072,
0.03476309226932668,0.000359827574838263,
0.034812967581047384,-0.0029203357865824515,
0.03486284289276808,-0.00692882671518526,
0.034912718204488775,0.0055493098469343175,
0.03496259351620948,-0.012832232316057533,
0.035012468827930174,-0.0008331854820578847,
0.03506234413965087,-0.03246840516652684,
0.03511221945137157,0.016056918548234385,
0.03516209476309227,0.010221409134213844,
0.03521197007481297,-0.008687860243740683,
0.035261845386533666,-0.023891033389596684,
0.03531172069825436,-0.02515286317868106,
0.035361596009975065,-0.024096332245208574,
0.03541147132169576,0.01026212062132511,
0.035461346633416456,-0.010767273802895067,
0.03551122194513716,-0.03386484973762929,
0.035561097256857854,0.018122168760043616,
0.03561097256857856,0.004851271811834945,
0.03566084788029925,-0.010691230800873197,
0.03571072319201995,0.009136136852082803,
0.03576059850374065,-0.032013180400918856,
0.03581047381546135,0.003103323096004541,
0.03586034912718204,-0.01768928833505789,
0.035910224438902745,-0.026536576908758373,
0.03596009975062344,0.0032399332265140683,
0.036009975062344136,0.004047458923641625,
0.03605985037406484,-0.04374151041452387,
0.036109725685785535,-0.011651759810426805,
0.03615960099750624,-0.010356346195884224,
0.03620947630922693,0.009032611144975757,
0.03625935162094763,-0.02267626051719763,
0.03630922693266833,0.00917856495752669,
0.03635910224438903,-0.018893149361341215,
0.03640897755610972,-0.003190892225693796,
0.036458852867830426,0.0069003789991750435,
0.03650872817955112,-0.024554877623724613,
0.036558603491271824,-0.021451146370339173,
0.03660847880299252,-0.006618000180237902,
0.036658354114713215,-0.029239849531056843,
0.03670822942643392,-0.02167230199546582,
0.036758104738154614,-0.01472148778217162,
0.03680798004987531,-0.025961793688008106,
0.03685785536159601,-0.01882038999156805,
0.03690773067331671,-0.004282308455349668,
0.0369576059850374,-0.01665723759346137,
0.037007481296758106,-0.021493466075821248,
0.0370573566084788,-0.050852867604103326,
0.037107231920199504,0.004541321048268024,
0.0371571072319202,0.0029435622657334147,
0.037206982543640896,-0.007955025732635956,
0.0372568578553616,-0.02725965074142858,
0.037306733167082294,-0.002975389351579939,
0.03735660847880299,0.0008405837844273553,
0.03740648379052369,-0.02122665607873986,
0.03745635910224439,0.0023505513469780012,
0.037506234413965084,-0.022950541297372926,
0.037556109725685786,-0.0012530088257602032,
0.03760598503740648,-0.0050544362485748645,
0.037655860349127185,0.002922849143793564,
0.03770573566084788,-0.042690691489521454,
0.037755610972568576,-0.023165728617645955,
0.03780548628428928,0.0019349908598518262,
0.037855361596009975,-0.0218029252447522,
0.03790523690773067,-0.02900842934548732,
0.03795511221945137,-0.005196913767782686,
0.03800498753117207,-0.02994628203296809,
0.03805486284289277,-0.01255650479355032,
0.03810473815461347,-0.0460107251368488,
0.03815461346633416,-0.020103583014676914,
0.038204488778054865,-0.016388110790767796,
0.03825436408977556,-0.036659231507570986,
0.03830423940149626,0.008749156074919866,
0.03835411471321696,-0.03967876588242389,
0.038403990024937655,-0.019588537385650785,
0.03845386533665835,0.0004253376144825842,
0.03850374064837905,-0.0005519138429820186,
0.03855361596009975,-0.0308923185295477,
0.03860349127182045,-0.011251000241019219,
0.03865336658354115,0.003581248684664185,
0.03870324189526184,-0.0057441298849958584,
0.038753117206982546,-0.013110283423008694,
0.03880299251870324,-0.03401884970997876,
0.03885286783042394,-0.030059549510239696,
0.03890274314214464,-0.01668187627700505,
0.038952618453865336,-0.03104150834524292,
0.03900249376558604,-0.005810021530672303,
0.039052369077306734,-0.011483562385716062,
0.03910224438902743,-0.01022106174954678,
0.03915211970074813,-0.015868177795704378,
0.03920199501246883,-0.002194125266867509,
0.039251870324189524,-0.010388734732484802,
0.039301745635910226,-0.013357596313673252,
0.03935162094763092,-0.035461802049724975,
0.03940149625935162,-0.029290249986294245,
0.03945137157107232,-0.013006891191099244,
0.039501246882793016,0.005252377982151318,
0.03955112219451372,-0.02459321903726873,
0.039600997506234414,-0.007137273672473262,
0.03965087281795511,-0.020576192747709648,
0.03970074812967581,-0.028339828088165937,
0.03975062344139651,-0.012579325128872013,
0.039800498753117204,-0.0299738371793939,
0.03985037406483791,-0.0379859704882443,
0.0399002493765586,-0.019957640463908695,
0.039950124688279305,-0.02466024617392653,
0.04,-0.0059970482798053434,
0.0400498753117207,-0.03369359743662104,
0.0400997506234414,-0.010899909247079334,
0.040149625935162095,-0.0020219550132307036,
0.04019950124688279,-0.029766835815012667,
0.04024937655860349,-0.015844880656178045,
0.04029925187032419,-0.024534346864434883,
0.040349127182044885,-0.005705897250106794,
0.04039900249376559,-0.013525391629721146,
0.04044887780548628,-0.0005237218456105829,
0.040498753117206986,-0.02137864149778765,
0.04054862842892768,0.0072705289124486636,
0.04059850374064838,-0.012455568473249598,
0.04064837905236908,-0.010425320870769283,
0.040698254364089775,0.0039725338138735695,
0.04074812967581047,-0.010142523831142905,
0.040798004987531174,-0.007124535901164066,
0.04084788029925187,-0.014500259385627,
0.040897755610972565,0.01905585146597949,
0.04094763092269327,-0.027989158131019064,
0.04099750623441396,-0.022989833426507386,
0.041047381546134666,-0.010764076820990528,
0.04109725685785536,0.004879090341976497,
0.04114713216957606,-0.02108064533963238,
0.04119700748129676,-0.017539299211883942,
0.041246882793017456,-0.011454983891141147,
0.04129675810473815,0.02009651325008867,
0.041346633416458854,-0.020584742208097,
0.04139650872817955,-0.017069178223683857,
0.04144638403990025,-0.008375709681386546,
0.04149625935162095,0.006695218673077796,
0.041546134663341644,-0.014920147228065103,
0.04159600997506235,-0.00013930766173449356,
0.04164588528678304,-0.020904051475825608,
0.04169576059850374,-0.020482029262326402,
0.04174563591022444,0.0026911437535905476,
0.041795511221945136,-0.00736381591746043,
0.04184538653366583,-0.002942821476460175,
0.041895261845386535,0.006006243282945443,
0.04194513715710723,-0.019810620311432964,
0.04199501246882793,-0.008826918207695437,
0.04204488778054863,0.012749465480597345,
0.042094763092269324,-0.01919007287014833,
0.04214463840399003,0.004857520264147576,
0.04219451371571072,0.017223734429579196,
0.04224438902743142,0.0010457582840899989,
0.04229426433915212,0.007576337392643956,
0.04234413965087282,-0.020727684777151867,
0.04239401496259352,-0.0277859261809053,
0.042443890274314215,-0.016346785169490625,
0.04249376558603491,-0.0008875177548952956,
0.042543640897755614,-0.026618851987026966,
0.04259351620947631,0.017725323509589285,
0.042643391521197005,-0.026074901503017944,
0.04269326683291771,-0.005108034775370523,
0.0427431421446384,-0.01204782451261743,
0.0427930174563591,0.00873962649916456,
0.0428428927680798,0.006289986691493319,
0.0428927680798005,-0.017090694979994835,
0.0429426433915212,0.000376255035012445,
0.042992518703241896,0.013245691505989443,
0.04304239401496259,-0.017126957648899863,
0.043092269326683294,0.02091369467289987,
0.04314214463840399,-0.0051142895699373,
0.043192019950124685,-0.02069148215315515,
0.04324189526184539,0.019285174992511603,
0.043291770573566084,-0.004780317812900486,
0.043341645885286786,-0.0028269636953669667,
0.04339152119700748,0.0068890330596252,
0.04344139650872818,0.03024833351265449,
0.04349127182044888,0.004131059452206945,
0.043541147132169576,-0.01532085317033357,
0.04359102244389027,0.011813217517089594,
0.043640897755610975,-0.006782986242327662,
0.04369077306733167,0.019960883040635684,
0.043740648379052366,0.011351728043550844,
0.04379052369077307,0.04632120311245619,
0.043840399002493764,0.0005196726069364509,
0.04389027431421447,0.026619834899820755,
0.04394014962593516,-0.02803526331661478,
0.04399002493765586,0.023957705434038842,
0.04403990024937656,0.04027093357437724,
0.04408977556109726,0.03256516088055494,
0.04413965087281795,0.014022786006384012,
0.044189526184538655,0.016391667160103846,
0.04423940149625935,-0.007866410919088998,
0.04428927680798005,0.01437409265589424,
0.04433915211970075,-7.902258318901421e-05,
0.044389027431421445,0.007406944323305219,
0.04443890274314215,0.027289858666440944,
0.04448877805486284,-0.008434737478492122,
0.04453865336658354,0.0039288180266481305,
0.04458852867830424,0.008584985243812212,
0.04463840399002494,-0.01733304743845014,
0.04468827930174563,0.0032379559879563147,
0.044738154613466335,0.0004146526247603907,
0.04478802992518703,0.049968735793774886,
0.044837905236907734,0.007209279116588182,
0.04488778054862843,0.0004558809313620158,
0.044937655860349125,-0.005296791267286972,
0.04498753117206983,0.016417621638864552,
0.045037406483790524,0.010449703842986165,
0.04508728179551122,0.00573688105290551,
0.04513715710723192,-0.006891890739675296,
0.04518703241895262,0.0029388533682720673,
0.04523690773067331,-0.009005559337362513,
0.045286783042394016,0.0175395463072322,
0.04533665835411471,0.025574325195014104,
0.045386533665835414,0.019090438914458146,
0.04543640897755611,0.004037541049908508,
0.045486284289276806,0.017359371265504214,
0.04553615960099751,-0.010358124857719093,
0.045586034912718204,0.020691595879159926,
0.0456359102244389,-0.003091063239451552,
0.0456857855361596,0.02853812426646888,
0.0457356608478803,0.02431420476799639,
0.045785536159601,0.02341275754451904,
0.045835411471321696,-0.012275245485199872,
0.04588528678304239,0.038907247842559695,
0.045935162094763095,0.02976651913234043,
0.04598503740648379,0.018291842401355618,
0.046034912718204486,0.01904472661707409,
0.04608478802992519,-0.01806445150459657,
0.046134663341645885,0.0017277286888903627,
0.04618453865336658,0.00893231576751179,
0.04623441396508728,0.006183202921149409,
0.04628428927680798,0.03847306155613031,
0.04633416458852868,0.022829790374045027,
0.04638403990024938,0.005302657762941417,
0.04643391521197007,0.02203724994521318,
0.046483790523690775,0.004225456173433078,
0.04653366583541147,0.025718844238575764,
0.04658354114713217,0.04178169724128204,
0.04663341645885287,0.039626238926784796,
0.046683291770573565,0.03533993519866345,
0.04673316708229427,0.022177870509615612,
0.04678304239401496,0.03597347935079978,
0.04683291770573566,-0.007788498767318932,
0.04688279301745636,0.016022123929908517,
0.04693266832917706,-0.018425091831871555,
0.04698254364089775,0.0399621999191013,
0.047032418952618456,0.01874228224240055,
0.04708229426433915,0.02181295175861831,
0.04713216957605985,0.03219525169085541,
0.04718204488778055,-0.005014616092975658,
0.047231920199501246,0.00538848283638267,
0.04728179551122195,0.02343690152892062,
0.047331670822942644,0.022522238527130492,
0.04738154613466334,0.038156097660104894,
0.04743142144638404,0.019812313214153766,
0.04748129675810474,0.02263287197902487,
0.047531172069825434,0.022801029696570354,
0.047581047381546136,0.028108453979519873,
0.04763092269326683,0.0055952231331327755,
0.047680798004987535,0.025098540934123777,
0.04773067331670823,0.01401663135639532,
0.047780548628428926,0.03800638974050285,
0.04783042394014963,0.02595830257748211,
0.047880299251870324,0.03351210097108618,
0.04793017456359102,0.021458724558186565,
0.04798004987531172,0.034328079705790146,
0.04802992518703242,0.026248260095678922,
0.048079800498753114,-0.02304614528161838,
0.04812967581047382,0.05214044520377064,
0.04817955112219451,0.021489435394993234,
0.048229426433915215,0.015397951801433132,
0.04827930174563591,0.017462845503648464,
0.048329177057356607,0.036152699854971375,
0.04837905236907731,0.02154328597771941,
0.048428927680798005,0.03826187672758704,
0.0484788029925187,0.034883793837782874,
0.0485286783042394,0.014157452070385481,
0.0485785536159601,0.022121418840330004,
0.048628428927680795,0.03267352338343037,
0.0486783042394015,0.0392456251961072,
0.04872817955112219,0.017925905400796242,
0.048778054862842896,0.04946017120119767,
0.04882793017456359,0.01922249408110116,
0.04887780548628429,0.020000286767402748,
0.04892768079800499,0.013432381008114919,
0.048977556109725685,0.024118011235225736,
0.04902743142144638,0.013032834513061534,
0.049077306733167084,0.037627223334054986,
0.04912718204488778,0.03481483209311924,
0.04917705735660848,0.0003418292749586896,
0.04922693266832918,0.03501013215967794,
0.04927680798004987,0.008639602523771854,
0.049326683291770576,-0.0006826188696324315,
0.04937655860349127,0.02351476248052069,
0.04942643391521197,0.0051479909510719485,
0.04947630922693267,0.03307018337440239,
0.049526184538653366,0.0004644738314052571,
0.04957605985037406,0.022535107419936713,
0.049625935162094764,0.028682218024800726,
0.04967581047381546,0.0019011838080089695,
0.04972568578553616,0.01952761655556337,
0.04977556109725686,0.016607512541613294,
0.049825436408977554,0.019142694198130535,
0.04987531172069826,0.023238222955515656,
0.04992518703241895,0.0316608792513065,
0.04997506234413965,0.021857064974323194,
0.05002493765586035,0.00853684234653893,
0.050074812967581046,0.022454451214324062,
0.05012468827930175,0.042749760091866255,
0.050174563591022445,0.022738477417872577,
0.05022443890274314,0.0610434068784053,
0.05027431421446384,0.0071211799958281995,
0.05032418952618454,0.007450000112159466,
0.050374064837905234,0.018041657669845872,
0.05042394014962594,0.016689073794280293,
0.05047381546134663,0.03408691090587758,
0.05052369077306733,0.022256945449407744,
0.05057356608478803,0.009413974566494166,
0.05062344139650873,0.027297910457935462,
0.05067331670822943,0.017050374058876896,
0.050723192019950125,0.03906399925600608,
0.05077306733167082,0.025031160817273357,
0.050822942643391524,0.0415848535549862,
0.05087281795511222,0.0036671674342761765,
0.050922693266832915,0.00032222840280391254,
0.05097256857855362,0.016344056203151314,
0.05102244389027431,0.030066503958375738,
0.051072319201995016,0.018767483431098197,
0.05112219451371571,0.008640654186419159,
0.05117206982543641,0.010978483094694281,
0.05122194513715711,0.04228086173971997,
0.051271820448877806,0.005992125638259006,
0.0513216957605985,0.026016746905811523,
0.051371571072319204,0.04978699656540275,
0.0514214463840399,0.04477203556609641,
0.051471321695760595,0.041763213109470884,
0.0515211970074813,0.008483109306613393,
0.051571072319201994,0.02384878663042514,
0.051620947630922696,0.010564263802576968,
0.05167082294264339,0.014660664920919119,
0.05172069825436409,0.036649603981895554,
0.05177057356608479,0.013468869326748675,
0.051820448877805486,0.0033599450750264846,
0.05187032418952618,0.020013135790376738,
0.051920199501246884,0.011522681791771131,
0.05197007481296758,0.029468207635795877,
0.052019950124688276,0.006823834045799039,
0.05206982543640898,0.01344958152976063,
0.052119700748129674,0.027924416816152202,
0.05216957605985038,0.008551227586888907,
0.05221945137157107,0.017564453972366827,
0.05226932668329177,-0.008756306197049342,
0.05231920199501247,0.03283019949456095,
0.05236907730673317,-0.003940451585853422,
0.05241895261845386,0.05044565932581156,
0.052468827930174565,-0.0036212701972370316,
0.05251870324189526,-0.0004265878140759082,
0.05256857855361596,0.003629109441036305,
0.05261845386533666,0.0006698975988385873,
0.052668329177057355,0.011240842364699652,
0.05271820448877806,0.021758937440903035,
0.05276807980049875,0.0036836368677105854,
0.05281795511221945,0.013821945077947746,
0.05286783042394015,-0.0054501873557123055,
0.05291770573566085,-0.003219428811693046,
0.05296758104738154,0.021147799585489117,
0.053017456359102245,0.005218389792662062,
0.05306733167082294,0.018979131280432923,
0.053117206982543644,0.014639430650149152,
0.05316708229426434,0.006035667142794335,
0.053216957605985035,0.018655946948543403,
0.05326683291770574,0.009962457739669358,
0.053316708229426434,-0.0013838001184631795,
0.05336658354114713,0.002462467347601859,
0.05341645885286783,0.005669533619934969,
0.05346633416458853,-0.007725054395735264,
0.05351620947630923,0.013772140726502995,
0.053566084788029926,0.0027498216425409444,
0.05361596009975062,-0.006277379322479694,
0.053665835411471324,-0.0034227349879733995,
0.05371571072319202,0.009017610865464128,
0.053765586034912716,0.004353112870408533,
0.05381546134663342,-0.023555863356600988,
0.053865336658354114,-0.004342039077962425,
0.05391521197007481,0.006252322334051798,
0.05396508728179551,0.02501226307643286,
0.05401496259351621,-0.015194892240797647,
0.05406483790523691,-0.0126579881850079,
0.054114713216957606,0.01890857205995345,
0.0541645885286783,-0.00882687126754904,
0.054214463840399005,0.0247371871062637,
0.0542643391521197,0.00955874528581514,
0.054314214463840396,0.010394671482141585,
0.0543640897755611,-0.01656033682432789,
0.054413965087281795,-9.704449696215905e-05,
0.0544638403990025,0.01402871479924392,
0.05451371571072319,-0.004819228731509948,
0.05456359102244389,0.017631640008793404,
0.05461346633416459,0.02411057826860523,
0.05466334164588529,0.02359155754085169,
0.05471321695760598,0.0015086726464499838,
0.054763092269326685,0.002352195982455187,
0.05481296758104738,-0.012139338923544274,
0.05486284289276808,0.03451361686281653,
0.05491271820448878,0.004146541651827111,
0.054962593516209475,-0.010722072056089757,
0.05501246882793018,-0.012819232891320566,
0.05506234413965087,-0.008833165429559885,
0.05511221945137157,-0.018561318529547344,
0.05516209476309227,0.0016712858509548116,
0.05521197007481297,0.020774966590481593,
0.05526184538653366,0.003845602561061377,
0.055311720698254366,-0.02135485468392949,
0.05536159600997506,-0.007448587704887109,
0.05541147132169576,-0.016922526055141347,
0.05546134663341646,-0.014312368671445301,
0.055511221945137156,-0.002297547178555319,
0.05556109725685786,-0.01147121231558834,
0.055610972568578554,-0.009110980797896014,
0.05566084788029925,-0.0012702294660027749,
0.05571072319201995,-0.011663770422007997,
0.05576059850374065,-0.026565261240544678,
0.055810473815461344,-0.008585612178455458,
0.055860349127182046,-0.01758696851655384,
0.05591022443890274,0.00863656832758981,
0.055960099750623445,-0.022493350048987042,
0.05600997506234414,-0.011292810110296262,
0.056059850374064836,0.011048943945103066,
0.05610972568578554,0.012631104882016521,
0.056159600997506234,-0.004459553478848965,
0.05620947630922693,-0.0028573433256015744,
0.05625935162094763,0.005255707420402657,
0.05630922693266833,-0.008042426667662899,
0.056359102244389024,-0.025131872595281768,
0.05640897755610973,-0.015163269642914097,
0.05645885286783042,-0.03685299682342162,
0.056508728179551125,0.00045944754654138505,
0.05655860349127182,0.00982033863997114,
0.056608478802992516,-0.00786742272178304,
0.05665835411471322,-0.013186175934134353,
0.056708229426433915,0.01458444078997332,
0.05675810473815461,0.021588994203254726,
0.05680798004987531,-0.0021235733821192964,
0.05685785536159601,-0.011006767850075684,
0.05690773067331671,-0.01992409184821077,
0.05695760598503741,-0.008665408704364223,
0.0570074812967581,-0.005141661518569337,
0.057057356608478806,-0.011658488339038977,
0.0571072319201995,-0.025928897955555336,
0.0571571072319202,0.0007956292191298748,
0.0572069825436409,0.002922584195360888,
0.057256857855361595,0.011754978168151856,
0.05730673316708229,-0.011315092858839087,
0.057356608478802994,-0.01912774122690034,
0.05740648379052369,0.0213053672759272,
0.05745635910224439,-0.00796767819276001,
0.05750623441396509,0.007401873456045881,
0.05755610972568578,-0.0390410555739726,
0.057605985037406486,0.0026310309625173587,
0.05765586034912718,-0.012499965753975209,
0.05770573566084788,-0.018970271664174608,
0.05775561097256858,0.004938823499612423,
0.057805486284289276,-0.02071240778346206,
0.05785536159600998,-0.017392324675916344,
0.057905236907730674,-0.009990394364549005,
0.05795511221945137,-0.030104231819210396,
0.05800498753117207,-0.0006067931407367343,
0.05805486284289277,-0.017539644766579272,
0.058104738154613464,-0.009524563070249754,
0.05815461346633417,-0.002725650703693492,
0.05820448877805486,0.01676774594497513,
0.05825436408977556,-0.011135202464114697,
0.05830423940149626,-0.03960104832468947,
0.058354114713216956,-0.0021000260786213105,
0.05840399002493766,-0.0029316037088672493,
0.058453865336658355,-0.02293576327929326,
0.05850374064837905,0.013397551451716665,
0.05855361596009975,-0.03743228269994956,
0.05860349127182045,0.001808495821764032,
0.058653366583541144,0.014342450439998152,
0.05870324189526185,-0.009453135776463865,
0.05875311720698254,-0.018942649861060937,
0.05880299251870324,-0.014471841873043552,
0.05885286783042394,-0.04927532591595013,
0.05890274314214464,-0.010709979727198025,
0.05895261845386534,-0.01389777372858156,
0.059002493765586035,-0.014118995682440776,
0.05905236907730673,-0.01805986747058458,
0.059102244389027433,-0.013068355013075104,
0.05915211970074813,-0.01106663047881597,
0.059201995012468825,-0.04075735836222691,
0.05925187032418953,-0.0375963948870989,
0.05930174563591022,-0.017985768476471313,
0.059351620947630926,0.017979251728342464,
0.05940149625935162,-0.0017983290569781596,
0.05945137157107232,-0.019334028330955638,
0.05950124688279302,-0.027294024732255378,
0.059551122194513716,-0.0025037609264113754,
0.05960099750623441,-0.015813764562035454,
0.059650872817955114,-0.008016290174844457,
0.05970074812967581,-0.05467940395325496,
0.059750623441396505,-0.017851431948374376,
0.05980049875311721,-0.03284185685422722,
0.059850374064837904,-0.04840238562907192,
0.059900249376558606,-0.023259319655688976,
0.0599501246882793,-0.007359174779017084,
0.06,-0.017797152440618885,
0.0600498753117207,0.014760881114506184,
0.060099750623441396,0.0028284268961229486,
0.06014962593516209,-0.021078687385929374,
0.060199501246882794,-0.037679638226584294,
0.06024937655860349,-0.028476888799370836,
0.06029925187032419,-0.0024487161030349158,
0.06034912718204489,-0.014540942031019934,
0.060399002493765584,-0.028708059057598087,
0.06044887780548629,-0.0231744350672165,
0.06049875311720698,-0.026234505767275762,
0.06054862842892768,-0.038287333363455536,
0.06059850374064838,-0.011758485067986728,
0.06064837905236908,-0.01754533462961663,
0.06069825436408977,0.0102176004985308,
0.060748129675810475,-0.01153209182610441,
0.06079800498753117,0.003709625519277629,
0.06084788029925187,-0.0170145848073871,
0.06089775561097257,-0.04994824100079162,
0.060947630922693265,-0.017497144367663923,
0.06099750623441397,-0.044203301964190964,
0.06104738154613466,-0.021795864573096728,
0.06109725685785536,0.007906402159826258,
0.06114713216957606,-0.011308030255420445,
0.06119700748129676,0.005765479172547324,
0.06124688279301746,-0.024553985888171585,
0.061296758104738155,-0.03587796361738476,
0.06134663341645885,-0.021731644556455043,
0.061396508728179554,-0.026538831825545076,
0.06144638403990025,-0.022699884484836175,
0.061496259351620945,-0.0021114361782454405,
0.06154613466334165,-0.0171993141319928,
0.061596009975062344,-0.01894697353932786,
0.06164588528678304,-0.025296399673589993,
0.06169576059850374,-0.014445145287913592,
0.06174563591022444,0.007638507004121917,
0.06179551122194514,0.03173413813700475,
0.061845386533665836,0.006584965336278174,
0.06189526184538653,4.2329455835536656e-05,
0.061945137157107234,-0.002472343212355679,
0.06199501246882793,-0.017473466037325476,
0.062044887780548626,0.00242485041281491,
0.06209476309226933,0.003839678854204427,
0.062144638403990024,-0.027607834848339147,
0.06219451371571072,0.018201239347796723,
0.06224438902743142,-0.00812344415460086,
0.06229426433915212,-0.014932534362753894,
0.06234413965087282,-0.017156766874216516,
0.062394014962593516,-0.007470309025901371,
0.06244389027431421,0.007338729380686757,
0.062493765586034915,-0.016671882317456404,
0.06254364089775562,-0.02878230236468283,
0.06259351620947631,0.008127686481852347,
0.06264339152119701,-0.03657272564394911,
0.0626932668329177,-0.016474221407968895,
0.0627431421446384,0.009993176035236563,
0.0627930174563591,-0.01755636633634551,
0.0628428927680798,-0.000769016772340182,
0.0628927680798005,0.0031767214392355815,
0.0629426433915212,-0.0033308460277248907,
0.06299251870324189,-0.006311445210738082,
0.06304239401496259,0.004969729289802534,
0.0630922693266833,0.01047419480649147,
0.063142144638404,-0.005549715029866555,
0.06319201995012469,0.010510254442507376,
0.06324189526184539,-0.005649405041746337,
0.06329177057356608,-0.003954043274813655,
0.06334164588528678,-0.0012914570244157895,
0.06339152119700749,0.0021392845426848987,
0.06344139650872818,-0.002410025495487026,
0.06349127182044888,0.001209418549429595,
0.06354114713216957,0.01629405841348598,
0.06359102244389027,0.0005104979659602831,
0.06364089775561098,0.020621546127533075,
0.06369077306733167,-0.013050754402710385,
0.06374064837905237,0.029816209464370733,
0.06379052369077307,-0.0028032392313344914,
0.06384039900249376,0.03201127486128216,
0.06389027431421446,0.02214437376246298,
0.06394014962593517,-0.0014615463098845531,
0.06399002493765586,0.01171374012813722,
0.06403990024937656,0.017925180701515435,
0.06408977556109725,0.016779166724075083,
0.06413965087281795,-0.004502075134847847,
0.06418952618453866,0.028640572310505576,
0.06423940149625935,0.0028188869777177007,
0.06428927680798005,0.025379457357659344,
0.06433915211970075,0.034806902334456255,
0.06438902743142144,-0.006689359026502521,
0.06443890274314215,-0.0038733204144643773,
0.06448877805486285,0.00904410704488497,
0.06453865336658354,0.010310042355218653,
0.06458852867830424,0.03017175243062778,
0.06463840399002493,0.03297085206353622,
0.06468827930174563,0.00718472112277975,
0.06473815461346634,-0.003925644633055518,
0.06478802992518704,0.02218771661867494,
0.06483790523690773,0.01892684853159743,
0.06488778054862843,-0.015241402776688173,
0.06493765586034912,0.03393438446121254,
0.06498753117206983,0.019832030602530068,
0.06503740648379053,0.01299912926679629,
0.06508728179551122,-0.00017285474509406464,
0.06513715710723192,0.014440879424732085,
0.06518703241895261,0.022812040499335322,
0.06523690773067331,0.009012869088223005,
0.06528678304239402,-0.02438808634356441,
0.06533665835411472,0.025368337056283864,
0.06538653366583541,0.012360824767078067,
0.06543640897755611,0.026177368009161817,
0.0654862842892768,0.011069390688670971,
0.06553615960099751,0.010591566881722891,
0.06558603491271821,0.019539914569067677,
0.0656359102244389,0.01822797139630668,
0.0656857855361596,0.03133368903604368,
0.0657356608478803,0.0344903398658979,
0.06578553615960099,0.035223933628211065,
0.0658354114713217,0.006290064140659383,
0.0658852867830424,0.01782902401180957,
0.06593516209476309,0.027031449506538123,
0.06598503740648379,0.017988764962214344,
0.06603491271820448,0.007864374738245203,
0.06608478802992519,0.01307561999746749,
0.06613466334164589,0.00940237065619098,
0.06618453865336658,0.01665088814469978,
0.06623441396508728,0.0019577829445137328,
0.06628428927680798,0.011193982573369846,
0.06633416458852869,0.024767744143638824,
0.06638403990024938,0.038579408471979854,
0.06643391521197008,0.004072993907193971,
0.06648379052369077,0.012240595698036033,
0.06653366583541147,0.005373002838776389,
0.06658354114713216,0.0366157316609147,
0.06663341645885287,0.0151014688160468,
0.06668329177057357,0.04065449235272912,
0.06673316708229426,-0.02829729883048575,
0.06678304239401496,0.027756810381527785,
0.06683291770573566,0.01496792525668959,
0.06688279301745637,-0.01856210317524467,
0.06693266832917706,0.04329009445579426,
0.06698254364089776,0.043009768378692435,
0.06703241895261845,-0.004514777934059792,
0.06708229426433915,0.03432591637858727,
0.06713216957605984,0.015908254363558846,
0.06718204488778055,0.007958002480318194,
0.06723192019950125,0.003930076215649031,
0.06728179551122195,0.014743613408782783,
0.06733167082294264,0.01761181715589976,
0.06738154613466334,0.014591524225185453,
0.06743142144638405,0.04482407155552215,
0.06748129675810474,0.021228842063647668,
0.06753117206982544,0.015288279334506829,
0.06758104738154613,0.014441634871142962,
0.06763092269326683,0.034204244610152375,
0.06768079800498752,0.028409512488595634,
0.06773067331670823,0.03443536390893729,
0.06778054862842893,0.012587706277637448,
0.06783042394014963,0.017801334908700162,
0.06788029925187032,0.04711091583262346,
0.06793017456359102,0.03377990540180609,
0.06798004987531173,0.026297382530655045,
0.06802992518703242,0.01892420136705524,
0.06807980049875312,0.03341348606969233,
0.06812967581047381,0.04590007733761352,
0.06817955112219451,0.03684937591800689,
0.0682294264339152,0.023402684694560853,
0.06827930174563591,0.04303951725842453,
0.06832917705735661,0.027710269190915977,
0.0683790523690773,0.024301188744877272,
0.068428927680798,0.04427244969779576,
0.0684788029925187,0.03653491342894413,
0.06852867830423941,0.028209044066307584,
0.0685785536159601,0.04989243675972395,
0.0686284289276808,0.05716043445832254,
0.0686783042394015,0.009297343566281716,
0.06872817955112219,0.01451840519176006,
0.0687780548628429,0.007921681527060041,
0.0688279301745636,0.04191963760941374,
0.06887780548628429,0.02643719825802723,
0.06892768079800499,0.03611130146667995,
0.06897755610972568,0.0278171791981879,
0.06902743142144638,0.024887369945256345,
0.06907730673316709,0.05609284129772907,
0.06912718204488778,0.00450641976922941,
0.06917705735660848,0.030847681501427606,
0.06922693266832917,0.024036294463484768,
0.06927680798004987,0.025266100383075526,
0.06932668329177058,0.010978612642409973,
0.06937655860349128,0.0266795876268303,
0.06942643391521197,0.0019147578708000983,
0.06947630922693267,0.020751027290952365,
0.06952618453865336,0.01903118292097035,
0.06957605985037406,0.022341641022115655,
0.06962593516209477,0.021399516112723314,
0.06967581047381546,0.028394547555926648,
0.06972568578553616,0.013696547291896278,
0.06977556109725686,0.014906978858097272,
0.06982543640897755,0.031222143005110815,
0.06987531172069826,0.023467480648340675,
0.06992518703241896,0.04406548007617448,
0.06997506234413965,0.0335995224567422,
0.07002493765586035,0.02202343157296146,
0.07007481296758104,0.01009006378136491,
0.07012468827930174,0.011455471715109416,
0.07017456359102245,0.03939783806884709,
0.07022443890274314,0.027881221225833516,
0.07027431421446384,-0.0070102802142605475,
0.07032418952618454,-0.0037029937516446683,
0.07037406483790523,0.006585643560798181,
0.07042394014962594,0.030275482481363743,
0.07047381546134664,0.007954322924656978,
0.07052369077306733,0.015361627591190797,
0.07057356608478803,0.01334141684940993,
0.07062344139650872,0.022831609332557425,
0.07067331670822943,0.021741444783411428,
0.07072319201995013,0.020364193746903916,
0.07077306733167082,0.026716943106539322,
0.07082294264339152,0.05471575295605528,
0.07087281795511222,0.014166332258058965,
0.07092269326683291,0.02261543830136028,
0.07097256857855362,0.04165519688211389,
0.07102244389027432,0.041892480295814646,
0.07107231920199501,0.0199981445224962,
0.07112219451371571,0.043358664460041885,
0.0711720698254364,0.006891563310990273,
0.07122194513715711,0.006621546240721728,
0.07127182044887781,0.038387201083065314,
0.0713216957605985,0.024882550507306235,
0.0713715710723192,0.02186390188306144,
0.0714214463840399,0.041082698064446685,
0.07147132169576059,0.03580038086350469,
0.0715211970074813,0.04126700845963914,
0.071571072319202,0.0306699085880483,
0.0716209476309227,0.022898830862627183,
0.07167082294264339,0.02786222021375346,
0.07172069825436408,0.026596825163577687,
0.0717705735660848,0.0049447268941763215,
0.07182044887780549,0.023412710636183963,
0.07187032418952619,-0.012622215496229706,
0.07192019950124688,0.018500105992956015,
0.07197007481296758,0.025874399910687282,
0.07201995012468827,-0.015000457356488521,
0.07206982543640898,0.022198938073710275,
0.07211970074812968,0.001911815790541815,
0.07216957605985037,0.0283605428094807,
0.07221945137157107,0.011149533354194677,
0.07226932668329177,0.04623462812192005,
0.07231920199501247,-0.00934786495682065,
0.07236907730673317,0.01932502875321175,
0.07241895261845387,0.005312595790268992,
0.07246882793017456,0.0021202338077034727,
0.07251870324189526,0.019064650979838674,
0.07256857855361595,-0.011267771780903098,
0.07261845386533666,0.013415702572122535,
0.07266832917705736,-5.191233462500944e-06,
0.07271820448877805,0.010466801096881351,
0.07276807980049875,0.01348261127941447,
0.07281795511221945,0.01657152788564106,
0.07286783042394016,0.018046442441790884,
0.07291770573566085,0.024183327811886673,
0.07296758104738155,0.0007429305719301154,
0.07301745635910224,0.016510437790481274,
0.07306733167082294,0.0010146236121567707,
0.07311720698254365,0.010595713041512076,
0.07316708229426434,0.023144188304838574,
0.07321695760598504,0.017379547301046433,
0.07326683291770573,-0.0014191171130443006,
0.07331670822942643,0.011481230253972862,
0.07336658354114713,0.007316770330371546,
0.07341645885286784,0.008849518101408403,
0.07346633416458853,0.0033283467417981336,
0.07351620947630923,0.008692280083946496,
0.07356608478802992,0.026228874827637545,
0.07361596009975062,-0.0022264594758761008,
0.07366583541147133,-0.008867943917754039,
0.07371571072319202,0.032859144318641904,
0.07376558603491272,0.0024225115675718424,
0.07381546134663342,0.010453330144035433,
0.07386533665835411,0.009040393824253428,
0.0739152119700748,0.027939910994473148,
0.07396508728179552,-0.005562046954912582,
0.07401496259351621,0.008914184253954054,
0.07406483790523691,0.020201834724336915,
0.0741147132169576,0.019572159259201295,
0.0741645885286783,-0.006777374580513675,
0.07421446384039901,0.0013993694216045435,
0.0742643391521197,0.015528234050526172,
0.0743142144638404,0.011737796173205414,
0.0743640897755611,-0.006549528765918765,
0.07441396508728179,0.002758283854378784,
0.07446384039900249,0.033898654391295815,
0.0745137157107232,0.0021489709993661944,
0.07456359102244389,0.004148117841810491,
0.07461346633416459,-0.025259872437420297,
0.07466334164588528,0.007070687396576687,
0.07471321695760598,0.014370590865681423,
0.07476309226932669,0.011513256934659691,
0.07481296758104738,0.0021924937274549147,
0.07486284289276808,0.01761079826160861,
0.07491271820448878,0.0042058783458967415,
0.07496259351620947,-0.01889633233077113,
0.07501246882793017,-0.013735752841915517,
0.07506234413965088,-0.0073212689897753916,
0.07511221945137157,-0.011622644535566709,
0.07516209476309227,-0.006081150562173437,
0.07521197007481296,-0.007479329456117001,
0.07526184538653366,-0.009529715062457155,
0.07531172069825437,0.00034018769117534313,
0.07536159600997507,-0.017975428684908125,
0.07541147132169576,0.00947683535438833,
0.07546134663341646,0.005794885664708492,
0.07551122194513715,0.0005242850979244994,
0.07556109725685786,0.022359772031356685,
0.07561097256857856,-0.010683746578378598,
0.07566084788029925,-0.0014381748425242149,
0.07571072319201995,-0.004868368951340774,
0.07576059850374064,-0.006639888877855909,
0.07581047381546134,-0.009635889083961445,
0.07586034912718205,-0.018143451753336898,
0.07591022443890275,0.001088647671961867,
0.07596009975062344,-0.017941412679428677,
0.07600997506234414,-0.0034075957739270603,
0.07605985037406483,-0.028612782343729066,
0.07610972568578554,-0.021540458459867823,
0.07615960099750624,-0.020816321153846164,
0.07620947630922693,-0.00939171633590547,
0.07625935162094763,0.008860420658359422,
0.07630922693266833,-0.001276062801041587,
0.07635910224438902,0.00037098954678827997,
0.07640897755610973,0.02126115333415505,
0.07645885286783043,-0.007811463173691418,
0.07650872817955112,-0.010036981973418076,
0.07655860349127182,0.011333991404986365,
0.07660847880299251,-0.012768676878028965,
0.07665835411471322,0.0050719270168766255,
0.07670822942643392,0.010999077511772398,
0.07675810473815461,0.03330378110095133,
0.07680798004987531,-0.002232678610390855,
0.076857855361596,-0.013374691914988418,
0.0769077306733167,-0.024169580269869824,
0.07695760598503741,-0.014505992852063564,
0.0770074812967581,-0.015911840566290702,
0.0770573566084788,0.011222557455554252,
0.0771072319201995,0.006102080434760512,
0.0771571072319202,-0.00671982384675974,
0.0772069825436409,-0.006366607905617197,
0.0772568578553616,-0.009585097040118382,
0.0773067331670823,0.010644474008347282,
0.07735660847880299,0.03024741925765439,
0.07740648379052369,-0.010027834021786492,
0.0774563591022444,-0.03443045023164367,
0.07750623441396509,-0.04031202861936433,
0.07755610972568579,-0.017270020844139984,
0.07760598503740648,-0.02274456641750655,
0.07765586034912718,-0.022025221761429403,
0.07770573566084787,-0.010842891254479188,
0.07775561097256858,-0.013207645355305145,
0.07780548628428928,-0.014212857420023841,
0.07785536159600998,-0.0031559575352933036,
0.07790523690773067,0.008914231233773363,
0.07795511221945137,-0.006637069931211872,
0.07800498753117208,-3.600874819233851e-05,
0.07805486284289277,0.010402027489306673,
0.07810473815461347,-0.02637059893318854,
0.07815461346633416,-0.038965663732035624,
0.07820448877805486,0.009896899983171711,
0.07825436408977555,-0.030145394351633686,
0.07830423940149626,-0.01740505116980853,
0.07835411471321696,-0.01372898966654287,
0.07840399002493766,-0.024897739546819668,
0.07845386533665835,-0.013474332424490282,
0.07850374064837905,-0.0004433887079089843,
0.07855361596009976,-0.02009273703558525,
0.07860349127182045,-0.000816835045745248,
0.07865336658354115,-0.01116024442698341,
0.07870324189526184,-0.01222327078974857,
0.07875311720698254,-0.02392234300744419,
0.07880299251870324,-0.027864789256101495,
0.07885286783042394,0.000813939745072453,
0.07890274314214464,0.00551677516437293,
0.07895261845386534,-0.032436197357793614,
0.07900249376558603,-0.012233082697120083,
0.07905236907730673,-0.01940131643291572,
0.07910224438902744,-0.018791647446887945,
0.07915211970074813,0.0016848984649480581,
0.07920199501246883,-0.011157097769102573,
0.07925187032418952,-0.019244075907186305,
0.07930174563591022,0.011102075609469297,
0.07935162094763092,-0.051589463495755536,
0.07940149625935163,0.01329296898720389,
0.07945137157107232,-0.02052405788672283,
0.07950124688279302,-0.0030307449892997447,
0.07955112219451371,-0.022355963686690947,
0.07960099750623441,-0.013944461299030682,
0.07965087281795512,-0.01321137027738139,
0.07970074812967581,-0.0005157225506355403,
0.07975062344139651,0.019299572508135632,
0.0798004987531172,-0.009850269366658167,
0.0798503740648379,-0.01895451112726108,
0.07990024937655861,0.0035071164506926492,
0.0799501246882793,-0.0201212572148546,
0.08,-0.027632233817927194,
0.0800498753117207,-0.021342671381753112,
0.0800997506234414,-0.009468102568430965,
0.08014962593516209,-0.0103104378243964,
0.0801995012468828,-0.020534873805377024,
0.0802493765586035,-0.024637081386409767,
0.08029925187032419,-0.013239412210952053,
0.08034912718204489,-0.017922124960547292,
0.08039900249376558,-0.023485763939872555,
0.08044887780548629,-0.0006214997777161026,
0.08049875311720699,-0.01594069169107911,
0.08054862842892768,-0.013940079396245525,
0.08059850374064838,-0.017916473128469102,
0.08064837905236907,-0.04348490287602715,
0.08069825436408977,0.009541877788290333,
0.08074812967581048,-0.03512623067020602,
0.08079800498753117,-0.00619767688935721,
0.08084788029925187,0.022281038794459952,
0.08089775561097257,0.002493356940859514,
0.08094763092269326,-0.001741719088200833,
0.08099750623441397,-0.026319184526714407,
0.08104738154613467,-0.04061414455865645,
0.08109725685785536,0.0009792579512047928,
0.08114713216957606,-0.012964342546531915,
0.08119700748129675,-0.011511867677590017,
0.08124688279301745,-0.012879529462823634,
0.08129675810473816,0.003068976646511675,
0.08134663341645886,-0.00352531521887018,
0.08139650872817955,0.001848524675975679,
0.08144638403990025,0.01932581582097057,
0.08149625935162094,-0.045211282761044,
0.08154613466334165,0.008584795379884307,
0.08159600997506235,-0.020004286217970416,
0.08164588528678304,0.0041113234545002994,
0.08169576059850374,-0.004361718432115456,
0.08174563591022443,-0.009791093341514345,
0.08179551122194513,0.006247681454371225,
0.08184538653366584,0.008915139370018265,
0.08189526184538654,-0.024420762018373957,
0.08194513715710723,0.007786682992408652,
0.08199501246882793,-0.007618209275849176,
0.08204488778054862,-0.0076885441467102545,
0.08209476309226933,-0.006823196218503679,
0.08214463840399003,0.008946764239900025,
0.08219451371571072,-0.010957417480053366,
0.08224438902743142,0.0032945895008255465,
0.08229426433915212,-0.010165904746653773,
0.08234413965087282,0.005622047601344578,
0.08239401496259352,-4.71101765412759e-05,
0.08244389027431422,0.001950311298439718,
0.08249376558603491,0.0052895985764773445,
0.08254364089775561,0.023854394586275623,
0.0825935162094763,0.007129536777196239,
0.08264339152119701,-0.005816948592801335,
0.08269326683291771,0.0025877933781599193,
0.0827431421446384,0.006145434520055534,
0.0827930174563591,-0.027580051360793615,
0.0828428927680798,-0.020996874816263236,
0.0828927680798005,-2.659239904853718e-05,
0.0829426433915212,0.005462499835988249,
0.0829925187032419,0.02038581339236407,
0.08304239401496259,0.0071234879215978895,
0.08309226932668329,-0.009918469263262678,
0.08314214463840398,0.0071588384641544,
0.0831920199501247,-0.0014373398684931582,
0.08324189526184539,0.0009451143386794165,
0.08329177057356608,-0.0032904354782249037,
0.08334164588528678,-0.015666953619306895,
0.08339152119700748,0.007047144019486275,
0.08344139650872819,0.025471638424326197,
0.08349127182044888,0.006540799407141074,
0.08354114713216958,0.017306312790008167,
0.08359102244389027,-0.015156193125671428,
0.08364089775561097,0.0008471067200927305,
0.08369077306733166,0.003304543162390058,
0.08374064837905237,0.0045024607241983955,
0.08379052369077307,-2.050103213419377e-05,
0.08384039900249377,-0.0069689651052433875,
0.08389027431421446,-0.006213859600878895,
0.08394014962593516,0.008899540703963382,
0.08399002493765587,0.011306526090385282,
0.08403990024937656,0.01649633323125821,
0.08408977556109726,-0.006136629566165634,
0.08413965087281795,0.02729282693565301,
0.08418952618453865,0.02611520576148625,
0.08423940149625936,0.036280348612573364,
0.08428927680798005,0.01844298951525976,
0.08433915211970075,0.032145083076460926,
0.08438902743142145,0.04363849291932716,
0.08443890274314214,0.009188310283772953,
0.08448877805486284,-0.008422079327394107,
0.08453865336658355,0.006170326852618189,
0.08458852867830424,0.009046015633521153,
0.08463840399002494,-0.008978241069062694,
0.08468827930174563,0.01710684037693394,
0.08473815461346633,0.04945892934887588,
0.08478802992518704,0.0030342579339684896,
0.08483790523690773,0.008437649014915154,
0.08488778054862843,0.0005960648866890472,
0.08493765586034913,0.033498531183322376,
0.08498753117206982,-0.001471383958778558,
0.08503740648379052,0.015440876406382444,
0.08508728179551123,0.02069434161360026,
0.08513715710723192,0.03777655719266576,
0.08518703241895262,0.01617180858287857,
0.08523690773067331,0.03448553672277356,
0.08528678304239401,0.04106174302770142,
0.08533665835411472,0.025438254392232795,
0.08538653366583542,-0.00439123524479966,
0.08543640897755611,0.026774369842708118,
0.0854862842892768,0.0033616920798505475,
0.0855361596009975,0.03335204530487741,
0.0855860349127182,-0.004338531802762828,
0.08563591022443891,0.01408304502297738,
0.0856857855361596,0.024283504442103365,
0.0857356608478803,0.029090641569593054,
0.085785536159601,0.0028507910081149897,
0.08583541147132169,0.039055829696831856,
0.0858852867830424,0.018611173783566342,
0.0859351620947631,0.014368607909358424,
0.08598503740648379,-0.011993533151934792,
0.08603491271820449,-0.005986798298989866,
0.08608478802992518,0.039659508162732116,
0.08613466334164588,0.01876546382387899,
0.08618453865336659,0.03268878118515111,
0.08623441396508728,0.051175364593760105,
0.08628428927680798,0.02741224061182015,
0.08633416458852868,0.024473666627028837,
0.08638403990024937,0.026372598686174566,
0.08643391521197008,0.005907638006603832,
0.08648379052369078,0.0368283480918853,
0.08653366583541147,0.003262890226677806,
0.08658354114713217,0.025564806511365938,
0.08663341645885286,0.027946329470902316,
0.08668329177057357,0.02204868432388355,
0.08673316708229427,0.010304861795864477,
0.08678304239401496,0.0006545534564271656,
0.08683291770573566,0.042651626530417784,
0.08688279301745636,0.02533330863914562,
0.08693266832917705,0.04175666912716346,
0.08698254364089776,0.02995766674783449,
0.08703241895261846,0.025056258030036447,
0.08708229426433915,0.020774192123725874,
0.08713216957605985,0.039550312295040434,
0.08718204488778054,0.04195495472202064,
0.08723192019950125,0.030969755125978864,
0.08728179551122195,0.037691320399159504,
0.08733167082294264,0.04168818963125047,
0.08738154613466334,0.03195809598956782,
0.08743142144638404,0.042082665897082774,
0.08748129675810473,0.018493300082433193,
0.08753117206982544,0.00956634751083895,
0.08758104738154614,0.02760508578601216,
0.08763092269326683,0.046893577830223056,
0.08768079800498753,0.046124856814933016,
0.08773067331670822,0.010594959874200068,
0.08778054862842893,0.012115256560365153,
0.08783042394014963,-0.0040468004196181455,
0.08788029925187033,0.02807886066251836,
0.08793017456359102,0.016472232253776233,
0.08798004987531172,0.029608526911941203,
0.08802992518703241,0.03909980609005164,
0.08807980049875312,0.025162041009168565,
0.08812967581047382,0.031710684557694775,
0.08817955112219451,0.027228818116280293,
0.08822942643391521,0.009975090004742171,
0.0882793017456359,0.02810273616991847,
0.08832917705735661,0.0336503273029815,
0.08837905236907731,0.035913882587755505,
0.088428927680798,0.05159538102752066,
0.0884788029925187,0.02339059361807333,
0.0885286783042394,0.02175904047686286,
0.0885785536159601,0.032034133186136036,
0.0886284289276808,0.02397597054166152,
0.0886783042394015,0.019664317455498452,
0.0887281795511222,0.013743148991421789,
0.08877805486284289,0.0064409535933928515,
0.08882793017456359,0.029163432357346072,
0.0888778054862843,0.02345570644695697,
0.08892768079800499,0.005996504157357339,
0.08897755610972569,0.015791125786075555,
0.08902743142144638,0.026973357255850167,
0.08907730673316708,0.01730541691968008,
0.08912718204488779,0.01758735829939878,
0.08917705735660848,0.014220814151114003,
0.08922693266832918,0.044400060467629565,
0.08927680798004987,0.03125376019439267,
0.08932668329177057,0.025407096273368686,
0.08937655860349127,0.05070949128111439,
0.08942643391521198,0.03991865853825931,
0.08947630922693267,0.03343099674609288,
0.08952618453865337,0.026725410009193252,
0.08957605985037406,0.028496760976468992,
0.08962593516209476,0.012533972196832345,
0.08967581047381547,0.036733951605865046,
0.08972568578553616,0.024575355198195672,
0.08977556109725686,0.029729396759237244,
0.08982543640897755,0.01904409275399446,
0.08987531172069825,0.040745171723697654,
0.08992518703241895,0.034251895425503366,
0.08997506234413966,0.02552617993140072,
0.09002493765586035,0.028979437080488023,
0.09007481296758105,0.03512831639619601,
0.09012468827930174,0.008043552428990165,
0.09017456359102244,0.03144745971090905,
0.09022443890274315,0.02682252000345146,
0.09027431421446384,0.005934689623754839,
0.09032418952618454,0.0449733900079068,
0.09037406483790524,0.03422374330221086,
0.09042394014962593,-0.0015797654537097958,
0.09047381546134663,0.006492599116773287,
0.09052369077306734,0.017377373944828342,
0.09057356608478803,0.03789148304905404,
0.09062344139650873,0.032183105026632214,
0.09067331670822942,0.036458346155456685,
0.09072319201995012,0.02306472493852793,
0.09077306733167083,0.041488155392399306,
0.09082294264339152,0.02685567377689115,
0.09087281795511222,0.028940731417562808,
0.09092269326683292,0.008845429385945803,
0.09097256857855361,0.032532947535209605,
0.09102244389027432,0.0021281839624641453,
0.09107231920199502,0.029401302453398774,
0.09112219451371571,0.04801964564129195,
0.09117206982543641,0.021312624465774935,
0.0912219451371571,0.027290070780769688,
0.0912718204488778,0.02220778967704201,
0.09132169576059851,0.006623150339215896,
0.0913715710723192,0.03957938232862547,
0.0914214463840399,-0.0038699960701075176,
0.0914713216957606,0.015468944303802572,
0.09152119700748129,0.027143852988268307,
0.091571072319202,0.02460650942479731,
0.0916209476309227,0.013605777831046044,
0.09167082294264339,0.06028306350518987,
0.09172069825436409,0.027582077381842787,
0.09177057356608478,0.012646854658585012,
0.09182044887780548,0.015401424981136724,
0.09187032418952619,-0.013276267969181303,
0.09192019950124689,0.015597578557534828,
0.09197007481296758,0.0021969528369536993,
0.09201995012468828,0.024449359707954664,
0.09206982543640897,0.0016226341370443598,
0.09211970074812968,0.020131774148704703,
0.09216957605985038,0.021458447575290692,
0.09221945137157107,0.0230963796303757,
0.09226932668329177,0.009800297449364065,
0.09231920199501246,0.03269618396965131,
0.09236907730673316,0.0292728392228937,
0.09241895261845387,0.014125636828803922,
0.09246882793017457,0.025826513368372536,
0.09251870324189526,0.007189411420489331,
0.09256857855361596,0.022467262454933024,
0.09261845386533665,0.0455688389315101,
0.09266832917705736,0.029074731092327902,
0.09271820448877806,0.017813609342059944,
0.09276807980049875,0.0038301981662097646,
0.09281795511221945,0.005275146217721091,
0.09286783042394015,0.01746233912700563,
0.09291770573566084,0.030959896034868862,
0.09296758104738155,0.024076702214024054,
0.09301745635910225,0.014358929457271177,
0.09306733167082294,0.01665690411126221,
0.09311720698254364,0.0034123436264659954,
0.09316708229426433,0.035375921074226255,
0.09321695760598504,0.010516203159372673,
0.09326683291770574,0.01674998273770531,
0.09331670822942643,0.020312127112340712,
0.09336658354114713,-0.008428479888592647,
0.09341645885286783,0.021652378169643827,
0.09346633416458854,-0.0012987027941950037,
0.09351620947630923,0.007204353401359486,
0.09356608478802993,0.03229892533358847,
0.09361596009975062,0.009180474824558691,
0.09366583541147132,0.011335800196099756,
0.09371571072319201,0.02396818769344495,
0.09376558603491272,0.015745286428234872,
0.09381546134663342,0.04564086175371108,
0.09386533665835411,0.008186176269852066,
0.09391521197007481,0.021429969483007613,
0.0939650872817955,0.017089180491161652,
0.09401496259351622,-0.009676406357529126,
0.09406483790523691,0.028126779119969615,
0.09411471321695761,0.004149660059655126,
0.0941645885286783,0.022936854364519785,
0.094214463840399,-0.005921633695571988,
0.0942643391521197,0.011045437978731015,
0.0943142144638404,-0.019064629991410724,
0.0943640897755611,0.00455423570937406,
0.0944139650872818,-0.005272233031045447,
0.09446384039900249,-0.007488260050358915,
0.09451371571072319,0.0017653095634855842,
0.0945635910224439,0.006601659694385061,
0.09461346633416459,0.009809116170661318,
0.09466334164588529,0.010038466976761647,
0.09471321695760598,-0.004437059816073325,
0.09476309226932668,0.024451815994130745,
0.09481296758104737,-0.027237132965023107,
0.09486284289276808,0.013993164555944664,
0.09491271820448878,0.018179024986470785,
0.09496259351620948,-0.021083072163436124,
0.09501246882793017,-0.015977968879953456,
0.09506234413965087,0.0036333238833151614,
0.09511221945137158,0.018060981338922918,
0.09516209476309227,0.006499816627244658,
0.09521197007481297,-0.00685591259201663,
0.09526184538653366,-0.012113572091954461,
0.09531172069825436,0.016425098267339074,
0.09536159600997507,-0.003778378418354717,
0.09541147132169576,0.021439809465739305,
0.09546134663341646,0.0009064903860218528,
0.09551122194513716,0.0009143587284102558,
0.09556109725685785,-0.022620964562387054,
0.09561097256857855,-0.019004825911497852,
0.09566084788029926,-0.031758858760638865,
0.09571072319201995,-0.017263055334283562,
0.09576059850374065,-0.010719562282677631,
0.09581047381546134,-0.002335888438183542,
0.09586034912718204,-0.007428872399793647,
0.09591022443890275,0.030647574548476636,
0.09596009975062345,-0.0036045940991712468,
0.09600997506234414,-0.017752391961711717,
0.09605985037406484,0.007228018094581861,
0.09610972568578553,-0.01251962758687953,
0.09615960099750623,0.008296507383539698,
0.09620947630922694,0.022739893294296203,
0.09625935162094763,0.013578958825003247,
0.09630922693266833,-0.042738092213265744,
0.09635910224438902,0.01552929562386944,
0.09640897755610972,-0.029012306809966776,
0.09645885286783043,-0.020094291459547664,
0.09650872817955113,-0.002456371366597751,
0.09655860349127182,0.00028315505843068325,
0.09660847880299252,-0.013741672916943573,
0.09665835411471321,0.0004577292986942382,
0.09670822942643391,-0.005456371052764371,
0.09675810473815462,-0.028392078447589897,
0.09680798004987531,-0.016051720678919974,
0.09685785536159601,0.00029569143466507894,
0.0969077306733167,-2.5666347562985914e-05,
0.0969576059850374,-0.025650364318398452,
0.09700748129675811,0.04815678621958319,
0.0970573566084788,0.0007370597824756745,
0.0971072319201995,0.020220487710246385,
0.0971571072319202,-0.005691584918561823,
0.0972069825436409,-0.002586002159897893,
0.09725685785536159,-0.016950107229539463,
0.0973067331670823,-0.012681074703699072,
0.097356608478803,0.009625843837160766,
0.09740648379052369,-0.024256033315060613,
0.09745635910224439,-0.020180069002944688,
0.09750623441396508,0.006813582837000891,
0.09755610972568579,0.014068298947947002,
0.09760598503740649,0.01467138480542839,
0.09765586034912718,-0.011969883206526378,
0.09770573566084788,-0.04539037236347432,
0.09775561097256857,-0.0075067310563175105,
0.09780548628428928,0.009289086071212722,
0.09785536159600998,-0.015721059215398615,
0.09790523690773068,-0.021069010446677375,
0.09795511221945137,-0.020076538649366572,
0.09800498753117207,0.004605133888320567,
0.09805486284289276,-0.023505750572954034,
0.09810473815461347,-0.02175952806943094,
0.09815461346633417,-0.0138502148815902,
0.09820448877805486,0.012866831373885897,
0.09825436408977556,-0.04090717784674719,
0.09830423940149625,-0.0066883083020701116,
0.09835411471321696,-0.016823758151906683,
0.09840399002493766,-0.035276613953254474,
0.09845386533665836,0.009261273084457969,
0.09850374064837905,-0.014556609924348922,
0.09855361596009975,-0.0034730179468071224,
0.09860349127182044,0.0030471458648768934,
0.09865336658354115,-0.014680055284913472,
0.09870324189526185,-0.022870062465968368,
0.09875311720698254,-0.018424094207397282,
0.09880299251870324,-0.009599618102324837,
0.09885286783042393,-0.00031985471695146657,
0.09890274314214464,0.0037617620815535453,
0.09895261845386534,-0.01916001120201662,
0.09900249376558604,-0.021828329111163378,
0.09905236907730673,-0.03542944212631592,
0.09910224438902743,-0.02639733116533819,
0.09915211970074812,-0.0009305714232927306,
0.09920199501246883,-0.012282578388301803,
0.09925187032418953,-0.018649859194207027,
0.09930174563591022,0.012223309742337513,
0.09935162094763092,0.004563751372374527,
0.09940149625935162,-0.027213127013426666,
0.09945137157107233,-0.0078961923790639,
0.09950124688279302,-0.046452243053635926,
0.09955112219451372,-0.03487679960532179,
0.09960099750623441,-0.00828323963292939,
0.09965087281795511,-0.00558893370109463,
0.0997007481296758,-0.032850872105335445,
0.09975062344139651,-0.02632704575993789,
0.09980049875311721,-0.0029350498161941543,
0.0998503740648379,-0.0017193735126481927,
0.0999002493765586,-0.004691871139216992,
0.0999501246882793,-0.010211035619671344,
0.1,0.00031493891841188025,
0.1000498753117207,-0.011914983106943822,
0.1000997506234414,0.0002807491565769548,
0.10014962593516209,-0.0029456604173277463,
0.10019950124688279,-0.001807406714468442,
0.1002493765586035,-0.008457720645712591,
0.1002992518703242,-0.030353281033699137,
0.10034912718204489,-0.0029503779265726317,
0.10039900249376559,-0.010118769495601117,
0.10044887780548628,-0.010320147391664987,
0.10049875311720698,-0.01744228623739312,
0.10054862842892769,-9.735786969652244e-05,
0.10059850374064838,-0.008716333049317342,
0.10064837905236908,-0.029128198476822995,
0.10069825436408977,-0.02578857691656095,
0.10074812967581047,0.017566082856428276,
0.10079800498753118,-0.023786151339166606,
0.10084788029925187,-0.008667384411578414,
0.10089775561097257,-0.029401431357426983,
0.10094763092269327,-0.032294575431486144,
0.10099750623441396,-0.014275248485725289,
0.10104738154613466,0.0022229244169799482,
0.10109725685785537,0.0033715016563713868,
0.10114713216957606,-0.02524669897475162,
0.10119700748129676,0.021880106720674693,
0.10124688279301745,-0.005102007589536797,
0.10129675810473815,0.01556975873781212,
0.10134663341645886,-0.020303542774249294,
0.10139650872817955,0.015448081066973238,
0.10144638403990025,-0.0028581118684896222,
0.10149625935162095,-0.009405687064294344,
0.10154613466334164,-0.03815779296100939,
0.10159600997506234,-0.001069593650420672,
0.10164588528678305,-0.0028901763314982784,
0.10169576059850374,-0.010993902486964583,
0.10174563591022444,0.0025146512292375826,
0.10179551122194513,0.02872044221863336,
0.10184538653366583,-0.005422904007616377,
0.10189526184538654,-0.0053499838406870955,
0.10194513715710724,-0.003447420714752345,
0.10199501246882793,-0.011272757283110613,
0.10204488778054863,-0.04801518540492454,
0.10209476309226932,-0.0037776995115358838,
0.10214463840399003,-0.007092335412555069,
0.10219451371571073,-0.02219007606294443,
0.10224438902743142,-0.007763741767362521,
0.10229426433915212,-0.006518956595208687,
0.10234413965087281,0.010241016242518509,
0.10239401496259351,-0.003040509783175804,
0.10244389027431422,-0.025181269310445255,
0.10249376558603492,-0.00967729099631445,
0.10254364089775561,-0.02087470604625776,
0.10259351620947631,-0.0036384148150179125,
0.102643391521197,-0.007650919471968527,
0.10269326683291771,-0.002895274829542661,
0.10274314214463841,0.0035710524273212447,
0.1027930174563591,-0.022715771560880053,
0.1028428927680798,-0.010418134609400501,
0.1028927680798005,-0.01978152748935978,
0.10294264339152119,0.038636074093947995,
0.1029925187032419,0.0015414602449238125,
0.1030423940149626,0.014616294467032458,
0.10309226932668329,0.010376666092227663,
0.10314214463840399,0.017760929031350074,
0.10319201995012468,0.0023519729744222242,
0.10324189526184539,0.009385305176756148,
0.10329177057356609,0.03722107559280585,
0.10334164588528678,0.006594517430037327,
0.10339152119700748,-0.007076380240152317,
0.10344139650872818,0.013285803877125947,
0.10349127182044887,0.014021183800108163,
0.10354114713216958,-0.01808458867321352,
0.10359102244389028,0.008085635604209452,
0.10364089775561097,0.026831135566577104,
0.10369077306733167,0.015840201409268614,
0.10374064837905236,0.013660577670616113,
0.10379052369077307,0.01680791905615623,
0.10384039900249377,0.026544766299947693,
0.10389027431421446,0.02766469494420403,
0.10394014962593516,-0.0044612287003988685,
0.10399002493765586,-0.016352638929981195,
0.10403990024937655,-0.01687065313642524,
0.10408977556109726,-0.006481719320957686,
0.10413965087281796,0.01643892924300771,
0.10418952618453865,-0.0041962330325614385,
0.10423940149625935,-0.013775169230954561,
0.10428927680798004,0.013686956915952056,
0.10433915211970075,0.04474849418415268,
0.10438902743142145,-0.005829239193321425,
0.10443890274314215,0.02029061178213379,
0.10448877805486284,0.012249219539439743,
0.10453865336658354,0.02938251242007846,
0.10458852867830425,-0.03147237333490414,
0.10463840399002494,-0.0002775021221121613,
0.10468827930174564,0.030327534044306777,
0.10473815461346633,-0.001592339883295043,
0.10478802992518703,0.018307363912618196,
0.10483790523690772,0.004882057478912762,
0.10488778054862843,0.013505588304081724,
0.10493765586034913,0.00822033364238256,
0.10498753117206983,0.0023491657498760643,
0.10503740648379052,0.005412644610724927,
0.10508728179551122,0.027359594119755533,
0.10513715710723193,0.01667032228383964,
0.10518703241895262,0.024199662138779776,
0.10523690773067332,0.013578776277076626,
0.10528678304239401,0.015329937980824777,
0.10533665835411471,0.017574286187329344,
0.1053865336658354,0.03288994769999326,
0.10543640897755611,0.02962414971908431,
0.10548628428927681,0.020719666141298672,
0.1055361596009975,0.03539587965903411,
0.1055860349127182,-0.015593599558492866,
0.1056359102244389,0.03687949093365897,
0.10568578553615961,0.001854003904697931,
0.1057356608478803,0.013554905069239936,
0.105785536159601,0.015760768715151842,
0.1058354114713217,0.029169828748291653,
0.10588528678304239,0.006529817034777213,
0.10593516209476309,-0.00549827580520295,
0.1059850374064838,0.025270895223611006,
0.10603491271820449,0.01561679056822361,
0.10608478802992519,0.033664916979896035,
0.10613466334164588,0.021554606686461066,
0.10618453865336658,0.03040982714112202,
0.10623441396508729,0.020058450417573113,
0.10628428927680798,0.008118102684541604,
0.10633416458852868,0.02381394385366288,
0.10638403990024937,0.03759211962368794,
0.10643391521197007,-0.010339804112082022,
0.10648379052369077,0.019296253144472517,
0.10653366583541148,-0.00852428871521406,
0.10658354114713217,0.03265569866700052,
0.10663341645885287,0.0205904261939518,
0.10668329177057356,0.007747375858111768,
0.10673316708229426,0.026260232538759976,
0.10678304239401497,0.03739781207875553,
0.10683291770573566,0.021152211318426484,
0.10688279301745636,0.023903362754580573,
0.10693266832917706,0.00485581248089156,
0.10698254364089775,0.010478462583364243,
0.10703241895261846,0.024622902843858752,
0.10708229426433916,-0.015515458884609437,
0.10713216957605985,0.0015370212273006223,
0.10718204488778055,0.020324293927099734,
0.10723192019950124,0.04393626966035889,
0.10728179551122194,0.030769358938755383,
0.10733167082294265,0.02843374492280642,
0.10738154613466334,0.01925204806869164,
0.10743142144638404,0.044544210760874815,
0.10748129675810474,0.08131467103934295,
0.10753117206982543,0.019769629773475343,
0.10758104738154614,0.01530750217710569,
0.10763092269326684,0.013908511824952688,
0.10768079800498753,0.016257961004362782,
0.10773067331670823,0.04439172070558303,
0.10778054862842892,0.04564164045663361,
0.10783042394014962,0.04128257683496936,
0.10788029925187033,0.014704880394120266,
0.10793017456359102,0.04373829822532886,
0.10798004987531172,0.019893242491155917,
0.10802992518703242,0.014164171865502898,
0.10807980049875311,0.03960334080150403,
0.10812967581047382,0.02172436965272633,
0.10817955112219452,0.03317909963688629,
0.10822942643391521,0.035246764328089826,
0.10827930174563591,0.0411997403840316,
0.1083291770573566,0.029150293872537335,
0.1083790523690773,0.02373710114262299,
0.10842892768079801,0.032667627927755925,
0.1084788029925187,0.02259587914966156,
0.1085286783042394,0.04405241133154271,
0.1085785536159601,0.028890723160895738,
0.10862842892768079,0.010840416597008438,
0.1086783042394015,0.01566679349310729,
0.1087281795511222,0.010646769601389397,
0.1087780548628429,0.017364246269610903,
0.10882793017456359,0.03611944578240239,
0.10887780548628428,0.029664631359067058,
0.108927680798005,0.03480701728458385,
0.10897755610972569,0.031849338454079355,
0.10902743142144639,0.023108368097547696,
0.10907730673316708,0.03805648149261162,
0.10912718204488778,0.015931892108591555,
0.10917705735660847,0.021153806110353474,
0.10922693266832918,0.018994771181720133,
0.10927680798004988,0.007936572139172957,
0.10932668329177057,0.03531873824961571,
0.10937655860349127,0.025118093866864692,
0.10942643391521197,0.023364425514731106,
0.10947630922693267,0.015454031861619807,
0.10952618453865337,0.0016944411680387302,
0.10957605985037407,0.003483984031051518,
0.10962593516209476,0.022700114790844023,
0.10967581047381546,0.008142072500786718,
0.10972568578553615,0.039369869386785036,
0.10977556109725686,0.013949178046638257,
0.10982543640897756,0.03379685068041252,
0.10987531172069825,0.03780840307691127,
0.10992518703241895,0.011043347608901258,
0.10997506234413965,0.056729541522058,
0.11002493765586036,0.034463547885275614,
0.11007481296758105,0.037937956456876504,
0.11012468827930175,0.013469382792625294,
0.11017456359102244,0.013871194737224857,
0.11022443890274314,0.03219752430453778,
0.11027431421446383,0.01953045229600625,
0.11032418952618454,0.02532630295318061,
0.11037406483790524,0.029858811815895184,
0.11042394014962593,0.03808475653664686,
0.11047381546134663,0.03599911167905844,
0.11052369077306733,0.0001921240087526116,
0.11057356608478804,0.02155697301633154,
0.11062344139650873,0.015174860467660003,
0.11067331670822943,0.01914652604298587,
0.11072319201995012,0.02262041701428778,
0.11077306733167082,0.023304353051682786,
0.11082294264339151,0.02381833497772072,
0.11087281795511222,0.012360073705332921,
0.11092269326683292,0.012432939084855021,
0.11097256857855362,0.03737256312715015,
0.11102244389027431,0.019683828092996923,
0.111072319201995,0.04524094008568257,
0.11112219451371572,0.027727105672451284,
0.11117206982543641,0.007506901668443335,
0.11122194513715711,0.015814311671012396,
0.1112718204488778,0.009676126348319818,
0.1113216957605985,-0.001364841405262069,
0.11137157107231921,0.03444097371579971,
0.1114214463840399,0.027667032947196996,
0.1114713216957606,0.03485236384256789,
0.1115211970074813,0.010222429429780092,
0.11157107231920199,0.029547093241144864,
0.11162094763092269,0.04111055687483875,
0.1116708229426434,-0.0002925328827983499,
0.11172069825436409,0.04019792484757874,
0.11177057356608479,0.03592421210720036,
0.11182044887780548,0.014152945770647471,
0.11187032418952618,0.02521939346339948,
0.11192019950124689,0.004454038977480805,
0.11197007481296758,0.01394424453107612,
0.11201995012468828,0.0008548212612648973,
0.11206982543640898,0.02015442561177703,
0.11211970074812967,0.006824906085727131,
0.11216957605985037,-0.0027327523692131026,
0.11221945137157108,0.01758035361020176,
0.11226932668329177,0.011280002306115769,
0.11231920199501247,0.040574527358340794,
0.11236907730673316,0.024542135152991224,
0.11241895261845386,0.029421486223080134,
0.11246882793017457,0.023706524723983092,
0.11251870324189527,0.03643561360546704,
0.11256857855361596,-0.007867117668068257,
0.11261845386533666,-0.004570049636295252,
0.11266832917705735,0.015696349492472377,
0.11271820448877805,0.01136490435593068,
0.11276807980049876,0.0020328009969497827,
0.11281795511221945,0.03207806131745465,
0.11286783042394015,-0.011126404251492526,
0.11291770573566084,0.03143555192776365,
0.11296758104738154,0.013665271551029118,
0.11301745635910225,0.03339216489978858,
0.11306733167082295,0.014302542345646804,
0.11311720698254364,-0.006643755850374942,
0.11316708229426434,0.01255144913872421,
0.11321695760598503,-0.002233554673113914,
0.11326683291770574,-0.002783149155514293,
0.11331670822942644,-0.006495242756952339,
0.11336658354114713,0.024524754462345137,
0.11341645885286783,0.02033667298073666,
0.11346633416458853,0.006942782570916407,
0.11351620947630922,0.0009244801591301085,
0.11356608478802993,0.0005882220443239952,
0.11361596009975063,0.024156091770420232,
0.11366583541147132,0.026799008411431714,
0.11371571072319202,0.0406875350257921,
0.11376558603491271,0.006676710567314962,
0.11381546134663342,0.015423466477815655,
0.11386533665835412,-0.002420835404753621,
0.11391521197007481,0.010074419008823363,
0.11396508728179551,-0.002804620099605047,
0.1140149625935162,0.031688977142240934,
0.1140648379052369,-0.0007552668146913882,
0.11411471321695761,0.0010584238839247669,
0.1141645885286783,0.0027759984286231812,
0.114214463840399,0.03592761888504713,
0.1142643391521197,0.007645575455278256,
0.1143142144638404,0.009561064584083455,
0.1143640897755611,0.0012154907437034543,
0.1144139650872818,0.008270687733327424,
0.1144638403990025,0.02021708072863447,
0.11451371571072319,0.029656237500617855,
0.11456359102244389,-0.01784084824574818,
0.11461346633416458,0.031450100732111796,
0.11466334164588529,0.0030443171434215884,
0.11471321695760599,0.011504265485901728,
0.11476309226932668,-0.011373790191623441,
0.11481296758104738,0.007825588817986043,
0.11486284289276807,0.022067478310231495,
0.11491271820448878,0.025365521757539148,
0.11496259351620948,-0.012020671962749606,
0.11501246882793018,0.007230123147017786,
0.11506234413965087,0.012961402214825673,
0.11511221945137157,-0.00846418449433024,
0.11516209476309226,0.012761870034268579,
0.11521197007481297,-0.020244238450840148,
0.11526184538653367,0.0010820202077083184,
0.11531172069825436,-0.00928829393490491,
0.11536159600997506,-0.0010916824801472126,
0.11541147132169575,0.00972229531307038,
0.11546134663341646,-0.010685798188281718,
0.11551122194513716,0.0005382484044057286,
0.11556109725685786,0.00825797092875263,
0.11561097256857855,-0.02804443818140211,
0.11566084788029925,-0.00583047883320102,
0.11571072319201996,-0.039327725705130025,
0.11576059850374065,0.018238163607902695,
0.11581047381546135,-0.02926206022970451,
0.11586034912718204,0.003789470982450637,
0.11591022443890274,-0.026360666715897263,
0.11596009975062344,0.009295533905320496,
0.11600997506234415,-0.006927828325192797,
0.11605985037406484,-0.006894581155132839,
0.11610972568578554,0.023637764892641643,
0.11615960099750623,0.00971825892905592,
0.11620947630922693,-0.007625297945465804,
0.11625935162094764,0.007809948470482841,
0.11630922693266833,-0.00722693437127883,
0.11635910224438903,0.004356386481194267,
0.11640897755610972,-0.01657400793168558,
0.11645885286783042,-0.02164997306970147,
0.11650872817955112,-0.0012618508600149275,
0.11655860349127183,0.0076427556049197525,
0.11660847880299252,-0.0023254167574057374,
0.11665835411471322,-0.005278909330269841,
0.11670822942643391,-0.04442828976249729,
0.11675810473815461,-0.001342452352787682,
0.11680798004987532,-0.016334345608478577,
0.11685785536159601,-0.02693317802954224,
0.11690773067331671,0.003380753703524402,
0.1169576059850374,-0.028020976167352694,
0.1170074812967581,-0.006826382381118459,
0.1170573566084788,0.017676336495950323,
0.1171072319201995,-0.03388022722111604,
0.1171571072319202,-0.03883250689645518,
0.1172069825436409,-0.004134982757109591,
0.1172568578553616,-0.020806802709639576,
0.11730673316708229,-0.02338375354721911,
0.117356608478803,0.009384495370096814,
0.1174064837905237,0.007397957959390815,
0.11745635910224439,-0.017326821086143158,
0.11750623441396509,-0.030961224674669673,
0.11755610972568578,-0.020726761294899924,
0.11760598503740648,-0.011389260389091991,
0.11765586034912719,-0.01017617813404261,
0.11770573566084788,0.013102786527140666,
0.11775561097256858,0.0023306711377774902,
0.11780548628428927,0.014437849471230136,
0.11785536159600997,-0.020232615376182456,
0.11790523690773068,-0.01456568967406938,
0.11795511221945137,-0.02371722567545935,
0.11800498753117207,0.009813359065982954,
0.11805486284289277,0.0015312267534237627,
0.11810473815461346,-0.05842446995497315,
0.11815461346633417,-0.013884065368721828,
0.11820448877805487,-0.014797621379896528,
0.11825436408977556,-0.011044825247603536,
0.11830423940149626,-0.003952689688913704,
0.11835411471321695,-0.006353169822052733,
0.11840399002493765,-0.025878349624224375,
0.11845386533665836,-0.0179230616316028,
0.11850374064837906,-0.020428768164764972,
0.11855361596009975,-0.010243429545055053,
0.11860349127182045,-0.005023833482548832,
0.11865336658354114,-0.02773327332220974,
0.11870324189526185,-0.004804287495186031,
0.11875311720698255,0.0023707849404224924,
0.11880299251870324,-0.023846426986885563,
0.11885286783042394,-0.028207295562611173,
0.11890274314214463,-0.0278460482471877,
0.11895261845386533,-0.010567874874807391,
0.11900249376558604,0.010350946067651329,
0.11905236907730674,-0.0351725061109986,
0.11910224438902743,-0.024801380274014132,
0.11915211970074813,-0.02117910652696456,
0.11920199501246882,0.011068221090755673,
0.11925187032418953,-0.0029602465985151104,
0.11930174563591023,-0.022968502672386162,
0.11935162094763092,0.0352794750171222,
0.11940149625935162,0.010523373179908597,
0.11945137157107232,-0.005573781697844552,
0.11950124688279301,-0.0017656545552275534,
0.11955112219451372,-0.029657773060005038,
0.11960099750623442,-0.02514159369108767,
0.11965087281795511,-0.002360193757668468,
0.11970074812967581,0.02758673610306231,
0.1197506234413965,-0.0072966054052042055,
0.11980049875311721,-0.0023599042087457858,
0.11985037406483791,-0.01921048325797963,
0.1199002493765586,-0.024998485326914344,
0.1199501246882793,-0.009122756918440967,
0.12,-0.009541983558861397,
0.1200498753117207,-0.02446653920490914,
0.1200997506234414,-0.03021352896723574,
0.1201496259351621,0.003005836886166945,
0.12019950124688279,-0.03425238304749743,
0.12024937655860349,-0.010246579803518535,
0.12029925187032418,0.020663973344824463,
0.1203491271820449,0.006918008864764291,
0.12039900249376559,-0.015550473802358914,
0.12044887780548628,-0.021207664805837585,
0.12049875311720698,7.919417376145606e-05,
0.12054862842892768,0.012397601733484878,
0.12059850374064839,0.012218730217092627,
0.12064837905236908,-0.006164589337954352,
0.12069825436408978,0.0035473664386042707,
0.12074812967581047,0.006193979697507804,
0.12079800498753117,-0.01066636151607549,
0.12084788029925186,-0.011659052949240828,
0.12089775561097257,-0.013890872923856257,
0.12094763092269327,-0.02665845171496989,
0.12099750623441397,-0.003237070364174645,
0.12104738154613466,0.002859828216115211,
0.12109725685785536,0.0011555071327378963,
0.12114713216957607,-0.0026577712803128022,
0.12119700748129676,-0.04445173856501304,
0.12124688279301746,0.020930638040601898,
0.12129675810473815,-0.05838194955565164,
0.12134663341645885,-0.012762183572977061,
0.12139650872817954,-0.012342453666599317,
0.12144638403990025,0.014476829535866166,
0.12149625935162095,-0.024597644301335993,
0.12154613466334165,-0.017554321968429258,
0.12159600997506234,0.0007485313090875847,
0.12164588528678304,-7.551285725950624e-05,
0.12169576059850375,-0.019255143827787743,
0.12174563591022444,0.0114262611043125,
0.12179551122194514,-0.011795255284808535,
0.12184538653366583,4.161777456174751e-05,
0.12189526184538653,-0.016349221424984746,
0.12194513715710723,0.01459813049148562,
0.12199501246882793,-0.01779417187826882,
0.12204488778054863,0.015548360953273478,
0.12209476309226933,0.02020168870303361,
0.12214463840399002,-0.007662444728510743,
0.12219451371571072,0.008345184632486888,
0.12224438902743143,-0.003479061491810292,
0.12229426433915212,-0.006793256845500898,
0.12234413965087282,-0.0024958175680960576,
0.12239401496259351,-0.01324385003245144,
0.12244389027431421,0.007967071802402092,
0.12249376558603492,0.0006625506456580908,
0.12254364089775562,-0.003408035922310938,
0.12259351620947631,0.020298421733965302,
0.122643391521197,-0.024297800227376154,
0.1226932668329177,-0.002586336853185215,
0.1227431421446384,0.004124748636762652,
0.12279301745635911,-0.015138616233387213,
0.1228428927680798,0.017103051723805385,
0.1228927680798005,-0.004852688891695214,
0.1229426433915212,0.037132484705714563,
0.12299251870324189,-0.010439572700736515,
0.1230423940149626,0.009023410389666408,
0.1230922693266833,0.005105904797316272,
0.12314214463840399,-0.012917523643397029,
0.12319201995012469,-0.026372104142551034,
0.12324189526184538,-0.010664462350764676,
0.12329177057356608,0.027086517681811424,
0.12334164588528679,0.00018914804925697533,
0.12339152119700748,0.008984830647751754,
0.12344139650872818,-0.006887975582666786,
0.12349127182044888,0.009588935566234337,
0.12354114713216957,0.022133197288343082,
0.12359102244389028,0.0023670202869633117,
0.12364089775561098,-0.01058956543229798,
0.12369077306733167,0.003871572504337017,
0.12374064837905237,0.018797403711022245,
0.12379052369077306,-0.011077906833581041,
0.12384039900249376,0.01560807538150603,
0.12389027431421447,-0.028246654096984007,
0.12394014962593516,-0.0020053065136297586,
0.12399002493765586,-0.018873943693754197,
0.12403990024937656,0.006219986824101037,
0.12408977556109725,0.0190991568233779,
0.12413965087281796,0.01862889516466762,
0.12418952618453866,0.03831846009064726,
0.12423940149625935,0.0050233445757479405,
0.12428927680798005,0.027788206414457072,
0.12433915211970074,0.02324346109932302,
0.12438902743142144,0.028446899530202102,
0.12443890274314215,0.03461112378785194,
0.12448877805486284,0.04839093237541791,
0.12453865336658354,0.002618598261205255,
0.12458852867830424,0.016237764813254996,
0.12463840399002493,0.01664025788538518,
0.12468827930174564,0.008284103142715216,
0.12473815461346634,0.009698899081936822,
0.12478802992518703,0.010511318700825638,
0.12483790523690773,0.006002353305342935,
0.12488778054862842,0.0361877429654936,
0.12493765586034913,0.019917579000554356,
0.12498753117206983,0.016896512132229823,
0.12503740648379053,0.020109290501644457,
0.12508728179551123,0.0597559999041073,
0.12513715710723192,-0.012060538846661813,
0.12518703241895263,0.0181667674723263,
0.1252369077306733,0.03368500830552802,
0.12528678304239402,0.020889655447021763,
0.1253366583541147,0.008508865995396752,
0.1253865336658354,0.032042260488388624,
0.12543640897755612,0.019899152969595314,
0.1254862842892768,0.026675621601294087,
0.1255361596009975,0.006181954044874229,
0.1255860349127182,0.01942461004356247,
0.1256359102244389,0.014887517264597694,
0.1256857855361596,0.00802015736938783,
0.1257356608478803,0.014446747524761022,
0.125785536159601,0.014464616010419146,
0.12583541147132168,0.013756570870113737,
0.1258852867830424,0.004705716847081445,
0.1259351620947631,0.014524865042825595,
0.12598503740648379,0.004339999412088211,
0.1260349127182045,0.0023646740673541437,
0.12608478802992518,0.027819884798896435,
0.1261346633416459,0.008638089015436667,
0.1261845386533666,0.02166904127392758,
0.12623441396508728,0.019639655763919482,
0.126284289276808,0.02607429562059712,
0.12633416458852867,0.01850773589468615,
0.12638403990024938,0.011298732199048723,
0.1264339152119701,0.0548766788875293,
0.12648379052369077,0.008338696270130576,
0.12653366583541148,0.009635840367624628,
0.12658354114713216,0.0404171281776131,
0.12663341645885287,0.02061965676226602,
0.12668329177057355,0.03510848577481369,
0.12673316708229426,0.015435312776882096,
0.12678304239401497,0.019118569302367782,
0.12683291770573565,0.023631536331945747,
0.12688279301745636,0.0023976913125382075,
0.12693266832917705,0.0424627335389514,
0.12698254364089775,0.02433307886147697,
0.12703241895261846,0.02152275968492522,
0.12708229426433915,0.014985969857504468,
0.12713216957605986,0.040819732614303425,
0.12718204488778054,0.04713618628039978,
0.12723192019950125,-0.00036062259192589166,
0.12728179551122196,0.016889339317547603,
0.12733167082294264,0.02711460973544457,
0.12738154613466335,0.03506008843627189,
0.12743142144638403,0.01774886538910469,
0.12748129675810474,0.039646395066646065,
0.12753117206982545,0.017216658570333755,
0.12758104738154613,0.048151590688400914,
0.12763092269326684,0.029522166370343102,
0.12768079800498752,0.030892706076125147,
0.12773067331670823,0.0476890066444381,
0.1277805486284289,0.021360690247169384,
0.12783042394014962,0.030715966952280613,
0.12788029925187033,0.0239502088587278,
0.12793017456359101,0.0396751680122746,
0.12798004987531172,0.04215352626030344,
0.1280299251870324,0.01937161804677815,
0.12807980049875312,0.04895613089695616,
0.12812967581047383,0.036285485095579065,
0.1281795511221945,0.016549685925284437,
0.12822942643391522,0.016673962367707972,
0.1282793017456359,0.048127228581765255,
0.1283291770573566,0.02136036706351902,
0.12837905236907732,-0.0036945670060490148,
0.128428927680798,0.05019106828030205,
0.1284788029925187,0.014872273708068314,
0.1285286783042394,0.02366414106171363,
0.1285785536159601,0.02542368660076643,
0.1286284289276808,0.040140181216936764,
0.1286783042394015,0.02621293742011972,
0.1287281795511222,0.03345393961937469,
0.12877805486284288,0.00934963015787543,
0.1288279301745636,0.0030174516999277555,
0.1288778054862843,0.01979883947671631,
0.12892768079800498,0.041573464608013644,
0.1289775561097257,0.025812916326896907,
0.12902743142144638,0.027627693265261013,
0.12907730673316709,0.01931282269855262,
0.12912718204488777,0.0297499326701727,
0.12917705735660848,0.026608376050075207,
0.1292269326683292,0.04230912480882456,
0.12927680798004987,0.041150347616702,
0.12932668329177058,0.015061498143366062,
0.12937655860349126,0.025731611822150592,
0.12942643391521197,0.029747488797180137,
0.12947630922693268,0.01005359227834788,
0.12952618453865336,0.03407147527853673,
0.12957605985037407,0.03264493873368597,
0.12962593516209475,0.03219655718029799,
0.12967581047381546,0.03296829040015779,
0.12972568578553617,0.04612942501693154,
0.12977556109725685,0.043336079592072384,
0.12982543640897756,0.05729889488179421,
0.12987531172069824,0.04360104921800159,
0.12992518703241895,0.015116949842419363,
0.12997506234413966,0.021701515648619607,
0.13002493765586035,0.01783876107647496,
0.13007481296758105,-0.02521239216972969,
0.13012468827930174,0.04546583004199869,
0.13017456359102245,0.031602623172663956,
0.13022443890274316,0.032231691968101994,
0.13027431421446384,0.05783304823195382,
0.13032418952618455,0.019210055605347047,
0.13037406483790523,0.035001954224142554,
0.13042394014962594,0.023924088835719774,
0.13047381546134662,0.045182229103643334,
0.13052369077306733,0.03432584047338705,
0.13057356608478804,0.02226018860810261,
0.13062344139650872,0.04517876659504835,
0.13067331670822943,0.03191351079442522,
0.1307231920199501,0.03143846746464088,
0.13077306733167082,0.04779007479214849,
0.13082294264339153,0.029981128698035122,
0.13087281795511221,0.03611673128215205,
0.13092269326683292,0.017275899968354803,
0.1309725685785536,0.02671581372854925,
0.13102244389027431,0.036115048934199645,
0.13107231920199502,0.033576746643025165,
0.1311221945137157,0.027770330352017755,
0.13117206982543642,0.01656497197235992,
0.1312219451371571,0.0328491965338729,
0.1312718204488778,0.01996575880231614,
0.13132169576059852,-0.0020228291291904676,
0.1313715710723192,0.04125020914364104,
0.1314214463840399,0.015283399728432373,
0.1314713216957606,0.015367946925224129,
0.1315211970074813,0.005008880917202158,
0.13157107231920198,0.009196769535857241,
0.1316209476309227,0.012571136565481677,
0.1316708229426434,0.029386900356089266,
0.13172069825436408,0.00916399935900182,
0.1317705735660848,0.004153954635008079,
0.13182044887780547,0.023331442986514506,
0.13187032418952618,0.016592925106800164,
0.1319201995012469,0.001977765988223322,
0.13197007481296757,0.015248145264319252,
0.13201995012468828,0.037283055552959354,
0.13206982543640897,-0.013679009276054036,
0.13211970074812968,0.016112356950390632,
0.13216957605985039,0.043877759891865084,
0.13221945137157107,0.016305674146442906,
0.13226932668329178,-0.0003294408216070986,
0.13231920199501246,0.027236014505911295,
0.13236907730673317,-0.007573413554303996,
0.13241895261845388,0.0367417675005355,
0.13246882793017456,0.020217315707046723,
0.13251870324189527,0.023836722829121283,
0.13256857855361595,0.00674495454755444,
0.13261845386533666,0.0034105069037364214,
0.13266832917705737,0.017111145554952918,
0.13271820448877805,0.0029971637633319313,
0.13276807980049876,-0.014221775735439774,
0.13281795511221944,-0.007226161875647688,
0.13286783042394015,0.01680441153143905,
0.13291770573566083,0.02145912900617336,
0.13296758104738154,0.014988411190632002,
0.13301745635910225,0.02986159904184897,
0.13306733167082294,0.007607280419409753,
0.13311720698254365,0.009905611362368623,
0.13316708229426433,-0.016746242933681366,
0.13321695760598504,0.016012750951256233,
0.13326683291770575,0.024471812473955162,
0.13331670822942643,0.042183484138027784,
0.13336658354114714,-0.0009952241949920254,
0.13341645885286782,-0.0015115898681202396,
0.13346633416458853,-0.0019387381033276526,
0.13351620947630924,0.00558561534418176,
0.13356608478802992,0.001889033147607324,
0.13361596009975063,0.022056186127908523,
0.1336658354114713,0.006440703985989629,
0.13371571072319202,0.01979588751537001,
0.13376558603491273,0.0065301461245458265,
0.1338154613466334,0.0016211704677981838,
0.13386533665835412,0.006447630365323694,
0.1339152119700748,0.001782237901312763,
0.13396508728179551,0.032344534036064694,
0.1340149625935162,-0.010799313093269416,
0.1340648379052369,0.026251707182756295,
0.13411471321695762,-0.005818588855313778,
0.1341645885286783,0.03707306323176083,
0.134214463840399,0.020415304962650933,
0.1342643391521197,0.03600559655994394,
0.1343142144638404,0.03934941954952127,
0.1343640897755611,-0.0026467009458110338,
0.1344139650872818,5.456890493881622e-05,
0.1344638403990025,0.016009592392295505,
0.13451371571072318,0.010276867077354913,
0.1345635910224439,0.019730439884706304,
0.1346134663341646,0.008679583427691148,
0.13466334164588528,0.04049983039573618,
0.134713216957606,0.003684994707260492,
0.13476309226932667,0.0011834606356510339,
0.13481296758104738,-0.006955943424786044,
0.1348628428927681,0.007382590512869889,
0.13491271820448877,-0.018524644892586033,
0.13496259351620948,-0.02823067147924163,
0.13501246882793017,0.01977606656040773,
0.13506234413965088,0.005288171801147587,
0.13511221945137158,0.02480867102732464,
0.13516209476309227,0.0004984783865242528,
0.13521197007481298,0.017308938542274985,
0.13526184538653366,-0.0004820806529943207,
0.13531172069825437,-0.019233335299682207,
0.13536159600997505,-0.012753739763709733,
0.13541147132169576,0.026152270625305334,
0.13546134663341647,0.036384620582225975,
0.13551122194513715,0.005374442747493229,
0.13556109725685786,-0.01671484818243125,
0.13561097256857854,0.006462876738279056,
0.13566084788029925,0.003563616568771952,
0.13571072319201996,0.00233668482497803,
0.13576059850374064,-0.01352176739597857,
0.13581047381546135,-0.021598006504365747,
0.13586034912718203,0.010786356488440032,
0.13591022443890274,0.021032836032150233,
0.13596009975062345,-0.014259547820953065,
0.13600997506234414,0.012307537363247457,
0.13605985037406484,-0.01948688869718548,
0.13610972568578553,0.004058901179460635,
0.13615960099750624,0.007808829885139975,
0.13620947630922695,-0.0008287998844646754,
0.13625935162094763,0.028882349965110535,
0.13630922693266834,0.004974744441506394,
0.13635910224438902,-0.028814416613670873,
0.13640897755610973,0.033115739564272696,
0.1364588528678304,0.01010805296213193,
0.13650872817955112,-0.009476991482330652,
0.13655860349127183,-0.007021004026488309,
0.1366084788029925,0.005938537233625158,
0.13665835411471322,0.015407603875246327,
0.1367082294264339,-0.006810232683831562,
0.1367581047381546,-0.002878806151813053,
0.13680798004987532,-0.021890830980785737,
0.136857855361596,0.011413676420161301,
0.1369077306733167,-0.03270721653307081,
0.1369576059850374,-0.02189947583948415,
0.1370074812967581,0.01139191016001979,
0.13705735660847881,-0.019395871879701154,
0.1371072319201995,-0.02225101316300705,
0.1371571072319202,-0.02691481794725437,
0.1372069825436409,-0.008375712803621272,
0.1372568578553616,0.008387074941176369,
0.1373067331670823,0.007763680924870647,
0.137356608478803,-0.013698580276351168,
0.1374064837905237,-0.008072010438583169,
0.13745635910224438,0.011901623782659904,
0.1375062344139651,-0.008334233965323292,
0.1375561097256858,-0.022230931598285028,
0.13760598503740648,-0.013981156469071242,
0.1376558603491272,-0.03413552115100704,
0.13770573566084787,-0.00793497994869839,
0.13775561097256858,0.008413863147409365,
0.13780548628428926,0.0029295856602725833,
0.13785536159600997,-0.012939478526915982,
0.13790523690773068,-0.04334890185836444,
0.13795511221945136,-0.0129540322136861,
0.13800498753117207,-0.00768433668680083,
0.13805486284289276,-0.011639732631416074,
0.13810473815461347,-0.03409187357782074,
0.13815461346633418,0.008808825576386707,
0.13820448877805486,-0.001799547334988866,
0.13825436408977557,0.002496299150257607,
0.13830423940149625,-0.0030887668445711705,
0.13835411471321696,-0.012515339680258922,
0.13840399002493767,-0.004593070029109685,
0.13845386533665835,-0.0075597882503956795,
0.13850374064837906,-0.008020465464623703,
0.13855361596009974,-0.030449163870795624,
0.13860349127182045,-0.011792246462949067,
0.13865336658354116,-0.005871498265194132,
0.13870324189526184,-0.018956513484797655,
0.13875311720698255,-0.0013784906927969114,
0.13880299251870323,-0.000874372510774617,
0.13885286783042394,-0.014935269415097523,
0.13890274314214462,-0.0028133591343795184,
0.13895261845386533,-0.023354842730539966,
0.13900249376558604,-0.02666437221448887,
0.13905236907730673,0.0021526982926741104,
0.13910224438902744,0.019307806837281734,
0.13915211970074812,-0.021543730264530225,
0.13920199501246883,-0.010051522774669,
0.13925187032418954,0.0013763077065909127,
0.13930174563591022,-0.029033009516087067,
0.13935162094763093,0.0025248396877532286,
0.1394014962593516,-0.0033336685247340424,
0.13945137157107232,-0.016161840367247743,
0.13950124688279303,-0.007299394999053569,
0.1395511221945137,-0.02118689261713277,
0.13960099750623442,-0.030480318214692225,
0.1396508728179551,0.0079985271802764,
0.1397007481296758,-0.008116228090234053,
0.13975062344139652,0.0037436297870900807,
0.1398004987531172,-0.03797558460215911,
0.1398503740648379,0.0010485169051884895,
0.1399002493765586,-0.012687299142552778,
0.1399501246882793,-0.020810277345386815,
0.14,-0.014016358640337463,
0.1400498753117207,-0.002437394901454817,
0.1400997506234414,-0.0011786394046792055,
0.1401496259351621,0.00038208798375832624,
0.1401995012468828,-0.026135021980437843,
0.14024937655860348,0.004761225086440321,
0.1402992518703242,-0.0014017012707591738,
0.1403491271820449,-0.01412849348575888,
0.14039900249376558,-0.006559936114849664,
0.1404488778054863,-0.021544685138818666,
0.14049875311720697,-0.006467870264290903,
0.14054862842892768,-0.023105727636577172,
0.1405985037406484,0.015072422894899807,
0.14064837905236907,-0.017544889403290506,
0.14069825436408978,0.013134293198030297,
0.14074812967581046,0.00029586054001813026,
0.14079800498753117,-0.028953779311463104,
0.14084788029925188,-0.007928608114844807,
0.14089775561097256,0.011947389647751867,
0.14094763092269327,-0.010285331090434939,
0.14099750623441396,-0.014468303337510605,
0.14104738154613466,-0.021957809532076593,
0.14109725685785537,-0.020253012720448944,
0.14114713216957606,-0.03133548414551238,
0.14119700748129677,-0.007708394045076657,
0.14124688279301745,-0.0008668870300018862,
0.14129675810473816,0.012317559736577546,
0.14134663341645887,-0.01253357335714105,
