time,amplitude,label
0.0,-0.014939143715438512,
4.987531172069826e-05,-0.02021014962689439,
9.975062344139652e-05,0.0001589175070272307,
0.00014962593516209475,-0.010197596368393305,
0.00019950124688279303,-0.017148172093140675,
0.00024937655860349125,-0.01822936068770727,
0.0002992518703241895,-0.009327646739715475,
0.00034912718204488776,-0.01567211460756683,
0.00039900249376558606,-0.011772288700523086,
0.0004488778054862843,-0.016560474015072643,
0.0004987531172069825,-0.03569887110265267,
0.0005486284289276808,-0.029821912863249474,
0.000598503740648379,-0.030308667516167398,
0.0006483790523690773,-0.018975853522945924,
0.0006982543640897755,-0.012379965180377909,
0.0007481296758104738,-0.012422742982329137,
0.0007980049875311721,-0.05025167923901025,
0.0008478802992518703,-0.004501048296741486,
0.0008977556109725686,-0.016001489198588577,
0.0009476309226932668,-0.04246653850493899,
0.000997506234413965,-0.037896064312997094,
0.0010473815461346633,-0.02729963776273605,
0.0010972568578553616,0.014515576709312226,
0.00114713216957606,-0.0483459374753865,
0.001197007481296758,-0.023491867148218597,
0.0012468827930174563,-0.01992664847565032,
0.0012967581047381546,-0.006922059067140962,
0.001346633416458853,-0.022912463270683504,
0.001396508728179551,-0.02799702209346618,
0.0014463840399002493,-0.03176125828708291,
0.0014962593516209476,-0.02883421521924318,
0.001546134663341646,-0.007533741367869978,
0.0015960099750623442,-0.003973695532203433,
0.0016458852867830423,-0.04068151701927518,
0.0016957605985037406,-0.035449233282037015,
0.001745635910224439,-0.04451149169609092,
0.0017955112219451373,-0.03793998827580752,
0.0018453865336658353,-0.03616780530871491,
0.0018952618453865336,-0.004528885038189283,
0.001945137157107232,-0.025342978947901128,
0.00199501246882793,-0.007100761033258978,
0.0020448877805486283,0.00865820909556158,
0.0020947630922693266,-0.00903287556981914,
0.002144638403990025,-0.024681275746838864,
0.0021945137157107233,-0.005233372509046232,
0.0022443890274314216,-0.04759419652018856,
0.00229426433915212,-0.0113129464936083,
0.0023441396508728177,-0.05101057042122277,
0.002394014962593516,-0.02983017996437716,
0.0024438902743142144,-0.025579365352820488,
0.0024937655860349127,-0.02944720364100681,
0.002543640897755611,-0.02641422270818177,
0.0025935162094763093,-0.02025975466885393,
0.0026433915211970076,-0.011892863291075355,
0.002693266832917706,-0.0012870274849591835,
0.002743142144638404,-0.024334517099485656,
0.002793017456359102,-0.01741175202443979,
0.0028428927680798004,-0.03426776032735871,
0.0028927680798004987,-0.06985293383146474,
0.002942643391521197,-0.00028233062584584814,
0.0029925187032418953,-0.028528594179394996,
0.0030423940149625936,-0.024075531560350534,
0.003092269326683292,-0.03156024050107809,
0.00314214463840399,-0.03925746231887835,
0.0031920199501246885,-0.033386058813733355,
0.0032418952618453864,-0.03093877046126688,
0.0032917705735660847,-0.041281898858537225,
0.003341645885286783,-0.02973433126575,
0.0033915211970074813,-0.013603607828144244,
0.0034413965087281796,-0.019580380171647135,
0.003491271820448878,-0.014310736968003973,
0.003541147132169576,-0.022812540293780794,
0.0035910224438902745,-0.03273984661251027,
0.0036408977556109724,-0.01781031793854226,
0.0036907730673316707,-0.0019724400300146945,
0.003740648379052369,-0.025957333136037472,
0.0037905236907730673,-0.008931491921658895,
0.0038403990024937656,-0.07428132474774488,
0.003890274314214464,-0.012450073906430464,
0.003940149625935162,-0.03915645269111917,
0.00399002493765586,0.004770998188015355,
0.004039900249376558,0.008356146631989966,
0.004089775561097257,-0.015316549590042163,
0.004139650872817955,0.004559281404389128,
0.004189526184538653,-0.022895122078416416,
0.004239401496259352,-0.018046062693030916,
0.00428927680798005,-0.030486621521128347,
0.004339152119700748,-0.020088955650287076,
0.0043890274314214465,-0.005230413690882682,
0.004438902743142145,0.0019517431802253595,
0.004488778054862843,-0.030018775065392946,
0.004538653366583541,-0.03379288701890207,
0.00458852867830424,-0.007021263519474156,
0.004638403990024938,-0.015074401759652556,
0.0046882793017456355,-0.03005931608617958,
0.004738154613466334,-0.0021461671798118018,
0.004788029925187032,-0.012526766800776516,
0.00483790523690773,-0.018885949276640456,
0.004887780548628429,0.0019769779521373737,
0.004937655860349127,-0.027701194900389574,
0.004987531172069825,-0.022569196951598557,
0.005037406483790524,-0.009936044301883743,
0.005087281795511222,-0.009570213607364616,
0.00513715710723192,-0.026012751078837285,
0.0051870324189526185,0.013611788711617206,
0.005236907730673317,-0.004984684498939706,
0.005286783042394015,0.007719819294383453,
0.0053366583541147134,0.006647589804314692,
0.005386533665835412,-0.024688143084610058,
0.00543640897755611,-0.0037330703218973436,
0.005486284289276808,-0.018925247233313642,
0.005536159600997507,0.011751608532006776,
0.005586034912718204,-0.004208308439962012,
0.005635910224438902,-0.03887463286981017,
0.005685785536159601,-0.011531110023131237,
0.005735660847880299,-0.023251979582007958,
0.005785536159600997,-0.009323318236063038,
0.005835411471321696,0.011530099525469222,
0.005885286783042394,-0.017427890597235797,
0.005935162094763092,0.0035478742408179883,
0.0059850374064837905,0.019285559398017488,
0.006034912718204489,-0.03816086173175326,
0.006084788029925187,-0.0043319740639741495,
0.0061346633416458855,0.009176102485941095,
0.006184538653366584,-0.011322295622181879,
0.006234413965087282,-0.018902693347820118,
0.00628428927680798,-0.004153433140112579,
0.006334164588528679,-0.012473953435917527,
0.006384039900249377,0.025803065916230262,
0.006433915211970074,-0.0008198813960853305,
0.006483790523690773,-0.002821755847739236,
0.006533665835411471,0.01856389635070122,
0.006583541147132169,-0.007256441797649647,
0.006633416458852868,0.014283280629519095,
0.006683291770573566,0.0008235831646792031,
0.006733167082294264,0.010070439119610915,
0.0067830423940149626,0.016300808206398565,
0.006832917705735661,-0.00607709600518134,
0.006882793017456359,-0.006736126113370353,
0.0069326683291770575,0.02114030662128121,
0.006982543640897756,-0.014324422176804668,
0.007032418952618454,0.010368485772061205,
0.007082294264339152,0.008816987474870473,
0.007132169576059851,-0.0023897119698296975,
0.007182044887780549,-0.02027874915333064,
0.007231920199501247,-0.007628411901454688,
0.007281795511221945,0.005882657175824689,
0.007331670822942643,0.012378070997157308,
0.007381546134663341,-0.0018216187686758171,
0.00743142144638404,0.02494042627244511,
0.007481296758104738,-0.0008570991897517864,
0.007531172069825436,0.008654553844718285,
0.007581047381546135,-0.026000926672127125,
0.007630922693266833,-0.0011961435176234296,
0.007680798004987531,-0.00875604767123565,
0.0077306733167082295,-0.00600747346620739,
0.007780548628428928,0.026206703493457325,
0.007830423940149626,-0.003605159657188873,
0.007880299251870324,-0.004479176069595117,
0.007930174563591023,-0.0005212369835604592,
0.00798004987531172,0.004887745596150539,
0.00802992518703242,0.01279496430105301,
0.008079800498753117,0.012281294720958867,
0.008129675810473816,0.0025638279695948483,
0.008179551122194513,0.01929600660175544,
0.008229426433915213,0.019494777667234627,
0.00827930174563591,0.026733190875578832,
0.00832917705735661,0.007249945671602186,
0.008379052369077307,0.039479575579619695,
0.008428927680798006,-0.014354779136253853,
0.008478802992518703,0.02494864831603416,
0.0085286783042394,-0.0010625550585651594,
0.0085785536159601,0.004286501263315881,
0.008628428927680797,0.014590616898050496,
0.008678304239401496,0.020196018230064693,
0.008728179551122194,0.024399651857145575,
0.008778054862842893,0.0176909596254857,
0.00882793017456359,0.004483047460348208,
0.00887780548628429,0.023827468923723207,
0.008927680798004987,0.03687990387713497,
0.008977556109725686,0.02726725220790447,
0.009027431421446384,0.007877842688690597,
0.009077306733167083,0.014571701836567775,
0.00912718204488778,0.012748975088099287,
0.00917705735660848,0.013168646358668054,
0.009226932668329177,0.020172246100539172,
0.009276807980049876,0.0011430820537047682,
0.009326683291770574,-0.026254483105807074,
0.009376558603491271,0.018107480625977314,
0.00942643391521197,0.009863525137120376,
0.009476309226932668,0.022473270346012986,
0.009526184538653367,0.01856126168314297,
0.009576059850374064,0.027811634479877653,
0.009625935162094763,0.019657915526890935,
0.00967581047381546,0.028119225779619762,
0.00972568578553616,0.014687127469948137,
0.009775561097256857,0.011220623673730546,
0.009825436408977557,0.026081140557854737,
0.009875311720698254,0.00020463412554125662,
0.009925187032418953,0.0019374086904653167,
0.00997506234413965,0.01495027017459969,
0.01002493765586035,-0.007549180350519057,
0.010074812967581047,0.019126584329585368,
0.010124688279301746,0.04033700885094181,
0.010174563591022444,-0.008944978771129698,
0.010224438902743141,-8.544783285689347e-05,
0.01027431421446384,0.03200390937485364,
0.010324189526184538,0.037589933212565464,
0.010374064837905237,0.0003447668014468566,
0.010423940149625935,0.01420822040178582,
0.010473815461346634,0.004926507622654182,
0.010523690773067331,0.016284563591009268,
0.01057356608478803,0.036966984239946515,
0.010623441396508728,0.03535519954873682,
0.010673316708229427,0.01603345915598111,
0.010723192019950124,0.01101834490475173,
0.010773067331670824,0.010596202899479129,
0.010822942643391521,0.011648658638979284,
0.01087281795511222,0.03515356271533499,
0.010922693266832918,0.013730609738386523,
0.010972568578553617,0.01384690722891107,
0.011022443890274314,0.02726662664866021,
0.011072319201995013,0.022972007316076206,
0.01112219451371571,0.029859351577091204,
0.011172069825436408,0.016318618664271495,
0.011221945137157107,0.03287177921495185,
0.011271820448877805,-0.0028344900771706295,
0.011321695760598504,0.0035759790295831068,
0.011371571072319201,0.01672501477403188,
0.0114214463840399,0.06467743419225461,
0.011471321695760598,0.03285975985543246,
0.011521197007481297,0.0278697607507879,
0.011571072319201995,0.010505941593545719,
0.011620947630922694,0.03962954587938518,
0.011670822942643391,0.024904667192282674,
0.01172069825436409,0.026780975993211394,
0.011770573566084788,0.03198815821420121,
0.011820448877805487,0.008201144393712688,
0.011870324189526184,0.03338700881117612,
0.011920199501246884,0.016950380881025257,
0.011970074812967581,0.01857999122722442,
0.012019950124688279,0.007106873154301047,
0.012069825436408978,0.020863829220969934,
0.012119700748129675,0.030550071184600645,
0.012169576059850374,0.013745871118467364,
0.012219451371571072,0.023476047042897078,
0.012269326683291771,0.025792229725371065,
0.012319201995012468,0.029976935444302175,
0.012369077306733168,0.0430298319987978,
0.012418952618453865,0.020043331923175547,
0.012468827930174564,0.035094049178017964,
0.012518703241895262,0.029491003744686436,
0.01256857855361596,0.03632511018406944,
0.012618453865336658,0.02814815236959297,
0.012668329177057357,0.014998784176550092,
0.012718204488778055,0.0419364242291007,
0.012768079800498754,-0.0021499468526344524,
0.012817955112219451,-0.016663218020700407,
0.012867830423940149,0.01987130015268285,
0.012917705735660848,0.007320089472375604,
0.012967581047381545,0.02688938857824493,
0.013017456359102245,0.011694122628548208,
0.013067331670822942,0.027546880183948914,
0.013117206982543641,0.026952315211339076,
0.013167082294264339,0.02818670662828437,
0.013216957605985038,0.021249618025882128,
0.013266832917705735,0.019181359822411724,
0.013316708229426434,0.02933630477896186,
0.013366583541147132,0.015217808243978333,
0.013416458852867831,0.03036404860723304,
0.013466334164588529,0.020919460847301775,
0.013516209476309228,0.02012999504629914,
0.013566084788029925,0.033464899307019125,
0.013615960099750624,0.021471210171681708,
0.013665835411471322,0.025948276960268354,
0.01371571072319202,0.04440538384623739,
0.013765586034912718,0.03979377685383864,
0.013815461346633416,0.0022489629788550666,
0.013865336658354115,0.02102342494453628,
0.013915211970074812,0.03160426385486142,
0.013965087281795512,0.04032646414128943,
0.014014962593516209,-0.0029313978839673044,
0.014064837905236908,-0.001782711118031105,
0.014114713216957606,0.04138180699684116,
0.014164588528678305,-0.0009017209118383704,
0.014214463840399002,0.02241002767005868,
0.014264339152119701,-0.001419778287213548,
0.014314214463840399,0.011962688816360478,
0.014364089775561098,-0.012739946219451844,
0.014413965087281795,-0.000829296668448054,
0.014463840399002495,-0.0034779830303527173,
0.014513715710723192,0.03945039792869531,
0.01456359102244389,0.006345196096338398,
0.014613466334164589,0.04269423937210595,
0.014663341645885286,0.03518832111387411,
0.014713216957605985,0.031630546188243625,
0.014763092269326683,-0.02019054921404887,
0.014812967581047382,-0.024504638278754688,
0.01486284289276808,0.03461575955725862,
0.014912718204488778,0.014402886536677269,
0.014962593516209476,0.016234911775166228,
0.015012468827930175,0.017972716593265846,
0.015062344139650873,-0.004277099992778604,
0.015112219451371572,-0.001954572047768558,
0.01516209476309227,0.01782689080271318,
0.015211970074812968,-0.007230483461029773,
0.015261845386533666,0.02290076466090242,
0.015311720698254365,0.011972259962235022,
0.015361596009975062,0.011527540293984583,
0.01541147132169576,0.031118281413577288,
0.015461346633416459,0.020990318153080653,
0.015511221945137156,0.012552068152455383,
0.015561097256857856,-0.011437943641529922,
0.015610972568578553,0.029224385213758974,
0.015660847880299252,-0.0003885445614170476,
0.01571072319201995,0.01637743375386584,
0.015760598503740647,0.000764628929927234,
0.015810473815461346,-0.0007485002627968564,
0.015860349127182045,0.00888261180918301,
0.015910224438902745,0.046392888741571874,
0.01596009975062344,0.028426241451035856,
0.01600997506234414,-0.0071842309598934735,
0.01605985037406484,-0.019273539028488516,
0.016109725685785538,-0.0032842187537434776,
0.016159600997506234,0.021183342170550585,
0.016209476309226933,-0.012346687450835444,
0.016259351620947632,0.00563241946157425,
0.016309226932668328,0.0035038066446677636,
0.016359102244389027,-0.01840688987606743,
0.016408977556109726,0.03678108673780754,
0.016458852867830425,0.025249292441245234,
0.01650872817955112,0.011055919214217929,
0.01655860349127182,0.027167871966823732,
0.01660847880299252,0.0034690205943101135,
0.01665835411471322,-0.01313252816658127,
0.016708229426433914,0.010692635741937986,
0.016758104738154613,-0.01423501046133354,
0.016807980049875312,-0.006286856105557653,
0.01685785536159601,0.0078302548850199,
0.016907730673316707,-0.0039389658259132605,
0.016957605985037406,-0.008096588760746832,
0.017007481296758106,0.0017326117762298256,
0.0170573566084788,-0.016921062301377614,
0.0171072319201995,-0.005923758231419831,
0.0171571072319202,0.012902429658752069,
0.0172069825436409,-0.01927753547456581,
0.017256857855361595,0.004742877375982333,
0.017306733167082294,0.001021261319001083,
0.017356608478802993,-0.0036951102221254744,
0.017406483790523692,-0.033690266008291087,
0.017456359102244388,-0.027090792940778135,
0.017506234413965087,0.014772690328267125,
0.017556109725685786,-0.0035175321217250123,
0.017605985037406485,-0.006385276080042771,
0.01765586034912718,0.003667103250187259,
0.01770573566084788,-0.01172387685714987,
0.01775561097256858,0.01208705776297006,
0.01780548628428928,-0.03525730783614747,
0.017855361596009974,0.010185551403510957,
0.017905236907730673,-0.013360166150729571,
0.017955112219451373,0.01079722274068124,
0.018004987531172068,0.00817794798145529,
0.018054862842892767,0.0115245436287885,
0.018104738154613467,-0.014778344122840131,
0.018154613466334166,0.013627936924730981,
0.01820448877805486,-0.019253741493836907,
0.01825436408977556,0.007916213064852736,
0.01830423940149626,-0.02447004134664669,
0.01835411471321696,-0.00277033256023643,
0.018403990024937655,-0.00836618002138712,
0.018453865336658354,-0.02376079646081166,
0.018503740648379053,-0.018589199685673803,
0.018553615960099752,0.014239895691240793,
0.018603491271820448,-0.006477675660242869,
0.018653366583541147,-0.015415241543096463,
0.018703241895261846,0.00016393311566331552,
0.018753117206982542,-0.013661588362957212,
0.01880299251870324,-0.022685802800549604,
0.01885286783042394,-0.022227897308166742,
0.01890274314214464,-0.010940257581493076,
0.018952618453865335,-0.004014764175769135,
0.019002493765586034,-0.022275237206554617,
0.019052369077306733,-0.040986680079034644,
0.019102244389027433,-0.002000104307612294,
0.01915211970074813,0.008631378039644356,
0.019201995012468828,-0.01769670193793229,
0.019251870324189527,-0.014284927375180714,
0.019301745635910226,-0.01697831097792358,
0.01935162094763092,-0.007402821534979395,
0.01940149625935162,-0.007777792604288483,
0.01945137157107232,-0.029635798388433325,
0.01950124688279302,-0.009717986083708845,
0.019551122194513715,-0.023806263402791412,
0.019600997506234414,-0.011571609520204446,
0.019650872817955113,-0.01047983485122297,
0.01970074812967581,-0.008965815138677113,
0.019750623441396508,-0.038660444580804545,
0.019800498753117207,-0.009012050661433827,
0.019850374064837906,-0.021423404709368266,
0.019900249376558602,-0.024302500661825238,
0.0199501246882793,-0.02594324314036282,
0.02,-0.022863279380445356,
0.0200498753117207,-0.008391125081858464,
0.020099750623441395,-0.033821276076623885,
0.020149625935162094,-0.011539881362930597,
0.020199501246882794,-0.009809541037163597,
0.020249376558603493,-0.018590631332365805,
0.02029925187032419,0.007711909823028483,
0.020349127182044888,-0.009058525960694244,
0.020399002493765587,0.010504792100155744,
0.020448877805486283,-0.011417193206283295,
0.02049875311720698,-0.01534919549885417,
0.02054862842892768,-0.014558171834376502,
0.02059850374064838,-0.0044683831047134664,
0.020648379052369076,-0.015955790930390176,
0.020698254364089775,0.01504712972617384,
0.020748129675810474,-0.04779383351404635,
0.020798004987531173,-0.006602793022761417,
0.02084788029925187,-0.0259589862905817,
0.020897755610972568,-0.03792071086115659,
0.020947630922693267,-0.010803784121146274,
0.020997506234413967,-0.008814142741569624,
0.021047381546134662,-0.004103994203076852,
0.02109725685785536,-0.027684436883223064,
0.02114713216957606,-0.025811176880254392,
0.02119700748129676,-0.024148675677122224,
0.021246882793017455,-0.02926335185347856,
0.021296758104738155,-0.019027255122291878,
0.021346633416458854,-0.021841690836023733,
0.02139650872817955,-0.018302512945767152,
0.02144638403990025,-0.018700614683760643,
0.021496259351620948,-0.004956495746588225,
0.021546134663341647,-0.017328854739763894,
0.021596009975062343,-0.03655140495675132,
0.021645885286783042,-0.0322317564033392,
0.02169576059850374,-0.0004170657130444233,
0.02174563591022444,-0.0009872187923054554,
0.021795511221945136,-0.04026275080502656,
0.021845386533665835,-0.023584310590032444,
0.021895261845386534,-0.021295948580839438,
0.021945137157107233,-0.01797533332793452,
0.02199501246882793,-0.019168436859331704,
0.02204488778054863,-0.008864745660337335,
0.022094763092269327,-0.024992278182762798,
0.022144638403990027,-0.05133154115738291,
0.022194513715710722,-0.042153848213449044,
0.02224438902743142,-0.014699386382860388,
0.02229426433915212,-0.012531194683855607,
0.022344139650872816,-0.03853557826631986,
0.022394014962593516,-0.029503598525021706,
0.022443890274314215,-0.010094936081577754,
0.022493765586034914,-0.02126166207082562,
0.02254364089775561,-0.014939963985180781,
0.02259351620947631,-0.003937811737040683,
0.022643391521197008,-0.01569711809018777,
0.022693266832917707,-0.017745771899856586,
0.022743142144638403,-0.002506576883983116,
0.022793017456359102,-0.04584250370900905,
0.0228428927680798,-0.01381860657029049,
0.0228927680798005,-0.00039504784750319863,
0.022942643391521196,-0.00047870003587493354,
0.022992518703241895,-0.009585370604378848,
0.023042394014962594,-0.014136784437060639,
0.02309226932668329,-0.008222215686027354,
0.02314214463840399,-0.016235376112520128,
0.02319201995012469,-0.00844369664828592,
0.023241895261845388,-0.018707774533792222,
0.023291770573566083,-0.02022882175723826,
0.023341645885286783,-0.009056910946157976,
0.02339152119700748,0.007671435977403166,
0.02344139650872818,-0.012774474389450776,
0.023491271820448877,-0.008639295326932531,
0.023541147132169576,-0.026830709485883023,
0.023591022443890275,-0.011044710875241106,
0.023640897755610974,-0.010800616684243723,
0.02369077306733167,-0.006359293674526098,
0.02374064837905237,-0.043834805738547,
0.023790523690773068,-0.02297814999827113,
0.023840399002493767,-0.027314695756627004,
0.023890274314214463,-0.02939495048956413,
0.023940149625935162,-0.014512695457818837,
0.02399002493765586,-0.02838408652295963,
0.024039900249376557,-0.004511641302374247,
0.024089775561097256,-0.033355822741982566,
0.024139650872817955,-0.022892056624610815,
0.024189526184538655,-0.0006718051795592435,
0.02423940149625935,-0.021468639083904485,
0.02428927680798005,-0.009212185399860573,
0.02433915211970075,-0.018909054490751673,
0.024389027431421448,-0.03494209572359104,
0.024438902743142144,-0.016944963641734326,
0.024488778054862843,-0.005959150889848946,
0.024538653366583542,-0.012567206518923778,
0.02458852867830424,-0.024599271068091337,
0.024638403990024937,0.0028396584182729476,
0.024688279301745636,0.015840722138805333,
0.024738154613466335,-0.0028473798135943487,
0.02478802992518703,-0.026030898571907355,
0.02483790523690773,0.01350501423605494,
0.02488778054862843,-0.016942885832112977,
0.02493765586034913,0.00569989113819719,
0.024987531172069824,-0.005618665783345624,
0.025037406483790523,-0.03344023441298684,
0.025087281795511222,-0.004956777843788598,
0.02513715710723192,0.0006513105416745199,
0.025187032418952617,-0.012823554226776078,
0.025236907730673316,-0.007181568490227452,
0.025286783042394016,-0.012774075673660953,
0.025336658354114715,0.02132252535338205,
0.02538653366583541,-0.0015285031333134459,
0.02543640897755611,0.0046903523882560715,
0.02548628428927681,-0.00743742398019186,
0.025536159600997508,0.008348124208577957,
0.025586034912718204,-0.037683134585012934,
0.025635910224438903,-0.018404048255198688,
0.025685785536159602,-0.02285505301663711,
0.025735660847880298,0.01380822192554629,
0.025785536159600997,0.010485287573596545,
0.025835411471321696,-0.00794868387783458,
0.025885286783042395,0.0028506448963226856,
0.02593516209476309,-0.0018854286976429562,
0.02598503740648379,-0.00869638279659202,
0.02603491271820449,-0.012392547491836606,
0.02608478802992519,-0.004512308916014654,
0.026134663341645884,-0.03111874153370569,
0.026184538653366583,-0.020893724720813543,
0.026234413965087282,0.01353597315088749,
0.02628428927680798,-0.009035530025818379,
0.026334164588528677,-0.027975263481708396,
0.026384039900249377,0.00337109920521387,
0.026433915211970076,0.0006565534607652526,
0.02648379052369077,-0.023068656889887754,
0.02653366583541147,0.020445949963231454,
0.02658354114713217,-0.01221914042770353,
0.02663341645885287,0.0075475715163364635,
0.026683291770573565,-0.01326788394675868,
0.026733167082294264,0.05202849221798835,
0.026783042394014963,0.0025667010101354656,
0.026832917705735662,-0.033609373531699016,
0.026882793017456358,0.0036497623366587915,
0.026932668329177057,-0.04674871570814151,
0.026982543640897756,-0.01907805929749202,
0.027032418952618455,0.015193166168841851,
0.02708229426433915,-0.0021299895338786332,
0.02713216957605985,0.019294641391904573,
0.02718204488778055,-0.0018985850254327986,
0.02723192019950125,0.0028943389099941918,
0.027281795511221944,0.031756940634561116,
0.027331670822942643,0.00011838003894030233,
0.027381546134663343,-0.00047949608937491225,
0.02743142144638404,-0.0012511984128426284,
0.027481296758104738,0.004696554765944083,
0.027531172069825437,0.005266634174235283,
0.027581047381546136,0.03254607801700131,
0.02763092269326683,0.011910270537283978,
0.02768079800498753,0.016377793560387186,
0.02773067331670823,-0.026309938349984796,
0.02778054862842893,0.006951188402527659,
0.027830423940149625,-0.017136596821735305,
0.027880299251870324,-0.0017262155198058552,
0.027930174563591023,0.03302420411742254,
0.027980049875311722,0.019254185781790303,
0.028029925187032418,0.006360314217388258,
0.028079800498753117,-0.011702899730126592,
0.028129675810473816,-0.005158396498516304,
0.028179551122194512,-0.02188057766505569,
0.02822942643391521,-0.029306832293475752,
0.02827930174563591,-0.005620105736850473,
0.02832917705735661,0.01737307517590248,
0.028379052369077305,0.023628590385229884,
0.028428927680798004,-0.004710762960594438,
0.028478802992518704,0.0040630202104085045,
0.028528678304239403,0.025097162524627695,
0.0285785536159601,0.00904695757107603,
0.028628428927680798,0.005308516967459628,
0.028678304239401497,0.029878168491471048,
0.028728179551122196,-0.016562890158930692,
0.02877805486284289,0.02465697012520962,
0.02882793017456359,0.027183923178592764,
0.02887780548628429,0.0004301547964178677,
0.02892768079800499,0.021198329671918408,
0.028977556109725685,-0.0012889439613643725,
0.029027431421446384,0.023706292637876762,
0.029077306733167083,0.01790241644567395,
0.02912718204488778,-0.021594352569042085,
0.029177057356608478,0.013394976031713158,
0.029226932668329177,0.025200056444582418,
0.029276807980049877,0.014769120351240481,
0.029326683291770572,0.014920045179321878,
0.02937655860349127,0.008813738936679324,
0.02942643391521197,0.02737251023294905,
0.02947630922693267,0.008335048457735805,
0.029526184538653365,0.017215932030873588,
0.029576059850374065,0.04955102971033136,
0.029625935162094764,0.04309030718250659,
0.029675810473815463,0.018521024116666604,
0.02972568578553616,0.023004859634097527,
0.029775561097256858,0.005238313312172274,
0.029825436408977557,0.015534243809097386,
0.029875311720698253,0.026705723954269935,
0.029925187032418952,0.021892025068247993,
0.02997506234413965,0.01888996356749451,
0.03002493765586035,0.017713213881920334,
0.030074812967581046,0.002629928708079224,
0.030124688279301745,0.011048109172094183,
0.030174563591022444,0.0029844622175426855,
0.030224438902743143,0.026732830501183587,
0.03027431421446384,0.029913017998701098,
0.03032418952618454,0.034664446085139355,
0.030374064837905237,0.03015322037732591,
0.030423940149625937,0.005575706250169853,
0.030473815461346632,0.006482063773263904,
0.03052369077306733,0.023222972088213098,
0.03057356608478803,0.012190608554331791,
0.03062344139650873,0.014542237101364772,
0.030673316708229426,0.005828672123795113,
0.030723192019950125,0.01788819739929462,
0.030773067331670824,0.024380836837693466,
0.03082294264339152,0.02159372131948962,
0.03087281795511222,0.0007028546741500129,
0.030922693266832918,0.011751261144885351,
0.030972568578553617,0.0037317527612048262,
0.031022443890274313,-0.0003624166277548836,
0.031072319201995012,0.015655806953438503,
0.03112219451371571,0.04849030063225176,
0.03117206982543641,0.0033583152210029978,
0.031221945137157106,0.0052491117097827646,
0.03127182044887781,0.013850801116504947,
0.031321695760598504,0.025825872473227606,
0.0313715710723192,0.04983070704929907,
0.0314214463840399,0.027458966683745964,
0.0314713216957606,0.0372857265839393,
0.031521197007481294,0.03219533077873883,
0.031571072319202,0.011132438064474883,
0.03162094763092269,0.04005112005508586,
0.03167082294264339,0.037388969233406795,
0.03172069825436409,0.024895078912696635,
0.03177057356608479,0.0380824810907242,
0.03182044887780549,0.03563294533178086,
0.031870324189526185,0.044071173287261164,
0.03192019950124688,0.0028340685902814404,
0.03197007481296758,0.013417259536818849,
0.03201995012468828,0.014237032346363044,
0.032069825436408975,0.02136834322344558,
0.03211970074812968,0.030344491570965602,
0.03216957605985037,0.040219624286517985,
0.032219451371571076,0.04751880324118788,
0.03226932668329177,0.011484439022919967,
0.03231920199501247,0.03552666806331456,
0.03236907730673317,0.02326784206272147,
0.032418952618453865,0.03404542414025454,
0.03246882793017456,0.014487192759779426,
0.032518703241895264,0.0240692499266451,
0.03256857855361596,0.010587040978065405,
0.032618453865336655,0.000782813722031362,
0.03266832917705736,0.009164880495408501,
0.032718204488778053,0.023374970241185605,
0.032768079800498756,0.011347552388320362,
0.03281795511221945,0.017223582629986103,
0.03286783042394015,0.022671342836871253,
0.03291770573566085,0.026842203246252833,
0.032967581047381546,0.05957306629191622,
0.03301745635910224,0.046608307644079625,
0.033067331670822944,0.03818781046896137,
0.03311720698254364,0.04208172453442782,
0.03316708229426434,0.006629593233412797,
0.03321695760598504,0.01991861891174176,
0.033266832917705734,0.017585706513115883,
0.03331670822942644,0.012822891484203403,
0.03336658354114713,0.04797675508610417,
0.03341645885286783,0.03155966845056357,
0.03346633416458853,0.031996061245764575,
0.033516209476309226,0.025669595782249758,
0.03356608478802992,0.03964749520243654,
0.033615960099750625,0.03279483710230807,
0.03366583541147132,0.02526047766438632,
0.03371571072319202,0.04095161819091932,
0.03376558603491272,0.007500703778667465,
0.033815461346633414,0.005961947158130705,
0.03386533665835412,0.019565828751170532,
0.03391521197007481,0.024075095284346672,
0.03396508728179551,0.016940737978253986,
0.03401496259351621,-0.0013531282529457844,
0.03406483790523691,0.019747444439359396,
0.0341147132169576,0.03161316817942748,
0.034164588528678305,0.01478463057329064,
0.034214463840399,0.009249122722357535,
0.034264339152119704,0.022055513335591487,
0.0343142144638404,0.025476561094104806,
0.034364089775561095,0.034011723666118904,
0.0344139650872818,0.0030280807279680615,
0.03446384039900249,0.0219680264713875,
0.03451371571072319,0.01923667135757569,
0.03456359102244389,0.014235885338649579,
0.03461346633416459,0.021212360604669495,
0.03466334164588529,-0.00025187468876793767,
0.034713216957605986,0.007098637221745205,
0.03476309226932668,0.002404846610657284,
0.034812967581047384,-0.0061731203882729145,
0.03486284289276808,0.006993840127578067,
0.034912718204488775,-0.004171391188644059,
0.03496259351620948,0.020300757339002752,
0.035012468827930174,0.011468764260121632,
0.03506234413965087,0.04307110882452073,
0.03511221945137157,0.02088463002552665,
0.03516209476309227,0.020767119390350378,
0.03521197007481297,0.020476732245985018,
0.035261845386533666,0.003529333811824076,
0.03531172069825436,0.006319138324689008,
0.035361596009975065,-0.006651724852760287,
0.03541147132169576,0.016118639873850177,
0.035461346633416456,0.023727320877728893,
0.03551122194513716,-0.00730805635235854,
0.035561097256857854,-0.01154740047068931,
0.03561097256857856,-0.009639938473261552,
0.03566084788029925,5.274331051712336e-05,
0.03571072319201995,0.026295590414299845,
0.03576059850374065,0.002609752753155909,
0.03581047381546135,-0.01706985387960881,
0.03586034912718204,-0.004856843583701082,
0.035910224438902745,-0.00033695686054493676,
0.03596009975062344,0.01068232400445638,
0.036009975062344136,0.00941019962042996,
0.03605985037406484,0.0021872093138909626,
0.036109725685785535,0.012034088618911906,
0.03615960099750624,0.0006451867596398648,
0.03620947630922693,0.0025297006521908545,
0.03625935162094763,0.0006770170955976854,
0.03630922693266833,0.028128760334933618,
0.03635910224438903,0.012677668228272931,
0.03640897755610972,0.006103452982224572,
0.036458852867830426,-0.009179353733680737,
0.03650872817955112,0.0019090843253103179,
0.036558603491271824,-0.007978411815292859,
0.03660847880299252,-0.01893597988033304,
0.036658354114713215,-0.005607515188613842,
0.03670822942643392,0.003891231586387728,
0.036758104738154614,0.0162165509164243,
0.03680798004987531,0.011804000375047589,
0.03685785536159601,0.003493989720835889,
0.03690773067331671,-0.022893276673832712,
0.0369576059850374,0.019711529719450224,
0.037007481296758106,-0.003237021561003123,
0.0370573566084788,0.015277674759984025,
0.037107231920199504,0.005934527339858893,
0.0371571072319202,-0.00740195386022794,
0.037206982543640896,-0.01007585273333552,
0.0372568578553616,-0.0010539630648144706,
0.037306733167082294,0.0021127650582989663,
0.03735660847880299,-0.014031871409684541,
0.03740648379052369,0.007320572910989106,
0.03745635910224439,0.021954235453982972,
0.037506234413965084,-0.014167466634608186,
0.037556109725685786,0.011499702000293462,
0.03760598503740648,0.016141188407077768,
0.037655860349127185,-0.009571139866928167,
0.03770573566084788,-0.011614808607076883,
0.037755610972568576,-0.010720544233041097,
0.03780548628428928,0.002423763279270919,
0.037855361596009975,0.01697164145077692,
0.03790523690773067,-0.010071465216315448,
0.03795511221945137,-0.021031049068354953,
0.03800498753117207,0.01332483606623066,
0.03805486284289277,0.006255323690231769,
0.03810473815461347,-0.007985558321805291,
0.03815461346633416,-0.018454981784204044,
0.038204488778054865,-0.01754088055159262,
0.03825436408977556,-0.03177061056008795,
0.03830423940149626,0.014825248928368303,
0.03835411471321696,-0.009352381287721097,
0.038403990024937655,-0.0011386729496895027,
0.03845386533665835,-0.0037371444624337146,
0.03850374064837905,0.007151413536710613,
0.03855361596009975,-0.023192654962477643,
0.03860349127182045,-0.03840786057626466,
0.03865336658354115,-0.012902440817214833,
0.03870324189526184,0.0016933560956013775,
0.038753117206982546,-0.03151345474919455,
0.03880299251870324,0.003655127452957929,
0.03885286783042394,0.02229773436781294,
0.03890274314214464,-0.017871307043623774,
0.038952618453865336,-0.007673082600717037,
0.03900249376558604,-0.016427438354674147,
0.039052369077306734,-0.021243651587128327,
0.03910224438902743,-0.0025730574857701673,
0.03915211970074813,-0.018445218358057326,
0.03920199501246883,0.009442008617268792,
0.039251870324189524,-0.028418161737842465,
0.039301745635910226,-0.027515031247124816,
0.03935162094763092,0.018957092371022277,
0.03940149625935162,-0.0024891110573454552,
0.03945137157107232,-0.031031155491761254,
0.039501246882793016,-0.041033043665148004,
0.03955112219451372,0.020967869220133245,
0.039600997506234414,-0.006860076131352614,
0.03965087281795511,-0.01606718301480017,
0.03970074812967581,-0.014525053626149744,
0.03975062344139651,-0.029528630768794133,
0.039800498753117204,0.006450104964643218,
0.03985037406483791,-0.005934048035146882,
0.0399002493765586,-0.010448349206430084,
0.039950124688279305,-0.024753323190175026,
0.04,-0.010259707682557581,
0.0400498753117207,-0.029129233995855874,
0.0400997506234414,-0.004580461539142485,
0.040149625935162095,-0.01674469009450462,
0.04019950124688279,-0.042899786078227115,
0.04024937655860349,-0.006783393509005593,
0.04029925187032419,-0.024904132572088622,
0.040349127182044885,-0.017870357234070842,
0.04039900249376559,-0.017112743395576818,
0.04044887780548628,-0.01938061223933055,
0.040498753117206986,-0.03844690491072996,
0.04054862842892768,-0.05805874544163542,
0.04059850374064838,-0.022145508938868685,
0.04064837905236908,0.008341500849600848,
0.040698254364089775,0.0029877900947247217,
0.04074812967581047,-0.025624005366469405,
0.040798004987531174,0.0011330938574327463,
0.04084788029925187,0.007282628345726837,
0.040897755610972565,0.01286674898773155,
0.04094763092269327,-0.016913638424481396,
0.04099750623441396,-0.01686640885688809,
0.041047381546134666,-0.046064854500802804,
0.04109725685785536,0.006556680838875395,
0.04114713216957606,-0.0528372432847424,
0.04119700748129676,0.0004596582539908439,
0.041246882793017456,-0.02805070963852204,
0.04129675810473815,0.007716353407038148,
0.041346633416458854,-0.015950376049277556,
0.04139650872817955,-0.011469677323739996,
0.04144638403990025,-0.02900677530550924,
0.04149625935162095,-0.014901003945804696,
0.041546134663341644,-0.006536919887773118,
0.04159600997506235,-0.025511112944277718,
0.04164588528678304,-0.006874018158671646,
0.04169576059850374,-0.029784204734408647,
0.04174563591022444,-0.037469955328655866,
0.041795511221945136,-0.03289671118557806,
0.04184538653366583,-0.008088418546451332,
0.041895261845386535,-0.004674535295194498,
0.04194513715710723,-0.012902678975356113,
0.04199501246882793,-0.006983488431045714,
0.04204488778054863,0.006181663401966232,
0.042094763092269324,-0.008504894003683748,
0.04214463840399003,-0.04629443575153855,
0.04219451371571072,-0.01997211966017058,
0.04224438902743142,-0.01692203853302841,
0.04229426433915212,-0.02219374629302123,
0.04234413965087282,0.0007009821654903672,
0.04239401496259352,-0.02263745504253405,
0.042443890274314215,-0.036458517500418536,
0.04249376558603491,-0.016827190178039065,
0.042543640897755614,-0.001452035214662686,
0.04259351620947631,-0.017035672765392845,
0.042643391521197005,-0.022147850601158876,
0.04269326683291771,-0.00029712474699889954,
0.0427431421446384,0.00754675493084174,
0.0427930174563591,-0.027063980551760437,
0.0428428927680798,-0.0012181169075540527,
0.0428927680798005,0.00016958656405230768,
0.0429426433915212,-0.0005498231084464858,
0.042992518703241896,0.004979080967278865,
0.04304239401496259,-0.015520133519997814,
0.043092269326683294,-0.00296354413285496,
0.04314214463840399,-0.027060684772230205,
0.043192019950124685,0.018901704436396986,
0.04324189526184539,-0.030231179406183008,
0.043291770573566084,-0.03330920813463106,
0.043341645885286786,-0.02512021661056376,
0.04339152119700748,0.007545530096818702,
0.04344139650872818,-0.001180635161466239,
0.04349127182044888,-0.01959387869976357,
0.043541147132169576,0.009114428913974942,
0.04359102244389027,-0.025537559768266906,
0.043640897755610975,-0.008272132886336667,
0.04369077306733167,-0.013144162882403955,
0.043740648379052366,0.0038296543895448825,
0.04379052369077307,-0.03679899016528632,
0.043840399002493764,-0.015807381451484803,
0.04389027431421447,-0.00896593244824273,
0.04394014962593516,-0.038697870152923544,
0.04399002493765586,5.505709006534652e-05,
0.04403990024937656,-0.041139817601783785,
0.04408977556109726,0.01936044179659395,
0.04413965087281795,-0.01684406375947769,
0.044189526184538655,0.00539422051984432,
0.04423940149625935,-0.02831003778267102,
0.04428927680798005,-0.0033443907864138585,
0.04433915211970075,0.005270191196227191,
0.044389027431421445,0.001273598459416353,
0.04443890274314215,-0.005872745576691916,
0.04448877805486284,-0.0023705361999315066,
0.04453865336658354,-0.000772524670306661,
0.04458852867830424,0.003712874796612496,
0.04463840399002494,-0.004646999102727122,
0.04468827930174563,-0.03152774363862938,
0.044738154613466335,0.004921896796618398,
0.04478802992518703,-0.02034718264541023,
0.044837905236907734,-0.03223850837400892,
0.04488778054862843,-0.019217413468106792,
0.044937655860349125,-0.010994646365050388,
0.04498753117206983,0.0025299838337940073,
0.045037406483790524,0.012554011458029035,
0.04508728179551122,-0.001178748666527207,
0.04513715710723192,0.014979560482171445,
0.04518703241895262,0.01279941577783349,
0.04523690773067331,-0.016494682873988274,
0.045286783042394016,-0.012873364434799852,
0.04533665835411471,0.004547014139699844,
0.045386533665835414,-0.015311912588934235,
0.04543640897755611,-0.04738343412300805,
0.045486284289276806,0.016244737330266747,
0.04553615960099751,0.0025706813639946435,
0.045586034912718204,0.013958663362268729,
0.0456359102244389,-0.009308520990334072,
0.0456857855361596,-0.0231415881006226,
0.0457356608478803,0.01401249887378998,
0.045785536159601,0.006290511890695562,
0.045835411471321696,0.0017581045842439223,
0.04588528678304239,-0.005632656888570018,
0.045935162094763095,-0.011364811058955458,
0.04598503740648379,-0.01028671493185839,
0.046034912718204486,0.013196988530614719,
0.04608478802992519,-0.015491615797251938,
0.046134663341645885,0.014416560253810589,
0.04618453865336658,0.019583189104678326,
0.04623441396508728,0.034255509272249664,
0.04628428927680798,-0.0033064879751013914,
0.04633416458852868,-0.03101852203046014,
0.04638403990024938,-0.0050697744291729905,
0.04643391521197007,-0.023326852799506515,
0.046483790523690775,-0.006394443803515556,
0.04653366583541147,-0.00991996282293784,
0.04658354114713217,0.017063819812278995,
0.04663341645885287,-0.0026953413871774736,
0.046683291770573565,0.010295419747292367,
0.04673316708229427,0.005075261495115387,
0.04678304239401496,0.025178791215943366,
0.04683291770573566,0.014642975310257069,
0.04688279301745636,0.00530214350042812,
0.04693266832917706,-0.0030975066281460645,
0.04698254364089775,0.008386439984951082,
0.047032418952618456,0.011887806320009471,
0.04708229426433915,0.005934410564346121,
0.04713216957605985,0.020677775841844905,
0.04718204488778055,-0.0016283225519066365,
0.047231920199501246,-0.003244402237232811,
0.04728179551122195,-0.016747708639799675,
0.047331670822942644,-0.011722117395468924,
0.04738154613466334,-0.002050629894520259,
0.04743142144638404,0.027800625680163366,
0.04748129675810474,0.0134247956633296,
0.047531172069825434,0.0067489736520941115,
0.047581047381546136,0.0027896766647880437,
0.04763092269326683,0.014611824188674896,
0.047680798004987535,0.0077993069122437265,
0.04773067331670823,0.015750082142080922,
0.047780548628428926,-0.014595412065556174,
0.04783042394014963,0.010433379687156684,
0.047880299251870324,-0.019486202538080425,
0.04793017456359102,0.004848525308755112,
0.04798004987531172,-0.008351586035017148,
0.04802992518703242,0.0017690615592471925,
0.048079800498753114,-0.03920983921280409,
0.04812967581047382,0.021947904911818073,
0.04817955112219451,0.024321163717297235,
0.048229426433915215,0.004216837806085836,
0.04827930174563591,-0.006885913935691074,
0.048329177057356607,0.030651963876342496,
0.04837905236907731,0.007517584560422653,
0.048428927680798005,0.019326203096694708,
0.0484788029925187,0.03545275795588135,
0.0485286783042394,-0.01352427665453685,
0.0485785536159601,0.016628936168419223,
0.048628428927680795,0.0005023329850449686,
0.0486783042394015,-0.01792296932037981,
0.04872817955112219,0.0071016795904939875,
0.048778054862842896,0.011319663429750278,
0.04882793017456359,0.008807572922380828,
0.04887780548628429,0.027669001419674877,
0.04892768079800499,0.014785032251580748,
0.048977556109725685,-0.013112726543139433,
0.04902743142144638,0.008178661000795985,
0.049077306733167084,0.010025023239457066,
0.04912718204488778,0.025679990005500954,
0.04917705735660848,0.025912519854240857,
0.04922693266832918,0.059621202486221186,
0.04927680798004987,0.0033529604195707483,
0.049326683291770576,0.03510818336388545,
0.04937655860349127,-0.0008103079088172503,
0.04942643391521197,0.03233764083322159,
0.04947630922693267,0.03186880225250514,
0.049526184538653366,0.027608597566967208,
0.04957605985037406,0.014144365226329407,
0.049625935162094764,0.022108373861923075,
0.04967581047381546,0.024971663027724893,
0.04972568578553616,0.00525664075177008,
0.04977556109725686,-0.0012707692335693008,
0.049825436408977554,0.003018628020265462,
0.04987531172069826,0.03449273099919344,
0.04992518703241895,0.019984437857634277,
0.04997506234413965,0.03211511381506582,
0.05002493765586035,0.03215911399835009,
0.050074812967581046,0.025253209831868587,
0.05012468827930175,0.015718769252984287,
0.050174563591022445,-0.0011570164466824552,
0.05022443890274314,0.030347359637685672,
0.05027431421446384,0.006293422698003332,
0.05032418952618454,-0.003184619224347554,
0.050374064837905234,0.035205503776142656,
0.05042394014962594,-0.01792149249852621,
0.05047381546134663,0.025243311889384713,
0.05052369077306733,0.018333237315052854,
0.05057356608478803,0.016583181820164397,
0.05062344139650873,0.007146840502852081,
0.05067331670822943,0.024556176283526864,
0.050723192019950125,0.01603939927123097,
0.05077306733167082,0.028885225569191444,
0.050822942643391524,0.04289428959818731,
0.05087281795511222,0.020464926043438324,
0.050922693266832915,0.027449222078298342,
0.05097256857855362,0.012872385451981834,
0.05102244389027431,0.04313127983156129,
0.051072319201995016,0.006501416864252225,
0.05112219451371571,0.017012650779417823,
0.05117206982543641,0.015625420982894853,
0.05122194513715711,-0.014706388814186018,
0.051271820448877806,0.0028367347533388397,
0.0513216957605985,0.03504953907461974,
0.051371571072319204,0.014713739394724637,
0.0514214463840399,0.051487337250954224,
0.051471321695760595,0.019254163074703637,
0.0515211970074813,0.03328577840002647,
0.051571072319201994,0.015841551248779645,
0.051620947630922696,0.03124209458442802,
0.05167082294264339,0.03676559413901936,
0.05172069825436409,0.03613182006826475,
0.05177057356608479,0.06251723004577642,
0.051820448877805486,0.014402036323892831,
0.05187032418952618,0.02477488227316953,
0.051920199501246884,0.028866504175793013,
0.05197007481296758,0.012646297192852821,
0.052019950124688276,0.012456476368052792,
0.05206982543640898,0.036027461313777626,
0.052119700748129674,0.042069265627280625,
0.05216957605985038,0.018972149568553368,
0.05221945137157107,-0.002389019035054115,
0.05226932668329177,0.011794981400366812,
0.05231920199501247,0.0300022966701813,
0.05236907730673317,0.022060131187210806,
0.05241895261845386,0.014743904356203439,
0.052468827930174565,0.00844700497131879,
0.05251870324189526,0.026700596903490054,
0.05256857855361596,0.02012046626933273,
0.05261845386533666,0.03191229935512578,
0.052668329177057355,0.029749481772656752,
0.05271820448877806,0.026181201362780963,
0.05276807980049875,0.024707693304089298,
0.05281795511221945,0.019524047119799427,
0.05286783042394015,0.015616649955127269,
0.05291770573566085,0.02789344286245384,
0.05296758104738154,0.02149629765144027,
0.053017456359102245,-0.007998438705113773,
0.05306733167082294,0.031978841132861896,
0.053117206982543644,0.014447481167525226,
0.05316708229426434,-0.0006275653450406177,
0.053216957605985035,0.02289734005491534,
0.05326683291770574,0.011157151158143154,
0.053316708229426434,0.020439970444565726,
0.05336658354114713,0.02188704231759692,
0.05341645885286783,0.036609948700424624,
0.05346633416458853,0.021750799873278492,
0.05351620947630923,0.0049494894324816005,
0.053566084788029926,0.003623165993752255,
0.05361596009975062,0.03923602573529139,
0.053665835411471324,0.01508132324179056,
0.05371571072319202,0.018201821124287997,
0.053765586034912716,0.02600504492615299,
0.05381546134663342,0.03074500310371318,
0.053865336658354114,-0.0007487413152387247,
0.05391521197007481,0.009069118187095602,
0.05396508728179551,0.016910571366003477,
0.05401496259351621,0.0348624671170676,
0.05406483790523691,0.039207909740930705,
0.054114713216957606,0.007250733796823358,
0.0541645885286783,0.022801510168211147,
0.054214463840399005,0.010199404384431716,
0.0542643391521197,0.03202049891898475,
0.054314214463840396,0.011263491353426617,
0.0543640897755611,-0.0005847585748422375,
0.054413965087281795,0.003681415603556613,
0.0544638403990025,0.006793225027895283,
0.05451371571072319,0.02575747496922228,
0.05456359102244389,0.02655567553489828,
0.05461346633416459,0.03597328825446472,
0.05466334164588529,0.03087859489180631,
0.05471321695760598,0.019339349863420365,
0.054763092269326685,0.008716885926807711,
0.05481296758104738,0.015854222243107327,
0.05486284289276808,0.020043436789034443,
0.05491271820448878,0.015493322060590332,
0.054962593516209475,0.0544118652856187,
0.05501246882793018,0.037883929872537414,
0.05506234413965087,0.027716600839703724,
0.05511221945137157,0.014422890949140519,
0.05516209476309227,0.02000548392292966,
0.05521197007481297,0.03372186649412788,
0.05526184538653366,0.014057074953786467,
0.055311720698254366,0.02885693754008563,
0.05536159600997506,0.0428087797555768,
0.05541147132169576,0.01759494142246924,
0.05546134663341646,0.04018040709782617,
0.055511221945137156,0.028640771950637293,
0.05556109725685786,0.04395239678584349,
0.055610972568578554,0.02031192845557424,
0.05566084788029925,0.029979860265514996,
0.05571072319201995,0.015888486362607986,
0.05576059850374065,0.03351940292330166,
0.055810473815461344,0.01097197668559597,
0.055860349127182046,0.021388879693403983,
0.05591022443890274,0.00899360624513271,
0.055960099750623445,0.011756232442910993,
0.05600997506234414,0.01368649139732776,
0.056059850374064836,0.004002940729227745,
0.05610972568578554,0.03428721981128535,
0.056159600997506234,0.013284648223476053,
0.05620947630922693,0.04023073509889632,
0.05625935162094763,0.016086790944270447,
0.05630922693266833,0.02069851437190255,
0.056359102244389024,-0.021389321587204736,
0.05640897755610973,0.008536033096598415,
0.05645885286783042,0.010107597278392558,
0.056508728179551125,0.004883753142160243,
0.05655860349127182,-0.021834620432395063,
0.056608478802992516,-0.015298179821706276,
0.05665835411471322,0.05692695100720122,
0.056708229426433915,0.0018401235018794182,
0.05675810473815461,0.013035526434757246,
0.05680798004987531,0.016922258303953688,
0.05685785536159601,0.01562980044107065,
0.05690773067331671,0.013436322133256252,
0.05695760598503741,0.007408901067958579,
0.0570074812967581,-0.0019536958703489007,
0.057057356608478806,-0.00947605362847331,
0.0571072319201995,0.01861778542770656,
0.0571571072319202,0.010431041128933439,
0.0572069825436409,-5.5912242295510454e-05,
0.057256857855361595,0.007279554646862296,
0.05730673316708229,0.020822342037147314,
0.057356608478802994,0.010960902144100048,
0.05740648379052369,-0.011559622203958345,
0.05745635910224439,0.006913415973400601,
0.05750623441396509,0.006157375235465625,
0.05755610972568578,-0.001009436017140038,
0.057605985037406486,-0.009091803780167067,
0.05765586034912718,-0.0421225393057983,
0.05770573566084788,-0.008594103548301039,
0.05775561097256858,0.014818976681093525,
0.057805486284289276,-0.02909818364637451,
0.05785536159600998,-0.019466206968117863,
0.057905236907730674,0.019310484415058796,
0.05795511221945137,0.0365887443399827,
0.05800498753117207,-0.023536068972946633,
0.05805486284289277,-0.002126277391065476,
0.058104738154613464,-0.002708129113417007,
0.05815461346633417,0.008378332762551798,
0.05820448877805486,0.001613824895008083,
0.05825436408977556,-0.005496455665884234,
0.05830423940149626,-0.03358148611246572,
0.058354114713216956,0.004058076511977469,
0.05840399002493766,-0.023404492389945283,
0.058453865336658355,-0.009720775107583655,
0.05850374064837905,-0.03781629132445493,
0.05855361596009975,0.01176024905866104,
0.05860349127182045,-0.02081683407254702,
0.058653366583541144,-1.8590354393192496e-05,
0.05870324189526185,0.006285583838211497,
0.05875311720698254,-0.014430421827791952,
0.05880299251870324,-0.029736398602190506,
0.05885286783042394,-0.010062158305846624,
0.05890274314214464,0.008699149765352538,
0.05895261845386534,0.011648893170153699,
0.059002493765586035,-0.024862960195292633,
0.05905236907730673,-0.028375484285792757,
0.059102244389027433,-0.0037845773773347957,
0.05915211970074813,-0.0394646377046783,
0.059201995012468825,-0.009421870099795308,
0.05925187032418953,-0.0028101558863360557,
0.05930174563591022,-0.00807544771731325,
0.059351620947630926,0.005491637803359576,
0.05940149625935162,-0.0051950736161220055,
0.05945137157107232,-0.02176498037433823,
0.05950124688279302,-0.015574333242665406,
0.059551122194513716,-0.005849523552179996,
0.05960099750623441,-0.002878884090423738,
0.059650872817955114,-0.010152960753690004,
0.05970074812967581,0.015098518192944665,
0.059750623441396505,-0.026699474496541153,
0.05980049875311721,-0.017082235339614837,
0.059850374064837904,-0.008836646730540701,
0.059900249376558606,-0.0016397153892433493,
0.0599501246882793,-0.003230553574116649,
0.06,-0.010636113007839582,
0.0600498753117207,0.012434254695766414,
0.060099750623441396,-0.006809439080605633,
0.06014962593516209,-0.035386279666889536,
0.060199501246882794,-0.021647672305554796,
0.06024937655860349,-0.007295458430564099,
0.06029925187032419,-0.002118113865690876,
0.06034912718204489,-0.025722278385757254,
0.060399002493765584,-0.005044248240908147,
0.06044887780548629,-0.008474789761042652,
0.06049875311720698,-0.019980091274370535,
0.06054862842892768,-0.0018922937869347897,
0.06059850374064838,-0.04518799642086521,
0.06064837905236908,-0.006532798064389134,
0.06069825436408977,-0.022841421902064448,
0.060748129675810475,-0.015445932000673124,
0.06079800498753117,-0.010736191600650067,
0.06084788029925187,-0.0031724628800704775,
0.06089775561097257,0.023636307538495435,
0.060947630922693265,-0.046720055788056464,
0.06099750623441397,0.019045747305763153,
0.06104738154613466,-0.017487709287567117,
0.06109725685785536,-0.008154274102500185,
0.06114713216957606,-0.03738199786419383,
0.06119700748129676,-0.04357955697744488,
0.06124688279301746,-0.005650914890546328,
0.061296758104738155,-0.016296920615655422,
0.06134663341645885,-0.009550340860553551,
0.061396508728179554,-0.007239498816163678,
0.06144638403990025,-0.007764116986897379,
0.061496259351620945,-0.0033349280017840495,
0.06154613466334165,-0.00037453186049913115,
0.061596009975062344,-0.02477427096248044,
0.06164588528678304,-0.032661711610250964,
0.06169576059850374,-0.015122196903567055,
0.06174563591022444,-0.027834111127766972,
0.06179551122194514,-0.01140550325866147,
0.061845386533665836,-0.022163894302428065,
0.06189526184538653,-0.03502172987477151,
0.061945137157107234,0.026044072940285164,
0.06199501246882793,-0.012207216097385894,
0.062044887780548626,-0.004750018632582509,
0.06209476309226933,0.0007133726928154702,
0.062144638403990024,-0.02315933169370856,
0.06219451371571072,-0.032856013470339264,
0.06224438902743142,-0.021077787197232804,
0.06229426433915212,-0.023529239137045813,
0.06234413965087282,-0.03161958098892215,
0.062394014962593516,0.0015396778610785138,
0.06244389027431421,-0.011748280692577353,
0.062493765586034915,-0.01854520265261753,
0.06254364089775562,-0.020673571443372455,
0.06259351620947631,-0.0007105704688075368,
0.06264339152119701,-0.026091937966462968,
0.0626932668329177,0.015317277688931156,
0.0627431421446384,-0.030110557523877125,
0.0627930174563591,0.005250752894183787,
0.0628428927680798,-0.017150452126292556,
0.0628927680798005,0.006035939916703731,
0.0629426433915212,-0.012544244778027446,
0.06299251870324189,-0.029046915270576568,
0.06304239401496259,-0.001991360405975841,
0.0630922693266833,-0.03135225804906182,
0.063142144638404,-0.005921321807235787,
0.06319201995012469,-0.029745820480350668,
0.06324189526184539,-0.019855065165131407,
0.06329177057356608,0.001994867639501602,
0.06334164588528678,-0.018632226928555068,
0.06339152119700749,-0.012196161141670317,
0.06344139650872818,0.00012815584211908065,
0.06349127182044888,-0.006020693022005044,
0.06354114713216957,-0.011539951181658058,
0.06359102244389027,-0.0013332834681462034,
0.06364089775561098,-0.010545378667746793,
0.06369077306733167,-0.02449289899727383,
0.06374064837905237,0.0053050820650307525,
0.06379052369077307,-0.026207413115821664,
0.06384039900249376,0.00859183368761811,
0.06389027431421446,-0.0007030555023369075,
0.06394014962593517,-0.015180496338306051,
0.06399002493765586,0.007630752327537189,
0.06403990024937656,-0.008878159081431688,
0.06408977556109725,-0.017166825220065386,
0.06413965087281795,-0.015519844636397967,
0.06418952618453866,0.009455788474844053,
0.06423940149625935,-0.013809954531494943,
0.06428927680798005,-0.01983105833609728,
0.06433915211970075,-0.007292355052485993,
0.06438902743142144,-0.0020607216543596426,
0.06443890274314215,-0.022108124728455095,
0.06448877805486285,-0.013072178235966604,
0.06453865336658354,-0.013791811086610097,
0.06458852867830424,0.010229572161493828,
0.06463840399002493,-0.034258515195445316,
0.06468827930174563,-0.006871916609521688,
0.06473815461346634,0.018689788271500796,
0.06478802992518704,-0.023200748907221763,
0.06483790523690773,-0.014625957807047563,
0.06488778054862843,-0.009109671990198734,
0.06493765586034912,-0.03751150943742009,
0.06498753117206983,-0.006660272909859307,
0.06503740648379053,-0.035336962945346204,
0.06508728179551122,-0.029858007770107997,
0.06513715710723192,-0.008416177372221799,
0.06518703241895261,0.006319833211155134,
0.06523690773067331,0.013799872751716343,
0.06528678304239402,-7.89067349278626e-05,
0.06533665835411472,0.03032441963438261,
0.06538653366583541,-0.014209091649918293,
0.06543640897755611,0.01626261933928119,
0.0654862842892768,0.0023674665835021307,
0.06553615960099751,0.018275517463053337,
0.06558603491271821,-0.015457182567747536,
0.0656359102244389,0.009638299262481737,
0.0656857855361596,0.0009443978118360641,
0.0657356608478803,-0.015234169477920521,
0.06578553615960099,0.01394272055947817,
0.0658354114713217,0.011661419960458504,
0.0658852867830424,-0.004764526033841298,
0.06593516209476309,0.003126974999401722,
0.06598503740648379,-0.018087834830938017,
0.06603491271820448,-0.007818687162677756,
0.06608478802992519,-0.008709233208185592,
0.06613466334164589,-0.03292888652875719,
0.06618453865336658,-0.011007506296579485,
0.06623441396508728,0.015251348948859376,
0.06628428927680798,-0.011429232722272736,
0.06633416458852869,-0.0022543881708626387,
0.06638403990024938,0.012292828386562302,
0.06643391521197008,-0.01164912282386572,
0.06648379052369077,-0.012771464361608028,
0.06653366583541147,-0.011872724483427926,
0.06658354114713216,0.008172236198079226,
0.06663341645885287,-0.020811239743956236,
0.06668329177057357,-0.016544592700496588,
0.06673316708229426,-0.021210851009715752,
0.06678304239401496,0.0013480656518269397,
0.06683291770573566,-0.0017580684741415747,
0.06688279301745637,-0.005091731549219202,
0.06693266832917706,0.006294374178123065,
0.06698254364089776,0.0015440901407131244,
0.06703241895261845,0.021711268623912455,
0.06708229426433915,-0.009782164850909263,
0.06713216957605984,-0.013784831182844497,
0.06718204488778055,-0.022070233792636604,
0.06723192019950125,-0.005364283515593911,
0.06728179551122195,0.013331013276305629,
0.06733167082294264,0.009423751326708096,
0.06738154613466334,-0.008648408802455255,
0.06743142144638405,-0.0018794677114694729,
0.06748129675810474,0.009432804923728222,
0.06753117206982544,0.003750500957617227,
0.06758104738154613,-0.0006951710117912378,
0.06763092269326683,0.0056656298525288905,
0.06768079800498752,0.009473483535070038,
0.06773067331670823,-0.00611076074767059,
0.06778054862842893,0.019002713905460534,
0.06783042394014963,0.008806548597636901,
0.06788029925187032,0.024960341628705,
0.06793017456359102,0.01976595942860975,
0.06798004987531173,0.018835742049188003,
0.06802992518703242,-0.0044602284865533325,
0.06807980049875312,-0.004418872637320034,
0.06812967581047381,0.012356383889929124,
0.06817955112219451,0.009867024621755687,
0.0682294264339152,0.01004794097620645,
0.06827930174563591,0.03203465356368847,
0.06832917705735661,0.021651450197891033,
0.0683790523690773,-0.0007224273958310601,
0.068428927680798,0.017046086076205554,
0.0684788029925187,0.04272547107928276,
0.06852867830423941,-0.0038028837452644022,
0.0685785536159601,-0.001050151178126393,
0.0686284289276808,0.018009696698330212,
0.0686783042394015,-0.0019280823945923824,
0.06872817955112219,0.019925881410377627,
0.0687780548628429,0.02140395024961134,
0.0688279301745636,0.01766095986157323,
0.06887780548628429,0.0085349519562435,
0.06892768079800499,0.025281750205031542,
0.06897755610972568,0.0125345903262389,
0.06902743142144638,0.01743379354014752,
0.06907730673316709,0.00939378510214017,
0.06912718204488778,0.0037150603148144237,
0.06917705735660848,0.02542839116131465,
0.06922693266832917,0.014795256239697036,
0.06927680798004987,0.01841918168056208,
0.06932668329177058,0.04304784919234067,
0.06937655860349128,0.032324906299639,
0.06942643391521197,0.025502703003642355,
0.06947630922693267,0.007108991942492256,
0.06952618453865336,-0.01813321985903962,
0.06957605985037406,0.0007742680356924055,
0.06962593516209477,0.0036228949185721296,
0.06967581047381546,0.042731629441721396,
0.06972568578553616,0.02446939857241216,
0.06977556109725686,0.014552579652696067,
0.06982543640897755,0.003934915131292405,
0.06987531172069826,0.042430958464752346,
0.06992518703241896,-0.00438905257072093,
0.06997506234413965,0.04150838677094478,
0.07002493765586035,0.0528920387959643,
0.07007481296758104,0.03831917583347148,
0.07012468827930174,0.04408203970499265,
0.07017456359102245,0.0194583380943014,
0.07022443890274314,0.02083734015992953,
0.07027431421446384,0.01451029054491961,
0.07032418952618454,0.013386716013816089,
0.07037406483790523,0.025116159094025935,
0.07042394014962594,0.02131023236628607,
0.07047381546134664,0.02129379574647257,
0.07052369077306733,0.03359025859156742,
0.07057356608478803,0.020352819035622124,
0.07062344139650872,0.026722775828517453,
0.07067331670822943,0.03587695254762165,
0.07072319201995013,0.03172390351624356,
0.07077306733167082,0.009706895037986055,
0.07082294264339152,0.04188337815270616,
0.07087281795511222,0.03164096806425931,
0.07092269326683291,0.00842461246134024,
0.07097256857855362,0.04260108407665024,
0.07102244389027432,0.007862619689880057,
0.07107231920199501,0.0554517883590423,
0.07112219451371571,0.012671279848694154,
0.0711720698254364,0.04896313654390329,
0.07122194513715711,0.0350869713771768,
0.07127182044887781,0.020458226257261992,
0.0713216957605985,0.02199492051066776,
0.0713715710723192,0.02575508319288115,
0.0714214463840399,-0.007327089274543636,
0.07147132169576059,0.032652883066419634,
0.0715211970074813,0.016958515171217214,
0.071571072319202,0.061934488416859904,
0.0716209476309227,0.03091142547965219,
0.07167082294264339,0.029277854441297168,
0.07172069825436408,0.03172088797242175,
0.0717705735660848,0.05160755397208309,
0.07182044887780549,0.006263643560948627,
0.07187032418952619,0.038644068608041114,
0.07192019950124688,0.014800688606573398,
0.07197007481296758,0.03491757420863326,
0.07201995012468827,0.02415682974614337,
0.07206982543640898,0.02363898147860129,
0.07211970074812968,0.02015170521673316,
0.07216957605985037,0.07337185968952388,
0.07221945137157107,0.03736763464872078,
0.07226932668329177,0.05201912587795357,
0.07231920199501247,0.017450803232966453,
0.07236907730673317,0.00022460462326038752,
0.07241895261845387,0.01554759725070552,
0.07246882793017456,0.01887479662369656,
0.07251870324189526,0.04017242317856598,
0.07256857855361595,0.03196681594448022,
0.07261845386533666,0.03049667175941838,
0.07266832917705736,0.01399389961332653,
0.07271820448877805,0.03036576508630424,
0.07276807980049875,0.03481500535822256,
0.07281795511221945,0.03262218788532122,
0.07286783042394016,0.029371978447477777,
0.07291770573566085,0.007651181343273791,
0.07296758104738155,0.030819004041303118,
0.07301745635910224,0.040153896097707135,
0.07306733167082294,0.031377104791941474,
0.07311720698254365,0.026401911415379488,
0.07316708229426434,0.023139723113384615,
0.07321695760598504,0.012363539761416796,
0.07326683291770573,0.020756276994383434,
0.07331670822942643,0.03919918693618439,
0.07336658354114713,0.01792502233147522,
0.07341645885286784,0.03557160500216645,
0.07346633416458853,0.008924125664728198,
0.07351620947630923,0.0415519360232631,
0.07356608478802992,0.04968870924177485,
0.07361596009975062,0.011548417344168723,
0.07366583541147133,0.0035048115862416664,
0.07371571072319202,0.048395697807540536,
0.07376558603491272,0.008653703642852008,
0.07381546134663342,0.018626126951849786,
0.07386533665835411,0.04378136819390538,
0.0739152119700748,0.023271705589668516,
0.07396508728179552,0.00931240393592923,
0.07401496259351621,0.028614046061774652,
0.07406483790523691,0.0322409065237195,
0.0741147132169576,0.001287826992933356,
0.0741645885286783,0.011616068245764456,
0.07421446384039901,0.023993193350249308,
0.0742643391521197,0.015927098442973995,
0.0743142144638404,0.02382652627896414,
0.0743640897755611,0.023466957580496127,
0.07441396508728179,0.002484780975477361,
0.07446384039900249,0.017592517727043892,
0.0745137157107232,0.004152097397136841,
0.07456359102244389,0.040364175839980476,
0.07461346633416459,0.005518175875533698,
0.07466334164588528,0.017769967064480165,
0.07471321695760598,0.030171675750190946,
0.07476309226932669,0.031114318732438,
0.07481296758104738,0.023309757294950134,
0.07486284289276808,0.03418757869868173,
0.07491271820448878,0.0319070859303755,
0.07496259351620947,0.01600642579083229,
0.07501246882793017,-0.0016629291520057592,
0.07506234413965088,0.014521167891638778,
0.07511221945137157,0.013250976668244041,
0.07516209476309227,0.005029883577196335,
0.07521197007481296,0.002710225689508775,
0.07526184538653366,-0.001629490173017431,
0.07531172069825437,-0.002457836755245458,
0.07536159600997507,0.02389920754988671,
0.07541147132169576,0.004785816866240709,
0.07546134663341646,0.013411731155622646,
0.07551122194513715,-0.018727446141648733,
0.07556109725685786,0.007441442205312857,
0.07561097256857856,-0.0015005281234935323,
0.07566084788029925,0.008432789019395691,
0.07571072319201995,0.005024909970709569,
0.07576059850374064,0.02551858463953436,
0.07581047381546134,0.007870770043738314,
0.07586034912718205,0.035358008949376823,
0.07591022443890275,0.043631289445194066,
0.07596009975062344,0.006927954711226172,
0.07600997506234414,-0.006894526728301775,
0.07605985037406483,-0.006238821358661748,
0.07610972568578554,0.008429230799653947,
0.07615960099750624,0.006278363052672093,
0.07620947630922693,-0.004217263379505284,
0.07625935162094763,0.024047230065456456,
0.07630922693266833,0.01335258493978502,
0.07635910224438902,0.0006206956312370965,
0.07640897755610973,0.0007977050735948916,
0.07645885286783043,-0.0073439287391103975,
0.07650872817955112,-0.01835677905106832,
0.07655860349127182,0.0019213637392349178,
0.07660847880299251,0.0177672380087025,
0.07665835411471322,0.012303906284738955,
0.07670822942643392,-0.000667758510799801,
0.07675810473815461,-0.01087311774685055,
0.07680798004987531,-0.001974038977076988,
0.076857855361596,-0.00179111892368879,
0.0769077306733167,-0.0032884960635453262,
0.07695760598503741,0.021861491446443528,
0.0770074812967581,0.03187202550659513,
0.0770573566084788,-0.0042600531885223164,
0.0771072319201995,0.015000296596071713,
0.0771571072319202,0.011667053665400752,
0.0772069825436409,0.009845878185241345,
0.0772568578553616,0.01933649414879786,
0.0773067331670823,0.01951376289028306,
0.07735660847880299,0.010213634507202866,
0.07740648379052369,-0.00674118591993398,
0.0774563591022444,-0.012327673753162368,
0.07750623441396509,0.027946050417156105,
0.07755610972568579,-0.006321325243108755,
0.07760598503740648,-0.024849745624146206,
0.07765586034912718,0.03169232065749191,
0.07770573566084787,0.0051001275532892906,
0.07775561097256858,-0.02466960875090199,
0.07780548628428928,-0.001860193610291059,
0.07785536159600998,5.87743175622232e-05,
0.07790523690773067,0.02452804418993984,
0.07795511221945137,-0.028873375160438104,
0.07800498753117208,-0.015749241969398264,
0.07805486284289277,-0.0003760701679758541,
0.07810473815461347,0.023189254742188185,
0.07815461346633416,0.028387786640514584,
0.07820448877805486,-0.0018404064050833138,
0.07825436408977555,0.012117180658973955,
0.07830423940149626,0.03002889093678507,
0.07835411471321696,0.010719207598326374,
0.07840399002493766,0.012327952465936973,
0.07845386533665835,0.026657246493447653,
0.07850374064837905,0.0027889927722185596,
0.07855361596009976,-0.027050184701269644,
0.07860349127182045,0.013537746094000654,
0.07865336658354115,-0.018577209730140667,
0.07870324189526184,-0.017088644155585354,
0.07875311720698254,0.008416537006057002,
0.07880299251870324,-0.007853003090558424,
0.07885286783042394,-0.010246662644826656,
0.07890274314214464,-0.017136141820995526,
0.07895261845386534,-0.010685029688950123,
0.07900249376558603,0.011444805894473145,
0.07905236907730673,-0.03612752677954034,
0.07910224438902744,0.007922355259939399,
0.07915211970074813,0.008111981185961136,
0.07920199501246883,0.006323712873912048,
0.07925187032418952,-0.012173026900618953,
0.07930174563591022,-0.007458213245160198,
0.07935162094763092,-0.01047717882451943,
0.07940149625935163,0.026245454591198775,
0.07945137157107232,0.005892912102600031,
0.07950124688279302,0.004715308161739428,
0.07955112219451371,0.0028494388175732445,
0.07960099750623441,-0.020541277698633027,
0.07965087281795512,-0.028842814577993293,
0.07970074812967581,-0.014184541375263805,
0.07975062344139651,-0.032896900661710665,
0.0798004987531172,0.014814404126660878,
0.0798503740648379,-0.02548885135125231,
0.07990024937655861,0.01779446527550049,
0.0799501246882793,0.009691244342933336,
0.08,-0.013946882507132712,
0.0800498753117207,-0.008811562715337468,
0.0800997506234414,-0.020253883454794428,
0.08014962593516209,0.00944542672571706,
0.0801995012468828,-0.027948596210928975,
0.0802493765586035,-0.027848244140109696,
0.08029925187032419,-0.012981868954917911,
0.08034912718204489,-0.01788265931280949,
0.08039900249376558,-0.029420487154616048,
0.08044887780548629,-0.013954182920895362,
0.08049875311720699,0.015116291036369108,
0.08054862842892768,-0.03949241928224632,
0.08059850374064838,-0.04499935927304795,
0.08064837905236907,0.018514856202466755,
0.08069825436408977,0.0017894316437806444,
0.08074812967581048,-0.011945646363929197,
0.08079800498753117,-0.026908136820223423,
0.08084788029925187,-0.017360425620918458,
0.08089775561097257,-0.018053120962200114,
0.08094763092269326,-0.021760931050596476,
0.08099750623441397,-0.006624023235645369,
0.08104738154613467,-0.026717663391907807,
0.08109725685785536,-0.012819522048783168,
0.08114713216957606,-0.005832789455206918,
0.08119700748129675,-0.012442435054779913,
0.08124688279301745,0.008743694390795219,
0.08129675810473816,-0.012999466309522074,
0.08134663341645886,-0.005197180217514108,
0.08139650872817955,-0.036465042192879694,
0.08144638403990025,-0.0027027438514726325,
0.08149625935162094,-0.017629680362547435,
0.08154613466334165,-0.02133798767359002,
0.08159600997506235,-0.023157782042588695,
0.08164588528678304,0.012264899084167558,
0.08169576059850374,-0.02701455357162657,
0.08174563591022443,-0.0064176568513015795,
0.08179551122194513,-0.03302714167908735,
0.08184538653366584,-0.019422854414946573,
0.08189526184538654,-0.019145405202311883,
0.08194513715710723,-0.0030506702413874015,
0.08199501246882793,-0.022653827523987726,
0.08204488778054862,0.016132232810138918,
0.08209476309226933,-0.013366114577899805,
0.08214463840399003,0.005902587742989334,
0.08219451371571072,-0.01938299480419936,
0.08224438902743142,-0.016670650329518227,
0.08229426433915212,-0.047032307741193644,
0.08234413965087282,0.009791682502375793,
0.08239401496259352,-0.024148391892173517,
0.08244389027431422,-0.014027508060714686,
0.08249376558603491,-0.013089853615167513,
0.08254364089775561,-0.020551844146561225,
0.0825935162094763,-0.02205323512917544,
0.08264339152119701,-0.019291426753568704,
0.08269326683291771,-0.03006754417205032,
0.0827431421446384,-0.011597597994169775,
0.0827930174563591,-0.023035951622665973,
0.0828428927680798,-0.02358857768342825,
0.0828927680798005,-0.04720206896695246,
0.0829426433915212,-0.02444541566288401,
0.0829925187032419,-0.011824009438222378,
0.08304239401496259,-0.01711120739766353,
0.08309226932668329,0.011817401653016842,
0.08314214463840398,0.0026110318984583075,
0.0831920199501247,-0.0028763574714467284,
0.08324189526184539,-0.034103951454719006,
0.08329177057356608,0.010739439913875874,
0.08334164588528678,-0.02393835953568242,
0.08339152119700748,-0.031320935746556124,
0.08344139650872819,0.024451288420216787,
0.08349127182044888,-0.03035085638805773,
0.08354114713216958,-0.037845391922343284,
0.08359102244389027,-0.007066204698527724,
0.08364089775561097,-0.0017273495008300627,
0.08369077306733166,-0.011767155845132857,
0.08374064837905237,0.005038681113222473,
0.08379052369077307,-0.0166616471732985,
0.08384039900249377,-0.02078282236313295,
0.08389027431421446,-0.0072010552281245276,
0.08394014962593516,-0.021029820466410512,
0.08399002493765587,-0.026628685093704536,
0.08403990024937656,0.0011401828974047668,
0.08408977556109726,-0.010646773671879836,
0.08413965087281795,-0.02041933326573865,
0.08418952618453865,-0.01624941981030568,
0.08423940149625936,-0.04790858569734361,
0.08428927680798005,0.013214591847308957,
0.08433915211970075,-0.01029293525504462,
0.08438902743142145,-0.001336656580769994,
0.08443890274314214,-0.005693712532322168,
0.08448877805486284,-0.018043111200527158,
0.08453865336658355,-0.014919557699393187,
0.08458852867830424,-0.008191786844295305,
0.08463840399002494,-0.007946574319384328,
0.08468827930174563,-0.015260967528099412,
0.08473815461346633,0.01633567942408102,
0.08478802992518704,-0.015218501191007542,
0.08483790523690773,0.015560300588377455,
0.08488778054862843,-0.014659431685984499,
0.08493765586034913,0.00048162289794705625,
0.08498753117206982,-0.006191423525669953,
0.08503740648379052,0.0023182599069895655,
0.08508728179551123,0.01873487102648728,
0.08513715710723192,-0.021008794686462474,
0.08518703241895262,-0.01813765929652584,
0.08523690773067331,-0.0078757038200951,
0.08528678304239401,-0.0126697557217324,
0.08533665835411472,-0.015038479178528595,
0.08538653366583542,-0.011989408006929273,
0.08543640897755611,0.016800306871558885,
0.0854862842892768,0.03881427297721909,
0.0855361596009975,-0.009952246744363288,
0.0855860349127182,-0.003212777365535531,
0.08563591022443891,-0.00814235135998444,
0.0856857855361596,-0.019427537462670716,
0.0857356608478803,-0.009556151812083281,
0.085785536159601,-0.008377271053910122,
0.08583541147132169,0.008678413832058184,
0.0858852867830424,-0.003454873189602458,
0.0859351620947631,0.0025678380099222737,
0.08598503740648379,0.001782541379659029,
0.08603491271820449,-0.01720388774165315,
0.08608478802992518,0.017786926411513273,
0.08613466334164588,-0.01857234740464762,
0.08618453865336659,-0.004870827266342203,
0.08623441396508728,-0.016447715501500888,
0.08628428927680798,-0.010498741763179276,
0.08633416458852868,0.00878058657017337,
0.08638403990024937,0.0006966134688803044,
0.08643391521197008,0.009063187433724201,
0.08648379052369078,-0.01470773083389412,
0.08653366583541147,-0.007240923934368191,
0.08658354114713217,0.027687374822289695,
0.08663341645885286,-0.01310984263931915,
0.08668329177057357,0.0058316249505674395,
0.08673316708229427,-2.132140923378177e-05,
0.08678304239401496,0.003538189211233863,
0.08683291770573566,0.02111589724150239,
0.08688279301745636,0.009141542606852755,
0.08693266832917705,0.025410555396647133,
0.08698254364089776,0.022671719466034513,
0.08703241895261846,0.028453081803141718,
0.08708229426433915,-0.002146014367342617,
0.08713216957605985,0.011712015647593756,
0.08718204488778054,0.00023831130244486663,
0.08723192019950125,-9.953135591465011e-05,
0.08728179551122195,-0.004197331867471251,
0.08733167082294264,0.016150761786848315,
0.08738154613466334,0.008444864927409087,
0.08743142144638404,0.006769970521948203,
0.08748129675810473,0.015272695926236028,
0.08753117206982544,-0.013367958403075093,
0.08758104738154614,0.001047162456606644,
0.08763092269326683,0.0350390447042631,
0.08768079800498753,-0.0034115808010676523,
0.08773067331670822,-0.010921202571560751,
0.08778054862842893,0.013675123947163902,
0.08783042394014963,0.0075645239770353034,
0.08788029925187033,0.010986965419068382,
0.08793017456359102,0.024209904806535468,
0.08798004987531172,0.013588710312360872,
0.08802992518703241,0.021558043528509662,
0.08807980049875312,0.004989372563313833,
0.08812967581047382,-0.0036998719151917075,
0.08817955112219451,0.004659317632064062,
0.08822942643391521,-0.0036322734976682453,
0.0882793017456359,0.015319698923661803,
0.08832917705735661,0.014736804415306743,
0.08837905236907731,0.025744596816939837,
0.088428927680798,-0.00020826103940065066,
0.0884788029925187,0.012989495337715661,
0.0885286783042394,-0.0006104560452439255,
0.0885785536159601,0.010214279878159909,
0.0886284289276808,0.015102522954537505,
0.0886783042394015,0.03966520584616023,
0.0887281795511222,0.019633602257506363,
0.08877805486284289,0.002564098737224123,
0.08882793017456359,-0.0041149172767367785,
0.0888778054862843,0.0029195821328949177,
0.08892768079800499,0.046247404776914955,
0.08897755610972569,0.027140520120138137,
0.08902743142144638,0.024950966242647196,
0.08907730673316708,0.034591125349011445,
0.08912718204488779,0.021081325551893074,
0.08917705735660848,-0.0029525211008102938,
0.08922693266832918,0.011886824817910101,
0.08927680798004987,-0.007866289772335156,
0.08932668329177057,0.019803310853755886,
0.08937655860349127,0.0071453472458140686,
0.08942643391521198,0.019767030785797994,
0.08947630922693267,-0.0009514997978408504,
0.08952618453865337,0.01720926850622809,
0.08957605985037406,0.00785705245522051,
0.08962593516209476,0.005202738662413803,
0.08967581047381547,0.005247549897462182,
0.08972568578553616,0.023579174130735323,
0.08977556109725686,0.04213314210359058,
0.08982543640897755,0.021106453054111782,
0.08987531172069825,0.01336177395233531,
0.08992518703241895,0.02035875399373565,
0.08997506234413966,0.003120471054550329,
0.09002493765586035,0.051072645180243945,
0.09007481296758105,0.040864041150933686,
0.09012468827930174,0.00547535514992999,
0.09017456359102244,0.04155523586396968,
0.09022443890274315,0.03292915548176444,
0.09027431421446384,0.057920252167748855,
0.09032418952618454,0.02911360507662748,
0.09037406483790524,0.017696325531651638,
0.09042394014962593,0.025620430241410343,
0.09047381546134663,0.011373744505960197,
0.09052369077306734,0.017097308317670423,
0.09057356608478803,0.021725619320747284,
0.09062344139650873,0.017023859976004942,
0.09067331670822942,0.01010071533140206,
0.09072319201995012,0.03331500928762884,
0.09077306733167083,0.04027492706308731,
0.09082294264339152,0.007583113375109529,
0.09087281795511222,0.04790201169565668,
0.09092269326683292,0.02686062891633273,
0.09097256857855361,0.0006806766523389865,
0.09102244389027432,0.02850156432439512,
0.09107231920199502,0.025996983594431054,
0.09112219451371571,0.03411438736450286,
0.09117206982543641,0.01779632701705501,
0.0912219451371571,0.011564325795426494,
0.0912718204488778,0.033158918782712044,
0.09132169576059851,0.022526591990003897,
0.0913715710723192,0.030775627793637402,
0.0914214463840399,0.04253720747571125,
0.0914713216957606,0.04581245604731771,
0.09152119700748129,0.04054716353359882,
0.091571072319202,0.013021411796697474,
0.0916209476309227,0.031457458847861525,
0.09167082294264339,0.03199295082991653,
0.09172069825436409,0.004847653547220138,
0.09177057356608478,0.0042194385207561524,
0.09182044887780548,-0.006944082840497991,
0.09187032418952619,0.04016426966989878,
0.09192019950124689,0.02752588819146287,
0.09197007481296758,0.02099466959912183,
0.09201995012468828,0.02770650649986118,
0.09206982543640897,0.018126099503311073,
0.09211970074812968,0.03365749492840904,
0.09216957605985038,0.04420930000666455,
0.09221945137157107,0.04009440108527199,
0.09226932668329177,0.061555448202742516,
0.09231920199501246,0.02555541258464131,
0.09236907730673316,0.032757029180564695,
0.09241895261845387,0.057352076498901346,
0.09246882793017457,0.03649891292193792,
0.09251870324189526,0.025886166131000223,
0.09256857855361596,-0.012453865977174128,
0.09261845386533665,0.020204855407081647,
0.09266832917705736,0.02154108850781415,
0.09271820448877806,0.008755081642965522,
0.09276807980049875,0.038917680566062464,
0.09281795511221945,0.03029088628591137,
0.09286783042394015,0.04720075380097874,
0.09291770573566084,0.02280119979270264,
0.09296758104738155,0.02452447203556541,
0.09301745635910225,0.03973301492561404,
0.09306733167082294,0.01954239108519767,
0.09311720698254364,0.024612837809931978,
0.09316708229426433,0.027671017789627158,
0.09321695760598504,0.002577234640655679,
0.09326683291770574,0.024416329471998406,
0.09331670822942643,0.03845180822920417,
0.09336658354114713,0.012568636237801105,
0.09341645885286783,0.040012320874071666,
0.09346633416458854,0.015711437203880546,
0.09351620947630923,0.01190592967371651,
0.09356608478802993,0.01397578314044106,
0.09361596009975062,0.02518471592781463,
0.09366583541147132,0.0040505816309701105,
0.09371571072319201,0.03736811515942251,
0.09376558603491272,0.011271703955225065,
0.09381546134663342,0.01479634386195059,
0.09386533665835411,0.015537608277566636,
0.09391521197007481,0.019761088444174665,
0.0939650872817955,0.03207685455478899,
0.09401496259351622,-0.020255970387407122,
0.09406483790523691,0.012317273155073645,
0.09411471321695761,0.013285275304994362,
0.0941645885286783,0.02858284294384876,
0.094214463840399,0.0021277113505646372,
0.0942643391521197,0.03488464534896617,
0.0943142144638404,0.013096262160491017,
0.0943640897755611,0.018668068516884132,
0.0944139650872818,0.012603682549184305,
0.09446384039900249,0.05256256070214108,
0.09451371571072319,0.015269362473935275,
0.0945635910224439,0.04114065738004072,
0.09461346633416459,0.02869539387823273,
0.09466334164588529,0.023596754650640085,
0.09471321695760598,0.009168701040782266,
0.09476309226932668,0.020086369184711128,
0.09481296758104737,0.0321431150782213,
0.09486284289276808,0.0527813616546159,
0.09491271820448878,0.011661753916575444,
0.09496259351620948,0.002236287131118262,
0.09501246882793017,0.016932225504563744,
0.09506234413965087,0.027489816627351588,
0.09511221945137158,0.0013631601342376024,
0.09516209476309227,0.012623595363490113,
0.09521197007481297,0.020931131915665195,
0.09526184538653366,0.009642416776889217,
0.09531172069825436,0.0018594868556983703,
0.09536159600997507,0.004362754771753475,
0.09541147132169576,0.015221611888135799,
0.09546134663341646,0.02895355879412926,
0.09551122194513716,0.039219543640112924,
0.09556109725685785,0.012760754936866524,
0.09561097256857855,0.035491267800954726,
0.09566084788029926,0.0015863714306709412,
0.09571072319201995,-0.008385959166323582,
0.09576059850374065,0.0075339636253381895,
0.09581047381546134,-0.016481753474354013,
0.09586034912718204,0.015641254416903085,
0.09591022443890275,0.020314040915637425,
0.09596009975062345,0.01026775885591927,
0.09600997506234414,0.016626993831291237,
0.09605985037406484,0.0296127258808966,
0.09610972568578553,0.038954699871137935,
0.09615960099750623,0.0007110633567011977,
0.09620947630922694,0.005553050739906653,
0.09625935162094763,0.024998276654089914,
0.09630922693266833,0.017714984944560797,
0.09635910224438902,0.006566511580214885,
0.09640897755610972,0.007384896832200181,
0.09645885286783043,-0.0055461493338690646,
0.09650872817955113,0.014141567390411395,
0.09655860349127182,-0.01663520781465614,
0.09660847880299252,0.03316022961499515,
0.09665835411471321,0.011141438549378265,
0.09670822942643391,0.009757798824500513,
0.09675810473815462,-0.004596337264537096,
0.09680798004987531,0.009648287292717944,
0.09685785536159601,-0.010878270859565994,
0.0969077306733167,-0.02263165334055826,
0.0969576059850374,0.023221013970831924,
0.09700748129675811,-0.026479444276819496,
0.0970573566084788,0.013689535840435446,
0.0971072319201995,0.04182008188419946,
0.0971571072319202,0.019798003561993873,
0.0972069825436409,-0.009580940917552324,
0.09725685785536159,0.019677907881516018,
0.0973067331670823,-0.0007967371975268062,
0.097356608478803,-0.005710876779159801,
0.09740648379052369,0.008447608907845412,
0.09745635910224439,0.002667479057745857,
0.09750623441396508,0.003407639203547321,
0.09755610972568579,-0.0042240946374110175,
0.09760598503740649,0.0001452390625585804,
0.09765586034912718,0.017356165751391896,
0.09770573566084788,-0.021555171117896725,
0.09775561097256857,-0.006625790138045761,
0.09780548628428928,0.03064723259503669,
0.09785536159600998,-0.013282523231199354,
0.09790523690773068,-0.018409651510195593,
0.09795511221945137,-0.00746730658046424,
0.09800498753117207,-0.008774777937664244,
0.09805486284289276,0.0021378012358056805,
0.09810473815461347,-0.005293793822016454,
0.09815461346633417,0.03664242849643233,
0.09820448877805486,-0.004509202572519383,
0.09825436408977556,-0.005437799157005042,
0.09830423940149625,0.006913885671735848,
0.09835411471321696,-0.020075104110894616,
0.09840399002493766,0.010311946563235152,
0.09845386533665836,-0.019627824359919634,
0.09850374064837905,0.007161404470994783,
0.09855361596009975,-0.019929641889871015,
0.09860349127182044,0.03192122394873647,
0.09865336658354115,-0.004693213922364938,
0.09870324189526185,-0.01208675138901038,
0.09875311720698254,0.02529076616885048,
0.09880299251870324,0.007717376143557931,
0.09885286783042393,0.013232005677878182,
0.09890274314214464,0.024917655186155532,
0.09895261845386534,0.00873209310048118,
0.09900249376558604,0.012824014312143502,
0.09905236907730673,-0.019313107063992745,
0.09910224438902743,0.010080112474025016,
0.09915211970074812,-0.016091270643104165,
0.09920199501246883,-0.012973669100528143,
0.09925187032418953,0.004318560150166704,
0.09930174563591022,-0.00047750349439199327,
0.09935162094763092,-0.02532792352097673,
0.09940149625935162,-0.020250581899311955,
0.09945137157107233,0.00021307440323645004,
0.09950124688279302,-0.025208789464485917,
0.09955112219451372,-0.026357535297487352,
0.09960099750623441,-0.019423564105017242,
0.09965087281795511,-0.01380081367083372,
0.0997007481296758,0.0009389520299464106,
0.09975062344139651,-0.0016541830003600991,
0.09980049875311721,-0.019277705313892772,
0.0998503740648379,0.005549173146134278,
0.0999002493765586,-0.01731396014430115,
0.0999501246882793,0.021922525232034314,
0.1,-0.021670960420528813,
0.1000498753117207,0.005240862459270478,
0.1000997506234414,-0.019476269609787388,
0.10014962593516209,-0.01067855681130972,
0.10019950124688279,-0.020999348875004313,
0.1002493765586035,0.0021914789933753145,
0.1002992518703242,-0.0031714263045970947,
0.10034912718204489,-0.031958499760028,
0.10039900249376559,-0.008125880719230469,
0.10044887780548628,-0.017262244629987225,
0.10049875311720698,-0.0016481781410806733,
0.10054862842892769,-0.019855015188373307,
0.10059850374064838,-0.0070930668380849915,
0.10064837905236908,-0.001920787149898925,
0.10069825436408977,-0.014486908661432762,
0.10074812967581047,0.0022168785914650976,
0.10079800498753118,-0.020729593595461067,
0.10084788029925187,-0.0009845283481755285,
0.10089775561097257,-0.006989364844546132,
0.10094763092269327,-0.019369825468879713,
0.10099750623441396,0.0026206658494056304,
0.10104738154613466,0.008625456123927542,
0.10109725685785537,-0.03215606369392463,
0.10114713216957606,-0.0478193665733557,
0.10119700748129676,-0.021486071032535956,
0.10124688279301745,-0.01875721536852385,
0.10129675810473815,-0.021044094430777482,
0.10134663341645886,-0.009782152334415949,
0.10139650872817955,-0.005193213683969095,
0.10144638403990025,-0.01642932700796918,
0.10149625935162095,-0.00086835291379324,
0.10154613466334164,-0.021355825718045444,
0.10159600997506234,0.020591812685500064,
0.10164588528678305,-0.020559402131445602,
0.10169576059850374,-0.005154622838456112,
0.10174563591022444,-0.003580193023530834,
0.10179551122194513,-0.02557649199279704,
0.10184538653366583,0.0009924044895786594,
0.10189526184538654,-0.02804445698551974,
0.10194513715710724,-0.01639828235932121,
0.10199501246882793,-0.018564233073249295,
0.10204488778054863,-0.0014328345073986656,
0.10209476309226932,-0.008307375355538906,
0.10214463840399003,-0.019189692244710538,
0.10219451371571073,-0.00916578487282373,
0.10224438902743142,-0.04861984673121528,
0.10229426433915212,-0.029215337782870388,
0.10234413965087281,-0.004857436109903504,
0.10239401496259351,0.01696314736698034,
0.10244389027431422,0.002338452762606068,
0.10249376558603492,-0.006417735573243644,
0.10254364089775561,-0.0014364281502418034,
0.10259351620947631,-0.011659596995900542,
0.102643391521197,-0.02816498663809235,
0.10269326683291771,-0.008791984243847497,
0.10274314214463841,-0.026644957441894098,
0.1027930174563591,-0.0017279998831006994,
0.1028428927680798,-0.04034911962410204,
0.1028927680798005,-0.02739779949169636,
0.10294264339152119,-0.029936257549650243,
0.1029925187032419,-0.008870279464380269,
0.1030423940149626,-0.021851784103769055,
0.10309226932668329,-0.009119167795176812,
0.10314214463840399,-0.033351507313042886,
0.10319201995012468,-0.01237765553708143,
0.10324189526184539,0.013812648163873058,
0.10329177057356609,-0.007830982356891138,
0.10334164588528678,-0.026079409538123245,
0.10339152119700748,-0.020231772357021234,
0.10344139650872818,-0.006599019743062859,
0.10349127182044887,0.0066859972748868745,
0.10354114713216958,-0.024469518327303923,
0.10359102244389028,-0.022837341133538684,
0.10364089775561097,-0.03653848339570742,
0.10369077306733167,-0.012579592006590671,
0.10374064837905236,0.005562404988586721,
0.10379052369077307,-0.012478020611480269,
0.10384039900249377,-0.0018444607177778372,
0.10389027431421446,-0.013778203246549669,
0.10394014962593516,0.018248878398462936,
0.10399002493765586,0.013217639298642694,
0.10403990024937655,-0.020601705130099478,
0.10408977556109726,0.0017829024410208616,
0.10413965087281796,-0.008413920293170136,
0.10418952618453865,0.002516887354606345,
0.10423940149625935,0.007207068332751464,
0.10428927680798004,0.016023956538150082,
0.10433915211970075,-0.03098751525846367,
0.10438902743142145,-0.035822007033431004,
0.10443890274314215,-0.04057286829575215,
0.10448877805486284,-0.015200188991151244,
0.10453865336658354,0.007017012823104492,
0.10458852867830425,-0.00448898728072576,
0.10463840399002494,0.0024084191007177434,
0.10468827930174564,-0.01437292267272524,
0.10473815461346633,-0.021460221726365268,
0.10478802992518703,-0.01969032385448407,
0.10483790523690772,0.0029724012512771705,
0.10488778054862843,0.0189402832152383,
0.10493765586034913,-0.02157255152406479,
0.10498753117206983,-0.01677513461953646,
0.10503740648379052,0.000859397570950173,
0.10508728179551122,0.0012470306821560058,
0.10513715710723193,-0.005566365156919226,
0.10518703241895262,-0.013157559694758366,
0.10523690773067332,-0.009741742441296693,
0.10528678304239401,-0.010484484695301437,
0.10533665835411471,-0.02131317251990017,
0.1053865336658354,-0.004465637183810231,
0.10543640897755611,-0.0036056249927670305,
0.10548628428927681,-0.031015016428153054,
0.1055361596009975,0.0029740933349451746,
0.1055860349127182,-0.008138998952089766,
0.1056359102244389,0.0005015914161673911,
0.10568578553615961,0.005394246491098897,
0.1057356608478803,-0.006315486019726538,
0.105785536159601,0.018242115154141744,
0.1058354114713217,-0.012812398540157203,
0.10588528678304239,-0.025609690615387364,
0.10593516209476309,0.010485067494262005,
0.1059850374064838,0.0018984897395677683,
0.10603491271820449,0.014586980108239276,
0.10608478802992519,0.013341440132318078,
0.10613466334164588,0.02106068180405626,
0.10618453865336658,0.011922360302699612,
0.10623441396508729,0.016838614197995254,
0.10628428927680798,0.021957879523782912,
0.10633416458852868,-0.009592147932521881,
0.10638403990024937,0.0036451870220549935,
0.10643391521197007,-0.0001388764912263604,
0.10648379052369077,0.005669912154233639,
0.10653366583541148,-0.0033034558682894215,
0.10658354114713217,-0.01907640221762295,
0.10663341645885287,-0.005822973793673688,
0.10668329177057356,-0.006829801059495769,
0.10673316708229426,0.001177557999562759,
0.10678304239401497,-0.019983603501840877,
0.10683291770573566,-0.014620960227653704,
0.10688279301745636,0.020927347524326095,
0.10693266832917706,0.034124318148623184,
0.10698254364089775,-0.00010188274758694046,
0.10703241895261846,0.020225001720797466,
0.10708229426433916,-0.019623328065287184,
0.10713216957605985,0.03342987354298611,
0.10718204488778055,0.017315301088679808,
0.10723192019950124,0.00417112004085421,
0.10728179551122194,-0.01620840458957443,
0.10733167082294265,-0.03370822931218655,
0.10738154613466334,-0.008100861684303698,
0.10743142144638404,0.015183427918697801,
0.10748129675810474,0.02491643634696524,
0.10753117206982543,0.014565129131468426,
0.10758104738154614,0.010192966885025481,
0.10763092269326684,-0.016758430427292602,
0.10768079800498753,0.014329457628937246,
0.10773067331670823,0.002983690868954652,
0.10778054862842892,-0.010580449725868447,
0.10783042394014962,-0.0011660018720474497,
0.10788029925187033,0.007413376431417302,
0.10793017456359102,0.0014107756735439285,
0.10798004987531172,0.0038346295407481936,
0.10802992518703242,0.0281072767964742,
0.10807980049875311,-0.00830376156971135,
0.10812967581047382,-0.0005064725724490821,
0.10817955112219452,0.01508920687212142,
0.10822942643391521,0.021110454726222472,
0.10827930174563591,-0.005115767827648311,
0.1083291770573566,0.02157851319932523,
0.1083790523690773,-0.00872569910413138,
0.10842892768079801,0.016898686271728216,
0.1084788029925187,0.032857995760838074,
0.1085286783042394,0.019620441083049597,
0.1085785536159601,0.03575643425669721,
0.10862842892768079,0.004769408451468773,
0.1086783042394015,0.01324579272370328,
0.1087281795511222,-0.011229104926812162,
0.1087780548628429,0.02478188005619766,
0.10882793017456359,0.005368621090346115,
0.10887780548628428,0.00526741221927904,
0.108927680798005,0.028508829225878284,
0.10897755610972569,0.04197783610418788,
0.10902743142144639,0.04711491114573077,
0.10907730673316708,0.01702062834858346,
0.10912718204488778,0.016727476565080984,
0.10917705735660847,0.010499616768255829,
0.10922693266832918,0.03431346828788773,
0.10927680798004988,0.013806786231166393,
0.10932668329177057,0.03696578085638166,
0.10937655860349127,0.020028414185907666,
0.10942643391521197,0.03985571584984911,
0.10947630922693267,0.03217908907749745,
0.10952618453865337,0.00013520520020277732,
0.10957605985037407,0.03138170116276737,
0.10962593516209476,0.025424511445723195,
0.10967581047381546,-0.0026879024599409905,
0.10972568578553615,0.031174340913489258,
0.10977556109725686,0.008343733021103734,
0.10982543640897756,0.023337175103346847,
0.10987531172069825,0.025058889169412884,
0.10992518703241895,0.048046342013955856,
0.10997506234413965,0.024001191515773505,
0.11002493765586036,-0.00238393145969203,
0.11007481296758105,0.002220179118934594,
0.11012468827930175,0.027974878919544675,
0.11017456359102244,0.00405707569140399,
0.11022443890274314,0.03041381677889332,
0.11027431421446383,0.028296056779708954,
0.11032418952618454,0.03621118089904801,
0.11037406483790524,0.025725953499586226,
0.11042394014962593,0.04424768887241104,
0.11047381546134663,0.025151330596481506,
0.11052369077306733,-0.020268115886360252,
0.11057356608478804,0.011221708696134099,
0.11062344139650873,0.029057018091390014,
0.11067331670822943,0.048406401873152566,
0.11072319201995012,0.013510106442406586,
0.11077306733167082,0.0060554056554617194,
0.11082294264339151,0.02761899207898203,
0.11087281795511222,0.03490777451966001,
0.11092269326683292,0.017975183225938017,
0.11097256857855362,0.03556569483423663,
0.11102244389027431,0.04884172162143807,
0.111072319201995,0.028187417873877872,
0.11112219451371572,0.009701472464678004,
0.11117206982543641,0.014191433210874885,
0.11122194513715711,0.043196422817668,
0.1112718204488778,0.025313494097582753,
0.1113216957605985,0.049551144620712,
0.11137157107231921,0.018581120729594565,
0.1114214463840399,0.034005557946525405,
0.1114713216957606,0.049194312798057645,
0.1115211970074813,0.029535646995766468,
0.11157107231920199,0.028745779113392485,
0.11162094763092269,0.018653065570020742,
0.1116708229426434,0.03893279237943954,
0.11172069825436409,0.060471465379646094,
0.11177057356608479,0.030763444279090862,
0.11182044887780548,0.038351156470654006,
0.11187032418952618,0.003857918480490722,
0.11192019950124689,0.01124604093532152,
0.11197007481296758,0.03628404071841645,
0.11201995012468828,0.0359869491342732,
0.11206982543640898,0.024426650872602946,
0.11211970074812967,0.048365777326389844,
0.11216957605985037,0.019120950292288705,
0.11221945137157108,0.0169142591677432,
0.11226932668329177,0.002709341027855087,
0.11231920199501247,0.02330818284381872,
0.11236907730673316,0.009947541946823433,
0.11241895261845386,0.027300034091254696,
0.11246882793017457,0.02073457809591988,
0.11251870324189527,0.03815816530970383,
0.11256857855361596,0.03245266528510991,
0.11261845386533666,0.021415926469624223,
0.11266832917705735,0.005740322446058044,
0.11271820448877805,-0.005134424760813085,
0.11276807980049876,-0.0012611852412165794,
0.11281795511221945,-0.003363759681759934,
0.11286783042394015,0.026432529979990117,
0.11291770573566084,0.030507826293508296,
0.11296758104738154,0.03120929723266941,
0.11301745635910225,0.030962919756417635,
0.11306733167082295,0.008813517772583383,
0.11311720698254364,0.049913155717807384,
0.11316708229426434,-0.002664037194433432,
0.11321695760598503,0.025345370364294847,
0.11326683291770574,0.009999233703322997,
0.11331670822942644,-0.00015175028457995593,
0.11336658354114713,0.04046994069262015,
0.11341645885286783,0.0485517162353421,
0.11346633416458853,0.029386108589498208,
0.11351620947630922,0.02736641521577259,
0.11356608478802993,0.04090535359418468,
0.11361596009975063,0.034221905340681355,
0.11366583541147132,0.027421167679431212,
0.11371571072319202,0.034582833304772194,
0.11376558603491271,0.019150466530227284,
0.11381546134663342,0.010020319152429255,
0.11386533665835412,0.03218255928410148,
0.11391521197007481,-0.01466482766665491,
0.11396508728179551,0.04069182587417943,
0.1140149625935162,0.03868561387088424,
0.1140648379052369,0.025305029785967544,
0.11411471321695761,0.008003710221190615,
0.1141645885286783,0.033717680371282734,
0.114214463840399,0.020150917724061673,
0.1142643391521197,0.02305529439959933,
0.1143142144638404,0.006630599430690571,
0.1143640897755611,0.0250575252880978,
0.1144139650872818,0.025901331761168243,
0.1144638403990025,0.03644587414046292,
0.11451371571072319,0.023406872790818548,
0.11456359102244389,0.029256955712878063,
0.11461346633416458,0.017956466632321092,
0.11466334164588529,0.0059693977115457125,
0.11471321695760599,0.008331431112707765,
0.11476309226932668,0.03261874793532771,
0.11481296758104738,0.03041794038013528,
0.11486284289276807,0.02375652943163021,
0.11491271820448878,0.023275305389453042,
0.11496259351620948,0.006003261347867411,
0.11501246882793018,0.05014114621495925,
0.11506234413965087,0.03537139104518107,
0.11511221945137157,0.05815098979779799,
0.11516209476309226,0.0006591607033471746,
0.11521197007481297,0.029293592808830267,
0.11526184538653367,0.027380561452958765,
0.11531172069825436,0.011617240709219531,
0.11536159600997506,-5.673458307355744e-05,
0.11541147132169575,0.0108612918303732,
0.11546134663341646,-0.007185900369898388,
0.11551122194513716,0.045139886956323275,
0.11556109725685786,0.015580203209188874,
0.11561097256857855,0.018408889410261545,
0.11566084788029925,0.022529055622574096,
0.11571072319201996,-0.0015367883877359136,
0.11576059850374065,0.003622225441164126,
0.11581047381546135,0.024391250583282273,
0.11586034912718204,0.02630843585393451,
0.11591022443890274,0.03623228448079428,
0.11596009975062344,0.009316324242091445,
0.11600997506234415,0.012431304475232675,
0.11605985037406484,0.007385022728093112,
0.11610972568578554,0.019186834892658183,
0.11615960099750623,0.0016033202772314497,
0.11620947630922693,0.011519523080501607,
0.11625935162094764,0.0005996006166406574,
0.11630922693266833,-0.00179409492110621,
0.11635910224438903,0.009717388681649413,
0.11640897755610972,0.03772925428564994,
0.11645885286783042,0.010993810690004437,
0.11650872817955112,0.025173889498256965,
0.11655860349127183,0.0030577502711560175,
0.11660847880299252,0.04475039062681753,
0.11665835411471322,0.010001061024164738,
0.11670822942643391,0.021635891480506823,
0.11675810473815461,0.009822824590102607,
0.11680798004987532,-0.004463488786615014,
0.11685785536159601,0.0032975754716253218,
0.11690773067331671,0.012423512572184919,
0.1169576059850374,0.014287423281028522,
0.1170074812967581,0.028498132419965322,
0.1170573566084788,0.025997019492593955,
0.1171072319201995,0.008573560148546558,
0.1171571072319202,-0.009237513925073344,
0.1172069825436409,0.0009426020259627353,
0.1172568578553616,0.0010293955859134877,
0.11730673316708229,0.022206377695510628,
0.117356608478803,0.029686406159649254,
0.1174064837905237,-0.00028026065885401394,
0.11745635910224439,0.007249289804103722,
0.11750623441396509,-0.0066353909085535255,
0.11755610972568578,0.01675791256584501,
0.11760598503740648,0.012291176699913049,
0.11765586034912719,-0.0008772158605272898,
0.11770573566084788,0.0026142936961018456,
0.11775561097256858,0.032576976129801566,
0.11780548628428927,-0.0036633215625196565,
0.11785536159600997,0.01785256225912494,
0.11790523690773068,0.04225479589745039,
0.11795511221945137,-0.008021169987866787,
0.11800498753117207,-0.02869645452025588,
0.11805486284289277,0.021784209958908885,
0.11810473815461346,-0.011083041464213877,
0.11815461346633417,0.005790539774163186,
0.11820448877805487,0.024378584620296812,
0.11825436408977556,-0.026955043606634067,
0.11830423940149626,0.01507810411169512,
0.11835411471321695,-0.0076962084479762485,
0.11840399002493765,0.009323925722583894,
0.11845386533665836,-0.01789822828852554,
0.11850374064837906,0.01205706928850545,
0.11855361596009975,0.008981336213059207,
0.11860349127182045,-0.007548207865607258,
0.11865336658354114,-0.006471156306043714,
0.11870324189526185,-0.007310377349764665,
0.11875311720698255,-0.009010510700634453,
0.11880299251870324,-0.013470403318084516,
0.11885286783042394,0.015067314058136992,
0.11890274314214463,0.008973130622131965,
0.11895261845386533,0.0033096461145059528,
0.11900249376558604,-0.011402957381234142,
0.11905236907730674,-0.019641620861717023,
0.11910224438902743,-0.0036450267869804374,
0.11915211970074813,0.01143525417555735,
0.11920199501246882,-0.011571163053051794,
0.11925187032418953,0.0012710551112293514,
0.11930174563591023,0.006892692944661959,
0.11935162094763092,-0.027667524123285315,
0.11940149625935162,0.017637646354386576,
0.11945137157107232,0.015066523512816194,
0.11950124688279301,-0.03509830457934758,
0.11955112219451372,-0.0021619949668231064,
0.11960099750623442,-0.022857232785411637,
0.11965087281795511,-0.015058042411925272,
0.11970074812967581,0.0005729480223142869,
0.1197506234413965,-0.013755729902206814,
0.11980049875311721,0.0334113649494122,
0.11985037406483791,-0.004950098991828314,
0.1199002493765586,-0.009280924330997042,
0.1199501246882793,-0.010366356951402393,
0.12,0.004987078164639468,
0.1200498753117207,0.00944626102799128,
0.1200997506234414,-0.018864447100708927,
0.1201496259351621,-0.013455123263491912,
0.12019950124688279,-0.019128631823878795,
0.12024937655860349,0.005158741301145565,
0.12029925187032418,0.00434506768779209,
0.1203491271820449,-0.0009145221560097495,
0.12039900249376559,-0.0035770739207578233,
0.12044887780548628,-0.010706567152188848,
0.12049875311720698,0.013552044798589324,
0.12054862842892768,0.016660973716078466,
0.12059850374064839,-0.0023662092179777203,
0.12064837905236908,-0.018513028065117218,
0.12069825436408978,-0.037483739717631526,
0.12074812967581047,-0.02418616452998344,
0.12079800498753117,-0.02163249683210134,
0.12084788029925186,-4.3953789449322975e-05,
0.12089775561097257,-0.037342853613824584,
0.12094763092269327,-0.02315828556512834,
0.12099750623441397,-0.0017455911340330602,
0.12104738154613466,-0.00837392467543921,
0.12109725685785536,-0.019541411708329678,
0.12114713216957607,-0.016901552320313852,
0.12119700748129676,-0.0064777831426198335,
0.12124688279301746,-0.011597886489060929,
0.12129675810473815,-0.0260137611527241,
0.12134663341645885,-0.004257976368581438,
0.12139650872817954,-0.0074671626502094655,
0.12144638403990025,0.01806931797142916,
0.12149625935162095,0.014332840183329391,
0.12154613466334165,-0.005359144170298223,
0.12159600997506234,-0.00984395724216099,
0.12164588528678304,0.0026588578332332902,
0.12169576059850375,0.007482498018603354,
0.12174563591022444,-0.03352941718231803,
0.12179551122194514,-0.009215750435234815,
0.12184538653366583,-0.02480235285972362,
0.12189526184538653,0.006568644014777662,
0.12194513715710723,-0.036876482483874304,
0.12199501246882793,-0.048146279974887414,
0.12204488778054863,-0.024630077130040978,
0.12209476309226933,0.003038582034466171,
0.12214463840399002,-0.026927984086990583,
0.12219451371571072,-0.0031500418700979296,
0.12224438902743143,-0.0004765031479736625,
0.12229426433915212,-0.011142819616240153,
0.12234413965087282,0.012457938930645635,
0.12239401496259351,-0.008065682357197516,
0.12244389027431421,-0.01322486121374133,
0.12249376558603492,0.002233364306131103,
0.12254364089775562,-0.044184495643611925,
0.12259351620947631,-0.017310011213962948,
0.122643391521197,0.0192718683423624,
0.1226932668329177,-0.00449946652170125,
0.1227431421446384,0.0026959791150478005,
0.12279301745635911,0.014578262492768081,
0.1228428927680798,0.014396666839072581,
0.1228927680798005,-0.010532736337286037,
0.1229426433915212,-0.02553803421248433,
0.12299251870324189,-0.016644206975964852,
0.1230423940149626,-0.017835839121096677,
0.1230922693266833,-0.0030882403654664626,
0.12314214463840399,0.005594015223056378,
0.12319201995012469,0.016941770284501244,
0.12324189526184538,-0.010283460862993525,
0.12329177057356608,0.015157458264542935,
0.12334164588528679,0.008645875644644823,
0.12339152119700748,0.0022610659332947345,
0.12344139650872818,0.01209872412513117,
0.12349127182044888,-0.012916096823011435,
0.12354114713216957,-0.03088314427566627,
0.12359102244389028,-0.0038735580230202663,
0.12364089775561098,-0.0025814011666037686,
0.12369077306733167,0.01789718236727288,
0.12374064837905237,-0.0057552729901616095,
0.12379052369077306,-0.014382480048262985,
0.12384039900249376,-0.0033300761825959466,
0.12389027431421447,-0.0007385631199169308,
0.12394014962593516,-0.02160404136048549,
0.12399002493765586,-0.0010423989894675634,
0.12403990024937656,-0.023368707506352133,
0.12408977556109725,0.006094058864302011,
0.12413965087281796,-0.015999403692999993,
0.12418952618453866,-0.010051904657776849,
0.12423940149625935,-0.011915790195767884,
0.12428927680798005,-0.0027991912511596767,
0.12433915211970074,-0.002155640081070925,
0.12438902743142144,-0.0047683478412744815,
0.12443890274314215,0.001155066383613245,
0.12448877805486284,0.014587355438433751,
0.12453865336658354,-0.003599515142918462,
0.12458852867830424,0.013474033682586059,
0.12463840399002493,-0.007540392577924935,
0.12468827930174564,-0.030876367280688474,
0.12473815461346634,0.009975164060109619,
0.12478802992518703,-0.006906867892292075,
0.12483790523690773,-0.005776179956445462,
0.12488778054862842,-0.000333757485384935,
0.12493765586034913,-0.00026859241068868077,
0.12498753117206983,0.006010304460536265,
0.12503740648379053,0.004889217743812134,
0.12508728179551123,6.22571919654375e-05,
0.12513715710723192,-0.0037350216378138736,
0.12518703241895263,-0.004646896759080845,
0.1252369077306733,-0.004205022472297486,
0.12528678304239402,0.01619527746285409,
0.1253366583541147,0.00020368119693593852,
0.1253865336658354,-0.016470077230958842,
0.12543640897755612,-0.01666260421611613,
0.1254862842892768,0.011577965327645282,
0.1255361596009975,-0.027389285706400965,
0.1255860349127182,-0.016402385135495606,
0.1256359102244389,0.005291509435656967,
0.1256857855361596,0.014869955079824531,
0.1257356608478803,-8.899363567762848e-05,
0.125785536159601,-0.01711232987068593,
0.12583541147132168,0.0048703048307780165,
0.1258852867830424,0.007440614952905236,
0.1259351620947631,0.042141848000672305,
0.12598503740648379,-0.0015464294961095157,
0.1260349127182045,0.003620683368639884,
0.12608478802992518,0.010732666311523871,
0.1261346633416459,0.009821075408149409,
0.1261845386533666,0.011741824303355667,
0.12623441396508728,0.008318275444167035,
0.126284289276808,-0.02026770772991123,
0.12633416458852867,0.0239611396947626,
0.12638403990024938,-0.014181279985254492,
0.1264339152119701,0.012123677826035687,
0.12648379052369077,0.02056420399554071,
0.12653366583541148,0.015359318150357654,
0.12658354114713216,0.03971233606377672,
0.12663341645885287,0.03224146548829771,
0.12668329177057355,0.00015698969971045858,
0.12673316708229426,0.021600202429397683,
0.12678304239401497,0.0032252852665633153,
0.12683291770573565,-0.020146108833426428,
0.12688279301745636,0.016788568218660944,
0.12693266832917705,0.036801583275004573,
0.12698254364089775,0.03454190280860911,
0.12703241895261846,0.023632168027031955,
0.12708229426433915,0.023180537631050595,
0.12713216957605986,-0.0011253699696332654,
0.12718204488778054,0.017106592049385534,
0.12723192019950125,-0.006844533951412161,
0.12728179551122196,-0.004647308813073105,
0.12733167082294264,0.006557743587682235,
0.12738154613466335,-8.674075649519643e-05,
0.12743142144638403,0.0018192420636686454,
0.12748129675810474,0.03822472658673715,
0.12753117206982545,0.023357591104271536,
0.12758104738154613,0.03083983416864567,
0.12763092269326684,3.2034120925441764e-05,
0.12768079800498752,0.013408613162950922,
0.12773067331670823,0.03991523961289035,
0.1277805486284289,0.03786763657368981,
0.12783042394014962,0.010858334357727614,
0.12788029925187033,0.0006845420359650658,
0.12793017456359101,0.019336148018806516,
0.12798004987531172,-0.0006337023482714428,
0.1280299251870324,0.03850065218536081,
0.12807980049875312,0.029743431024749863,
0.12812967581047383,0.008817137461854271,
0.1281795511221945,0.043831883706632865,
0.12822942643391522,0.018619483189542384,
0.1282793017456359,-0.010328947917732506,
0.1283291770573566,0.012545593426891485,
0.12837905236907732,-0.004873280158209387,
0.128428927680798,0.020824424087746173,
0.1284788029925187,0.011399206050338607,
0.1285286783042394,0.007606036412650816,
0.1285785536159601,0.02264540769712399,
0.1286284289276808,0.026353046976281404,
0.1286783042394015,0.022601938591725344,
0.1287281795511222,0.024756577024411343,
0.12877805486284288,0.03302176474164137,
0.1288279301745636,0.011321459354344574,
0.1288778054862843,0.03237833147683372,
0.12892768079800498,0.01388709018456255,
0.1289775561097257,0.012556360498189003,
0.12902743142144638,0.024084700740765977,
0.12907730673316709,-0.009208431125375002,
0.12912718204488777,0.027279730666133328,
0.12917705735660848,0.017076968118745647,
0.1292269326683292,0.020069457288228395,
0.12927680798004987,0.01527222433278299,
0.12932668329177058,0.029238947720533093,
0.12937655860349126,0.011964162191966526,
0.12942643391521197,0.008114133849927067,
0.12947630922693268,0.019618341370746487,
0.12952618453865336,0.014887334598623566,
0.12957605985037407,0.019815509554571245,
0.12962593516209475,0.011750056796709795,
0.12967581047381546,0.03447083380238637,
0.12972568578553617,0.027476698656218185,
0.12977556109725685,0.012716798584286423,
0.12982543640897756,0.0009171464855363513,
0.12987531172069824,0.013667873411058188,
0.12992518703241895,0.04665598531891258,
0.12997506234413966,0.003400908543645543,
0.13002493765586035,0.04127134878993393,
0.13007481296758105,0.034084043173949405,
0.13012468827930174,0.024609190487452796,
0.13017456359102245,0.021175235780634447,
0.13022443890274316,0.020513373980053862,
0.13027431421446384,0.012652405676106492,
0.13032418952618455,0.01500383811558798,
0.13037406483790523,0.038108255409829137,
0.13042394014962594,0.026076380001898374,
0.13047381546134662,0.02186606615185949,
0.13052369077306733,0.01855873688473468,
0.13057356608478804,0.03361417450237738,
0.13062344139650872,-0.0068661179398897924,
0.13067331670822943,0.02014394866023984,
0.1307231920199501,0.04389348760344279,
0.13077306733167082,0.0028475471194234388,
0.13082294264339153,0.016126484465517395,
0.13087281795511221,0.021186164484940515,
0.13092269326683292,0.043076146134053334,
0.1309725685785536,0.03305929015068775,
0.13102244389027431,0.054176220818793766,
0.13107231920199502,0.02926495179845928,
0.1311221945137157,0.0271483087143716,
0.13117206982543642,0.05055305298190359,
0.1312219451371571,0.029694551942543473,
0.1312718204488778,0.0033012369448111555,
0.13132169576059852,0.028547662522118992,
0.1313715710723192,0.024011468702751976,
0.1314214463840399,0.04119210100503562,
0.1314713216957606,0.038314717818323275,
0.1315211970074813,0.03861934422465983,
0.13157107231920198,0.03997486691949895,
0.1316209476309227,0.03097730460679368,
0.1316708229426434,0.029922305403838424,
0.13172069825436408,0.0038627753863552106,
0.1317705735660848,0.041214619922856265,
0.13182044887780547,0.03993761912562845,
0.13187032418952618,0.003764948164513622,
0.1319201995012469,0.010958807897236751,
0.13197007481296757,0.03789019001740648,
0.13201995012468828,0.02715970265961238,
0.13206982543640897,0.025218704522817395,
0.13211970074812968,0.037471800315062684,
0.13216957605985039,0.05854543411108763,
0.13221945137157107,0.027915308514704328,
0.13226932668329178,0.03062832728174416,
0.13231920199501246,0.0365940173091137,
0.13236907730673317,0.023768764541983525,
0.13241895261845388,0.05527609415204929,
0.13246882793017456,0.03353637261464457,
0.13251870324189527,0.03465604192918163,
0.13256857855361595,0.017073921247944882,
0.13261845386533666,0.019178155426559162,
0.13266832917705737,0.024126251398128486,
0.13271820448877805,0.03103522964234062,
0.13276807980049876,0.03534037082004583,
0.13281795511221944,0.037590066251167,
0.13286783042394015,0.024920758372514527,
0.13291770573566083,0.03646466299632406,
0.13296758104738154,0.004305911036426562,
0.13301745635910225,0.045230057573172264,
0.13306733167082294,0.04345876427432205,
0.13311720698254365,0.01800195986940322,
0.13316708229426433,0.047881484954024174,
0.13321695760598504,0.03431152768212223,
0.13326683291770575,0.03768873974587393,
0.13331670822942643,0.031271070313311854,
0.13336658354114714,0.0034253200924458937,
0.13341645885286782,-0.006707849334292554,
0.13346633416458853,0.024120843271298813,
0.13351620947630924,-0.013925476303594773,
0.13356608478802992,0.0483548644710971,
0.13361596009975063,0.0019053877264068736,
0.1336658354114713,0.042890885460667445,
0.13371571072319202,0.006184263367162837,
0.13376558603491273,0.01985390559906872,
0.1338154613466334,0.055484184656260774,
0.13386533665835412,0.004367149735704359,
0.1339152119700748,0.019003513082143552,
0.13396508728179551,0.00023273516101683656,
0.1340149625935162,0.028118772508304846,
0.1340648379052369,0.037174998707649794,
0.13411471321695762,0.027918467090844383,
0.1341645885286783,0.025497170159136318,
0.134214463840399,-0.004093416151132553,
0.1342643391521197,0.0037306355984822806,
0.1343142144638404,0.03792134005422861,
0.1343640897755611,0.015193805599529436,
0.1344139650872818,0.009875888164528003,
0.1344638403990025,0.03896420109257007,
0.13451371571072318,-0.03149914010358404,
0.1345635910224439,0.058139361252907265,
0.1346134663341646,0.03146985275941816,
0.13466334164588528,0.044225275066838585,
0.134713216957606,0.028369330074990713,
0.13476309226932667,0.010033932825354967,
0.13481296758104738,-0.012022023148932914,
0.1348628428927681,0.01829105352661888,
0.13491271820448877,0.011569043139478588,
0.13496259351620948,0.0057800870294527976,
0.13501246882793017,0.022272920482366527,
0.13506234413965088,0.017427348580563003,
0.13511221945137158,0.026301483395717883,
0.13516209476309227,0.028036341238195792,
0.13521197007481298,3.9591754662036266e-05,
0.13526184538653366,0.012815533403312191,
0.13531172069825437,0.020692469807218283,
0.13536159600997505,0.032065600307957694,
0.13541147132169576,0.011071186891684561,
0.13546134663341647,0.017341521094634528,
0.13551122194513715,0.02679472172385202,
0.13556109725685786,0.01048298769859583,
0.13561097256857854,0.017252407516604677,
0.13566084788029925,0.003748672703876183,
0.13571072319201996,0.03447736918348861,
0.13576059850374064,0.014531866170383451,
0.13581047381546135,0.00545430083951386,
0.13586034912718203,-0.0018317187456180495,
0.13591022443890274,0.01248488354566957,
0.13596009975062345,0.032865589966608766,
0.13600997506234414,0.013931781712616232,
0.13605985037406484,0.04667310210965893,
0.13610972568578553,0.004204285090818202,
0.13615960099750624,0.034107753233427275,
0.13620947630922695,0.017365408419880372,
0.13625935162094763,-0.0025989560756946514,
0.13630922693266834,-0.014233639131623635,
0.13635910224438902,0.019691791193238675,
0.13640897755610973,0.021228405237485565,
0.1364588528678304,-0.006391364302926793,
0.13650872817955112,0.04759713639224685,
0.13655860349127183,0.013579162473803788,
0.1366084788029925,0.026343765116761064,
0.13665835411471322,0.027245921146148745,
0.1367082294264339,0.0014444146599628255,
0.1367581047381546,-0.0007246402038611887,
0.13680798004987532,0.011328310783909647,
0.136857855361596,0.002383692782043626,
0.1369077306733167,-0.003764001846755448,
0.1369576059850374,0.01292551215496489,
0.1370074812967581,0.022684484699926635,
0.13705735660847881,0.03567210960519007,
0.1371072319201995,0.01613022721927718,
0.1371571072319202,0.01353821867323127,
0.1372069825436409,-0.0076828559157250224,
0.1372568578553616,-0.0003347012195945437,
0.1373067331670823,0.022595876269143444,
0.137356608478803,-0.013859752595145491,
0.1374064837905237,0.020214395374081918,
0.13745635910224438,0.00413099270751266,
0.1375062344139651,0.00909268805678707,
0.1375561097256858,-0.008044136756616204,
0.13760598503740648,0.02136284523260092,
0.1376558603491272,-0.014988651067747806,
0.13770573566084787,0.03188856220098856,
0.13775561097256858,0.0065680490582087254,
0.13780548628428926,0.023573323321580672,
0.13785536159600997,0.017745560949115297,
0.13790523690773068,0.00899453603888115,
0.13795511221945136,0.01219590496906557,
0.13800498753117207,-0.008337526984284381,
0.13805486284289276,0.021050841395741,
0.13810473815461347,0.02765628614711617,
0.13815461346633418,0.03173682751872156,
0.13820448877805486,0.01158787111160717,
0.13825436408977557,0.0019987275607966128,
0.13830423940149625,-0.0007727851667508603,
0.13835411471321696,0.02508248192232789,
0.13840399002493767,0.001170811086811999,
0.13845386533665835,0.005705428521186568,
0.13850374064837906,-0.006676894660347396,
0.13855361596009974,0.011246130098016989,
0.13860349127182045,-0.006716308089048363,
0.13865336658354116,0.017294978353844977,
0.13870324189526184,0.004842235751706639,
0.13875311720698255,-0.011426192056897731,
0.13880299251870323,-0.0334440015028895,
0.13885286783042394,0.016775219644470568,
0.13890274314214462,-0.01443836558920573,
0.13895261845386533,-0.0048720845676519485,
0.13900249376558604,0.008777737773436598,
0.13905236907730673,-0.03382600746249173,
0.13910224438902744,0.018677284136753385,
0.13915211970074812,-0.006510025058515629,
0.13920199501246883,-0.019051011282991605,
0.13925187032418954,-0.01961437564196635,
0.13930174563591022,-0.010891822181534224,
0.13935162094763093,-0.0239906943107148,
0.1394014962593516,0.0010222237029105814,
0.13945137157107232,-0.009244606321006623,
0.13950124688279303,-0.012387303159155842,
0.1395511221945137,0.004317793853864851,
0.13960099750623442,0.007864289365782965,
0.1396508728179551,0.013497582056904111,
0.1397007481296758,-0.002988894811195784,
0.13975062344139652,-0.01845585422325964,
0.1398004987531172,0.0074184880910277105,
0.1398503740648379,0.015221034710470267,
0.1399002493765586,-0.02642291036175229,
0.1399501246882793,0.01560076642575345,
0.14,-0.009886808594407234,
0.1400498753117207,-0.013001936550856711,
0.1400997506234414,-0.01685381410430425,
0.1401496259351621,0.019980161483462953,
0.1401995012468828,-0.012077492355255966,
0.14024937655860348,-0.001785356849657035,
0.1402992518703242,-0.014717011680708015,
0.1403491271820449,-0.015692563546270594,
0.14039900249376558,-0.041601323841869625,
0.1404488778054863,-0.01774777127697584,
0.14049875311720697,0.009294850264346531,
0.14054862842892768,-0.025501627512015936,
0.1405985037406484,0.010266158317930109,
0.14064837905236907,-0.012151998705653833,
0.14069825436408978,-0.02742958676076182,
0.14074812967581046,-0.027958435412488113,
0.14079800498753117,-0.027250856957712052,
0.14084788029925188,-0.004937382632115757,
0.14089775561097256,-0.005008203795536034,
0.14094763092269327,0.011118762694322019,
0.14099750623441396,-0.03054579585123968,
0.14104738154613466,-0.009389654151831557,
0.14109725685785537,-0.022183090534332178,
0.14114713216957606,-0.008503006358274171,
0.14119700748129677,-0.037221799806792924,
0.14124688279301745,0.006650557149159275,
