time,amplitude,label
0.0,-0.02049880137033375,
4.987531172069826e-05,-0.002967789088159102,
9.975062344139652e-05,0.013369451085868813,
0.00014962593516209475,-0.012253137639501463,
0.00019950124688279303,-0.03469646574293879,
0.00024937655860349125,-0.006854925580071837,
0.0002992518703241895,-0.016655986327632905,
0.00034912718204488776,-0.00745113761159715,
0.00039900249376558606,-0.027886492465710195,
0.0004488778054862843,-0.0024766282268050156,
0.0004987531172069825,-0.024468897669893644,
0.0005486284289276808,0.012984005895530545,
0.000598503740648379,0.005866008677738404,
0.0006483790523690773,-0.002540960492590675,
0.0006982543640897755,-0.028581177033088136,
0.0007481296758104738,-0.04420856838648834,
0.0007980049875311721,0.00024064435559010937,
0.0008478802992518703,-0.029515160913600173,
0.0008977556109725686,-0.027955077876491652,
0.0009476309226932668,-0.020895853599602252,
0.000997506234413965,-0.005290754360523323,
0.0010473815461346633,-0.048539798771379455,
0.0010972568578553616,-0.023299305109609758,
0.00114713216957606,-0.0384671180301588,
0.001197007481296758,-0.013225632523145452,
0.0012468827930174563,-0.007701975368716245,
0.0012967581047381546,-0.019726406890609283,
0.001346633416458853,0.013451510361168479,
0.001396508728179551,-0.016126240184615167,
0.0014463840399002493,-0.033942369449666,
0.0014962593516209476,-0.0012294589576214328,
0.001546134663341646,-0.009827327827105353,
0.0015960099750623442,-0.0003306056990226916,
0.0016458852867830423,-0.005731547725301339,
0.0016957605985037406,-0.021537795314508792,
0.001745635910224439,-0.014317574220236223,
0.0017955112219451373,-0.0385182000039525,
0.0018453865336658353,-0.01985381233288408,
0.0018952618453865336,-0.013341924894528331,
0.001945137157107232,-0.019708397334833025,
0.00199501246882793,-0.005734997612761358,
0.0020448877805486283,-0.023713414333617205,
0.0020947630922693266,-0.022730072664413757,
0.002144638403990025,-0.027222458689642917,
0.0021945137157107233,-0.043633791551012116,
0.0022443890274314216,-0.008615897374239153,
0.00229426433915212,0.001077388218385697,
0.0023441396508728177,0.003811533725704079,
0.002394014962593516,-0.009901859327765442,
0.0024438902743142144,-0.010215240729907506,
0.0024937655860349127,-0.019843268314686947,
0.002543640897755611,0.006964137801461951,
0.0025935162094763093,-0.010344906632851592,
0.0026433915211970076,-0.049515778860729165,
0.002693266832917706,-0.01883080920855173,
0.002743142144638404,-0.015898720432088276,
0.002793017456359102,-0.020993035442059344,
0.0028428927680798004,-0.013531518931488597,
0.0028927680798004987,-0.008171757880706948,
0.002942643391521197,-0.020695990361712067,
0.0029925187032418953,-0.02660979579857594,
0.0030423940149625936,-0.01202117043555407,
0.003092269326683292,-0.03333095086154113,
0.00314214463840399,-0.01276112062179037,
0.0031920199501246885,-0.028662757453362858,
0.0032418952618453864,-0.018988267075919062,
0.0032917705735660847,-0.012853785087270997,
0.003341645885286783,-0.018103707698749992,
0.0033915211970074813,-0.014880715242301609,
0.0034413965087281796,-0.034217137559778524,
0.003491271820448878,-0.011047390862773157,
0.003541147132169576,-0.036051049659948264,
0.0035910224438902745,-0.02732616858138713,
0.0036408977556109724,-0.006935882199134125,
0.0036907730673316707,-0.00047169441702126294,
0.003740648379052369,-0.02819258991941575,
0.0037905236907730673,0.020382159268731544,
0.0038403990024937656,-0.022612775018944438,
0.003890274314214464,-0.009066446912863029,
0.003940149625935162,-0.034679470934418324,
0.00399002493765586,-0.012434220934251105,
0.004039900249376558,-0.003469317455070099,
0.004089775561097257,-0.017222222537633364,
0.004139650872817955,-0.014021790425961307,
0.004189526184538653,-0.048349510799421666,
0.004239401496259352,-0.02857872030251698,
0.00428927680798005,-0.010939357964242424,
0.004339152119700748,-0.04827981097121138,
0.0043890274314214465,-0.02347549214271213,
0.004438902743142145,-0.03657452541559697,
0.004488778054862843,-0.03806350015841288,
0.004538653366583541,-0.01172504154057081,
0.00458852867830424,-0.018136506090446945,
0.004638403990024938,-0.012220543773093777,
0.0046882793017456355,-0.011871053277166239,
0.004738154613466334,0.008561411352810772,
0.004788029925187032,-0.021566288676231133,
0.00483790523690773,-0.022573733813197654,
0.004887780548628429,-0.04460959161644177,
0.004937655860349127,-0.016792434939744128,
0.004987531172069825,-0.01243238527132405,
0.005037406483790524,0.00947726951309898,
0.005087281795511222,-0.00524548784827149,
0.00513715710723192,-0.009602586154870914,
0.0051870324189526185,-0.04230950057935754,
0.005236907730673317,-0.018415007301795048,
0.005286783042394015,-0.015939125242538196,
0.0053366583541147134,-0.024888981188135186,
0.005386533665835412,-0.011071540837179575,
0.00543640897755611,-0.018358208655638787,
0.005486284289276808,0.00023047888581048323,
0.005536159600997507,-0.021966849180822534,
0.005586034912718204,-0.012025783958510753,
0.005635910224438902,-0.034709963931468996,
0.005685785536159601,-0.01882652893383825,
0.005735660847880299,-0.029559922896403096,
0.005785536159600997,-0.01305111728560302,
0.005835411471321696,-0.028203029679745775,
0.005885286783042394,-0.011644481083537717,
0.005935162094763092,-0.03529200734665917,
0.0059850374064837905,0.006256574236725921,
0.006034912718204489,0.015036268580899109,
0.006084788029925187,-0.01859352490116068,
0.0061346633416458855,-0.03972918137186608,
0.006184538653366584,-0.008253582361048414,
0.006234413965087282,-0.012730184591838455,
0.00628428927680798,-0.012089193060149992,
0.006334164588528679,-0.03149527965800622,
0.006384039900249377,-0.02111904616368976,
0.006433915211970074,-0.015988459841075928,
0.006483790523690773,-0.014812512589021986,
0.006533665835411471,-0.032402088604266445,
0.006583541147132169,0.004733358324380458,
0.006633416458852868,-0.018325157650893008,
0.006683291770573566,-0.029831334735326703,
0.006733167082294264,-0.015033415401085059,
0.0067830423940149626,0.019178884629884214,
0.006832917705735661,-0.012767357808157253,
0.006882793017456359,-0.031926406253166284,
0.0069326683291770575,-0.04431981202134269,
0.006982543640897756,-0.02504875213037721,
0.007032418952618454,-0.002206880488000742,
0.007082294264339152,-0.011655712920378824,
0.007132169576059851,-0.04064784210352788,
0.007182044887780549,0.016148239373862554,
0.007231920199501247,-0.013629141999666406,
0.007281795511221945,0.01113751809849104,
0.007331670822942643,0.008299059324972534,
0.007381546134663341,-0.0009347395645300308,
0.00743142144638404,0.009909151048316382,
0.007481296758104738,-0.0109908320103786,
0.007531172069825436,-0.013822734621108704,
0.007581047381546135,-0.015945826130779238,
0.007630922693266833,-0.038530962329397435,
0.007680798004987531,0.00402367777955465,
0.0077306733167082295,0.0027793043398269494,
0.007780548628428928,-0.025133319723083317,
0.007830423940149626,0.002410754598136323,
0.007880299251870324,-0.02723444537336546,
0.007930174563591023,-0.01738565000863915,
0.00798004987531172,-0.012376791588917045,
0.00802992518703242,-0.01802052108062701,
0.008079800498753117,-0.004537996896716421,
0.008129675810473816,-0.024290502273687335,
0.008179551122194513,-0.032409148263776576,
0.008229426433915213,-0.0033098650003994144,
0.00827930174563591,-0.01383619267090902,
0.00832917705735661,0.007403458945766554,
0.008379052369077307,-0.015831627964339793,
0.008428927680798006,0.0004027215861515882,
0.008478802992518703,0.006675715010188351,
0.0085286783042394,-0.01645822910912098,
0.0085785536159601,-0.027307480337745473,
0.008628428927680797,0.00569677635365201,
0.008678304239401496,0.019679227646409916,
0.008728179551122194,-0.0228790205066544,
0.008778054862842893,-0.007742617144003323,
0.00882793017456359,-0.014989687327448445,
0.00887780548628429,-0.03360141560313345,
0.008927680798004987,-0.004083501080607128,
0.008977556109725686,0.005091384588024791,
0.009027431421446384,-0.005497382087748626,
0.009077306733167083,0.0046018665769037475,
0.00912718204488778,-0.004523495222019177,
0.00917705735660848,-0.0010826372598163965,
0.009226932668329177,0.025353205550606234,
0.009276807980049876,-0.007884128273732537,
0.009326683291770574,0.03133567510210993,
0.009376558603491271,0.009215447823434359,
0.00942643391521197,-0.014266205992789447,
0.009476309226932668,0.003441025270084502,
0.009526184538653367,-0.0011995003211705269,
0.009576059850374064,0.025140320120547177,
0.009625935162094763,-0.019575872318947488,
0.00967581047381546,-0.0036008214356417537,
0.00972568578553616,-0.01611101734128386,
0.009775561097256857,0.0363672851815767,
0.009825436408977557,0.031196563082584595,
0.009875311720698254,-0.007009843960759314,
0.009925187032418953,-0.020706533950768234,
0.00997506234413965,0.002197831760408439,
0.01002493765586035,0.01546906919773259,
0.010074812967581047,-0.00571364947358332,
0.010124688279301746,-0.00955882578703636,
0.010174563591022444,-0.008670552349403296,
0.010224438902743141,-0.024837378136081,
0.01027431421446384,0.03761343949303324,
0.010324189526184538,-0.01787171186206471,
0.010374064837905237,-0.01628131639088664,
0.010423940149625935,0.004519907651665584,
0.010473815461346634,0.002292484132330583,
0.010523690773067331,-0.007452872270432519,
0.01057356608478803,0.013501938736013,
0.010623441396508728,-0.01702783765364663,
0.010673316708229427,0.0012103118778453662,
0.010723192019950124,7.542520266289043e-05,
0.010773067331670824,0.001453929627279766,
0.010822942643391521,-0.00585541813645489,
0.01087281795511222,0.031108129636070285,
0.010922693266832918,0.008205191971590144,
0.010972568578553617,-0.005426062497583817,
0.011022443890274314,0.003200018149882424,
0.011072319201995013,0.022053719007251126,
0.01112219451371571,0.00013056347543441774,
0.011172069825436408,0.013091037786158463,
0.011221945137157107,0.021344980475284138,
0.011271820448877805,0.00035855537690061834,
0.011321695760598504,0.02124370658864665,
0.011371571072319201,-0.013363939089179917,
0.0114214463840399,0.016267736451561814,
0.011471321695760598,0.01100492875174176,
0.011521197007481297,0.009154813668698386,
0.011571072319201995,0.0026307580324800295,
0.011620947630922694,0.025300351708999885,
0.011670822942643391,-0.008110859589733305,
0.01172069825436409,0.014298383378285205,
0.011770573566084788,0.0373617232438427,
0.011820448877805487,0.012660167252382788,
0.011870324189526184,0.009185331022322978,
0.011920199501246884,-0.003302042387379158,
0.011970074812967581,0.024895002389284434,
0.012019950124688279,0.002327109665672131,
0.012069825436408978,0.015408613923211413,
0.012119700748129675,0.008926685029335982,
0.012169576059850374,0.01082431226974314,
0.012219451371571072,0.012281225032704197,
0.012269326683291771,0.007531634547801378,
0.012319201995012468,0.005205772045199359,
0.012369077306733168,0.0038685653158123216,
0.012418952618453865,0.032575447893229914,
0.012468827930174564,0.04693753775776284,
0.012518703241895262,0.02233615711415885,
0.01256857855361596,0.030259070415222133,
0.012618453865336658,-0.0004658465768703525,
0.012668329177057357,0.004579466449950036,
0.012718204488778055,0.010226903665413825,
0.012768079800498754,0.015000189117681056,
0.012817955112219451,0.028137783833347516,
0.012867830423940149,-0.004379607350735153,
0.012917705735660848,0.029122263138475026,
0.012967581047381545,0.052296791518325926,
0.013017456359102245,0.040204058619448486,
0.013067331670822942,0.019903458183093206,
0.013117206982543641,0.0011855661152264975,
0.013167082294264339,0.0047000741967144,
0.013216957605985038,0.03159683215572338,
0.013266832917705735,-0.0010436536180478163,
0.013316708229426434,0.020016945335489398,
0.013366583541147132,0.024795417617097647,
0.013416458852867831,0.017595181807959527,
0.013466334164588529,0.009554682559954175,
0.013516209476309228,0.03788858309663505,
0.013566084788029925,0.008596621116284548,
0.013615960099750624,0.014193798983157788,
0.013665835411471322,0.05430583066701452,
0.01371571072319202,0.03439858834744804,
0.013765586034912718,0.02593931800460429,
0.013815461346633416,0.019777493664331437,
0.013865336658354115,0.011171913080429658,
0.013915211970074812,0.022346278714054642,
0.013965087281795512,0.020801304955792084,
0.014014962593516209,0.03142386050139491,
0.014064837905236908,-0.005567637886201491,
0.014114713216957606,0.0057322350527365205,
0.014164588528678305,0.055135492169136394,
0.014214463840399002,0.023055672109924943,
0.014264339152119701,0.03785368304162218,
0.014314214463840399,0.024222847177551313,
0.014364089775561098,0.023170471131315092,
0.014413965087281795,0.042797496305082075,
0.014463840399002495,0.015425450007045937,
0.014513715710723192,0.05076923373122371,
0.01456359102244389,0.024605841424821348,
0.014613466334164589,0.02876975204837559,
0.014663341645885286,0.014016226135852728,
0.014713216957605985,0.049474364034926166,
0.014763092269326683,0.03583144103022493,
0.014812967581047382,0.032846556944756626,
0.01486284289276808,0.01716488255642697,
0.014912718204488778,0.02098169501681864,
0.014962593516209476,0.027288763665837004,
0.015012468827930175,0.01505537782705856,
0.015062344139650873,-0.001415993813912688,
0.015112219451371572,0.020323090696163244,
0.01516209476309227,0.030750053059438516,
0.015211970074812968,0.038033532511524804,
0.015261845386533666,0.012337146381185736,
0.015311720698254365,0.026092941193285826,
0.015361596009975062,0.021184658226876697,
0.01541147132169576,0.019672860968842205,
0.015461346633416459,0.016139856528952393,
0.015511221945137156,0.00762826109418278,
0.015561097256857856,0.020159533698562552,
0.015610972568578553,-0.009216001017016133,
0.015660847880299252,0.03981576435784456,
0.01571072319201995,0.00618819002817796,
0.015760598503740647,-0.0034444826315654688,
0.015810473815461346,0.021699515601774164,
0.015860349127182045,0.020870079384738074,
0.015910224438902745,-0.009979580820416417,
0.01596009975062344,0.014911645462375585,
0.01600997506234414,0.04057218834396552,
0.01605985037406484,0.03407643243264828,
0.016109725685785538,0.020700013734328476,
0.016159600997506234,0.023710658605287992,
0.016209476309226933,0.0473977385597415,
0.016259351620947632,0.029304869956425037,
0.016309226932668328,0.01071155812729814,
0.016359102244389027,0.020485808038508697,
0.016408977556109726,0.03878601430820358,
0.016458852867830425,0.008644705070766857,
0.01650872817955112,0.006251955802112961,
0.01655860349127182,0.0047972272812996965,
0.01660847880299252,0.004949299800678165,
0.01665835411471322,0.009330345635988104,
0.016708229426433914,0.010813659595740939,
0.016758104738154613,0.03397623196292979,
0.016807980049875312,-0.008685076602826107,
0.01685785536159601,0.0073012101457630586,
0.016907730673316707,0.0028990949672864502,
0.016957605985037406,0.0169770820390326,
0.017007481296758106,0.011372110045022924,
0.0170573566084788,0.02374327770084488,
0.0171072319201995,-0.006708024473067915,
0.0171571072319202,0.02540943810979757,
0.0172069825436409,0.0006068717185935373,
0.017256857855361595,0.002398202077584512,
0.017306733167082294,-0.0035139500045694595,
0.017356608478802993,0.004649732662173504,
0.017406483790523692,0.031144316697922572,
0.017456359102244388,0.01569931982797121,
0.017506234413965087,-0.008594483950120524,
0.017556109725685786,0.030399325907665434,
0.017605985037406485,-0.0035583915851640554,
0.01765586034912718,-0.008160696900599035,
0.01770573566084788,0.014949560489517283,
0.01775561097256858,0.017860534669492802,
0.01780548628428928,0.01006486371229593,
0.017855361596009974,-0.003086694699020419,
0.017905236907730673,-0.012091155833435887,
0.017955112219451373,0.01063131707638513,
0.018004987531172068,-0.0008530127830879957,
0.018054862842892767,0.013839324568633637,
0.018104738154613467,0.033018200405083895,
0.018154613466334166,0.0007389968946176044,
0.01820448877805486,0.01066509999622287,
0.01825436408977556,-0.01114980518715332,
0.01830423940149626,-0.001209470515594403,
0.01835411471321696,0.026119585412343285,
0.018403990024937655,-0.0013153408326737163,
0.018453865336658354,0.01734754369575781,
0.018503740648379053,-0.00664373478243283,
0.018553615960099752,0.0009800982500514808,
0.018603491271820448,-0.033398103442165254,
0.018653366583541147,0.009519349478431551,
0.018703241895261846,0.011491504123093922,
0.018753117206982542,0.030104875253615583,
0.01880299251870324,0.008704090740576896,
0.01885286783042394,0.00022368946141741383,
0.01890274314214464,0.01060369525613096,
0.018952618453865335,0.010863351400195655,
0.019002493765586034,0.007582873000316185,
0.019052369077306733,0.019149240561470656,
0.019102244389027433,-0.007385681487390847,
0.01915211970074813,-0.011719963627736578,
0.019201995012468828,-0.017474382300351865,
0.019251870324189527,0.016044701588988873,
0.019301745635910226,-0.03040043097248691,
0.01935162094763092,0.025577598724030325,
0.01940149625935162,0.01409438731719478,
0.01945137157107232,-0.01854722491137337,
0.01950124688279302,0.008388028392334887,
0.019551122194513715,-0.004781943686500681,
0.019600997506234414,-0.010343893732324982,
0.019650872817955113,-0.00020597246958994344,
0.01970074812967581,-0.03325063270656309,
0.019750623441396508,-0.005385874574188109,
0.019800498753117207,-0.00875083797282325,
0.019850374064837906,-0.016932711609711843,
0.019900249376558602,0.025840268837670856,
0.0199501246882793,0.0037511316924139166,
0.02,0.014058793654418617,
0.0200498753117207,-0.0005885445166629944,
0.020099750623441395,-0.013681229340739827,
0.020149625935162094,0.0005868839043248449,
0.020199501246882794,-0.02041237958100543,
0.020249376558603493,-0.028411992256223675,
0.02029925187032419,-0.009689730180692007,
0.020349127182044888,-0.0048373761398997905,
0.020399002493765587,-0.018310502011562636,
0.020448877805486283,-0.01439386721847341,
0.02049875311720698,-0.004363369273759179,
0.02054862842892768,-0.002231911295081137,
0.02059850374064838,-0.004337636232369487,
0.020648379052369076,-0.01066220284810021,
0.020698254364089775,0.005542349075263468,
0.020748129675810474,0.008819783075043382,
0.020798004987531173,-0.007775057074256041,
0.02084788029925187,0.007081739694076131,
0.020897755610972568,0.021050379606790716,
0.020947630922693267,0.009269733024892578,
0.020997506234413967,0.0014798165888372117,
0.021047381546134662,-0.029128844608774653,
0.02109725685785536,-0.023746782609276276,
0.02114713216957606,-0.012264136630711454,
0.02119700748129676,-0.0227213019136369,
0.021246882793017455,0.007085781435286605,
0.021296758104738155,0.0014975353712845633,
0.021346633416458854,0.01497352971229475,
0.02139650872817955,-0.03307613406732933,
0.02144638403990025,-0.022314501789343442,
0.021496259351620948,-0.018684009099172783,
0.021546134663341647,-0.02731672449053948,
0.021596009975062343,0.0035706928099908837,
0.021645885286783042,-0.01544619481066924,
0.02169576059850374,4.659480010362968e-05,
0.02174563591022444,-0.04613786173233029,
0.021795511221945136,0.009955230162116432,
0.021845386533665835,-0.03138799096442435,
0.021895261845386534,0.005859052057616271,
0.021945137157107233,-0.005526389355111188,
0.02199501246882793,-0.015934666731394837,
0.02204488778054863,0.0017540704039369515,
0.022094763092269327,-0.010610329224845255,
0.022144638403990027,-0.020339901369736135,
0.022194513715710722,-0.0233067097105307,
0.02224438902743142,-0.022119790967461306,
0.02229426433915212,-0.023264581418134242,
0.022344139650872816,-0.02874925685325155,
0.022394014962593516,-0.022349788595421013,
0.022443890274314215,7.2928086284340665e-06,
0.022493765586034914,-0.049188959894305925,
0.02254364089775561,-0.008100779368869155,
0.02259351620947631,-0.040971930602986206,
0.022643391521197008,-0.024330083099761056,
0.022693266832917707,-0.03167080207095034,
0.022743142144638403,-0.03517996767257819,
0.022793017456359102,0.001604984323695012,
0.0228428927680798,-0.017367220554351904,
0.0228927680798005,-0.0016649143674246861,
0.022942643391521196,0.0014661310777774432,
0.022992518703241895,0.005060843734093698,
0.023042394014962594,-0.0012972341654960903,
0.02309226932668329,-0.012205490048787779,
0.02314214463840399,-0.0054566658624541735,
0.02319201995012469,-0.034620135598879186,
0.023241895261845388,-0.023242247758579634,
0.023291770573566083,-0.00814840711240279,
0.023341645885286783,-0.016742676029319614,
0.02339152119700748,-0.035163641304105486,
0.02344139650872818,-0.017032202379559075,
0.023491271820448877,-0.007881840761475965,
0.023541147132169576,-0.015602362731568977,
0.023591022443890275,-0.018992727780919073,
0.023640897755610974,-0.030252684376418974,
0.02369077306733167,0.0008454260903851055,
0.02374064837905237,-0.04250238324378875,
0.023790523690773068,-0.012044818409663462,
0.023840399002493767,-0.012324292449305913,
0.023890274314214463,0.01232602627538737,
0.023940149625935162,-0.025664619120713925,
0.02399002493765586,0.0017450317988899622,
0.024039900249376557,-0.015031390404493092,
0.024089775561097256,-0.0036603422291137024,
0.024139650872817955,-0.03573763653049766,
0.024189526184538655,0.012969474747170091,
0.02423940149625935,-0.012475843692578804,
0.02428927680798005,0.010871791538550904,
0.02433915211970075,-0.016472409382046197,
0.024389027431421448,-0.027294281385555508,
0.024438902743142144,-0.018212865476097177,
0.024488778054862843,-0.0171939211100773,
0.024538653366583542,-0.03154412305006043,
0.02458852867830424,-0.032160759282655854,
0.024638403990024937,-0.0008576287849260331,
0.024688279301745636,-0.02234086406620605,
0.024738154613466335,-0.032944491158038464,
0.02478802992518703,-0.007393645742918566,
0.02483790523690773,-0.029641983345931593,
0.02488778054862843,-0.01653599548988389,
0.02493765586034913,-0.026056767820991627,
0.024987531172069824,0.0018245906718543786,
0.025037406483790523,0.010164201265032955,
0.025087281795511222,-0.028792058311573734,
0.02513715710723192,-0.019636824879925924,
0.025187032418952617,-0.014767291546834918,
0.025236907730673316,-0.023484223098510063,
0.025286783042394016,-0.020514008047136763,
0.025336658354114715,-0.012747345206521408,
0.02538653366583541,-0.021167916438287734,
0.02543640897755611,0.011163436170287776,
0.02548628428927681,-0.03005812331593521,
0.025536159600997508,-0.009902146352733024,
0.025586034912718204,0.019616760446928564,
0.025635910224438903,-0.021428267665990593,
0.025685785536159602,-0.003662387528777424,
0.025735660847880298,-0.006014540082757329,
0.025785536159600997,-0.0028883695937649244,
0.025835411471321696,-0.019567918341715063,
0.025885286783042395,-0.01714230166995919,
0.02593516209476309,4.259951110348499e-05,
0.02598503740648379,-0.030317703836288658,
0.02603491271820449,0.005032107822053811,
0.02608478802992519,0.00734958546273682,
0.026134663341645884,-0.04773423866262386,
0.026184538653366583,-0.030773764982821895,
0.026234413965087282,0.007026687605319881,
0.02628428927680798,-0.015868661369211445,
0.026334164588528677,-0.014710806297212187,
0.026384039900249377,-0.007505520655568838,
0.026433915211970076,-0.012375984661438782,
0.02648379052369077,-0.005499242273906631,
0.02653366583541147,0.013262821141723296,
0.02658354114713217,-0.01369702251116574,
0.02663341645885287,-0.015153889900516368,
0.026683291770573565,0.008035113444803284,
0.026733167082294264,-0.00902611100450627,
0.026783042394014963,0.009411084297760598,
0.026832917705735662,0.0003195914706178773,
0.026882793017456358,0.006322023564105092,
0.026932668329177057,-0.020523170747142015,
0.026982543640897756,0.00024310192728147634,
0.027032418952618455,-0.024646725284236736,
0.02708229426433915,-0.011101712459168843,
0.02713216957605985,-0.007650429901067856,
0.02718204488778055,0.009003769614752027,
0.02723192019950125,-0.016174670328424262,
0.027281795511221944,-0.0296270387785051,
0.027331670822942643,0.018314074362743814,
0.027381546134663343,-0.0049543748916458675,
0.02743142144638404,-0.012133775133024436,
0.027481296758104738,-0.0013238377696454884,
0.027531172069825437,-0.018793124691035536,
0.027581047381546136,-0.017632818016397968,
0.02763092269326683,-0.0035315060692939345,
0.02768079800498753,0.017365414479501788,
0.02773067331670823,0.0002677618313290768,
0.02778054862842893,0.004473384066356499,
0.027830423940149625,-0.019898264605298137,
0.027880299251870324,-0.0012186751592341023,
0.027930174563591023,0.00457190208315517,
0.027980049875311722,-0.00989139436511835,
0.028029925187032418,-0.017287056334426808,
0.028079800498753117,-0.04062753419690733,
0.028129675810473816,-0.014030308830508244,
0.028179551122194512,-0.013840735965201485,
0.02822942643391521,-0.03307511399375047,
0.02827930174563591,0.011785267387392972,
0.02832917705735661,-0.005133568563682355,
0.028379052369077305,0.004444379014941569,
0.028428927680798004,-0.0478039740491018,
0.028478802992518704,-0.0164342737125185,
0.028528678304239403,-0.005254149635799928,
0.0285785536159601,-0.012601922117221609,
0.028628428927680798,-0.0299440162189671,
0.028678304239401497,-0.01414895901765047,
0.028728179551122196,-0.026275925305427043,
0.02877805486284289,0.014376193630123012,
0.02882793017456359,0.0009524049462726,
0.02887780548628429,0.009202370039754663,
0.02892768079800499,0.01301633771578628,
0.028977556109725685,-0.008623127167001341,
0.029027431421446384,-0.0011645251926962847,
0.029077306733167083,-0.00014726509775267167,
0.02912718204488778,-0.02698629042494945,
0.029177057356608478,0.006538063485199751,
0.029226932668329177,0.016603597659906544,
0.029276807980049877,-0.008323201553427726,
0.029326683291770572,0.007829505704758415,
0.02937655860349127,-0.004203804958189809,
0.02942643391521197,-0.013806003381642564,
0.02947630922693267,0.007249645071750694,
0.029526184538653365,0.010390711574914682,
0.029576059850374065,0.015947112999878416,
0.029625935162094764,0.011444786713970518,
0.029675810473815463,-0.008593399336883276,
0.02972568578553616,-0.01955496289203973,
0.029775561097256858,0.004813015731691205,
0.029825436408977557,-0.0033499480099496897,
0.029875311720698253,-0.015544239848581767,
0.029925187032418952,0.008402055912296902,
0.02997506234413965,-0.005168254086065015,
0.03002493765586035,0.008774134990921749,
0.030074812967581046,0.01847843308293449,
0.030124688279301745,0.011582706768991063,
0.030174563591022444,-0.0032486347452381527,
0.030224438902743143,-0.002446446206664102,
0.03027431421446384,0.013739453481672626,
0.03032418952618454,0.008112113865062113,
0.030374064837905237,0.03653433424783797,
0.030423940149625937,-0.014109285435037687,
0.030473815461346632,0.00850334353853963,
0.03052369077306733,-0.007330747438796222,
0.03057356608478803,0.02411451557445024,
0.03062344139650873,-0.007770836394836007,
0.030673316708229426,-0.009193280972862799,
0.030723192019950125,0.0054807245605229095,
0.030773067331670824,0.02920282681800874,
0.03082294264339152,-0.018929144761980522,
0.03087281795511222,0.018431302782141404,
0.030922693266832918,0.00045018881508171113,
0.030972568578553617,-0.012046237539006698,
0.031022443890274313,0.01469813264067786,
0.031072319201995012,0.005381890117802291,
0.03112219451371571,0.004902294984049413,
0.03117206982543641,0.004228588031857734,
0.031221945137157106,0.023118191348945723,
0.03127182044887781,0.025969589073293456,
0.031321695760598504,-0.0014774846269331975,
0.0313715710723192,0.01188076578035542,
0.0314214463840399,-0.018103184581971646,
0.0314713216957606,0.020861801064869068,
0.031521197007481294,0.02912886857815418,
0.031571072319202,0.0077830095179072835,
0.03162094763092269,0.01622683248213117,
0.03167082294264339,0.02537125064538469,
0.03172069825436409,0.03649729282889558,
0.03177057356608479,0.023259324194504074,
0.03182044887780549,0.028639370769133952,
0.031870324189526185,0.028514953526371865,
0.03192019950124688,0.030591668618848475,
0.03197007481296758,0.030954158649013477,
0.03201995012468828,0.0043160223587766795,
0.032069825436408975,-6.489144940395597e-05,
0.03211970074812968,-0.0072948619461217015,
0.03216957605985037,0.014639436788149822,
0.032219451371571076,0.01246898641674276,
0.03226932668329177,-0.0012345447392183503,
0.03231920199501247,0.029294875328711077,
0.03236907730673317,-0.000623163873294811,
0.032418952618453865,0.01111376657942999,
0.03246882793017456,0.026200657713473453,
0.032518703241895264,0.03626618967655515,
0.03256857855361596,0.006816065859225066,
0.032618453865336655,0.039264529239482274,
0.03266832917705736,0.03488466881463888,
0.032718204488778053,0.008466265957799911,
0.032768079800498756,0.018018123588445487,
0.03281795511221945,0.015467518658763744,
0.03286783042394015,-0.00285747507506132,
0.03291770573566085,0.029088717160338416,
0.032967581047381546,0.011038221340648195,
0.03301745635910224,0.008935282560570853,
0.033067331670822944,0.023062034841116977,
0.03311720698254364,0.02190267918963885,
0.03316708229426434,0.012386499730590595,
0.03321695760598504,0.029536627255613464,
0.033266832917705734,0.033981167210043225,
0.03331670822942644,0.005704793321399539,
0.03336658354114713,0.010599341580284227,
0.03341645885286783,0.004741123234267692,
0.03346633416458853,0.021569724620275357,
0.033516209476309226,0.034118730633629565,
0.03356608478802992,0.009213064968938006,
0.033615960099750625,0.02072064923785701,
0.03366583541147132,0.022572092718111787,
0.03371571072319202,0.04656089524535552,
0.03376558603491272,0.00934341564175897,
0.033815461346633414,0.04069866364360711,
0.03386533665835412,0.014522225785516672,
0.03391521197007481,0.03237861492170786,
0.03396508728179551,0.016395238995675417,
0.03401496259351621,0.02821946011874013,
0.03406483790523691,0.0491708448680063,
0.0341147132169576,0.03201122098486664,
0.034164588528678305,0.02112911443281014,
0.034214463840399,0.03632888537942668,
0.034264339152119704,0.025681645151416712,
0.0343142144638404,0.028377772975655986,
0.034364089775561095,0.01670081426155631,
0.0344139650872818,0.012822233404736828,
0.03446384039900249,0.0192385324737955,
0.03451371571072319,0.03952769006624786,
0.03456359102244389,0.022831368563270355,
0.03461346633416459,0.02043606383443356,
0.03466334164588529,0.017056401019223927,
0.034713216957605986,0.050183356527817205,
0.03476309226932668,-0.0037913288359353453,
0.034812967581047384,0.02089441500935677,
0.03486284289276808,0.026429925262956854,
0.034912718204488775,0.009326632869105513,
0.03496259351620948,0.01633435410443139,
0.035012468827930174,0.027794329890919036,
0.03506234413965087,0.021277594002975162,
0.03511221945137157,0.004045965953892151,
0.03516209476309227,0.03760371090295955,
0.03521197007481297,0.0048021216035279216,
0.035261845386533666,0.026470688892300427,
0.03531172069825436,0.018813002025774284,
0.035361596009975065,0.022160773254501328,
0.03541147132169576,0.024059514595828554,
0.035461346633416456,0.016299321273659618,
0.03551122194513716,0.0021445411067038574,
0.035561097256857854,0.03134933619659093,
0.03561097256857856,0.03315978560652556,
0.03566084788029925,-0.005363634565697668,
0.03571072319201995,0.029803637428384232,
0.03576059850374065,0.017537579553478053,
0.03581047381546135,0.024612304656943487,
0.03586034912718204,0.02494394736653508,
0.035910224438902745,0.016760385434320395,
0.03596009975062344,0.01495776375247287,
0.036009975062344136,0.044904846151669876,
0.03605985037406484,0.02212497646052253,
0.036109725685785535,0.016166125106767296,
0.03615960099750624,0.03389113974346707,
0.03620947630922693,0.016639830230318918,
0.03625935162094763,0.032951612155485255,
0.03630922693266833,0.02867640839250417,
0.03635910224438903,0.01329335948612323,
0.03640897755610972,0.023324298963075543,
0.036458852867830426,0.03148948622941629,
0.03650872817955112,-0.01771140402908717,
0.036558603491271824,0.03481143758371004,
0.03660847880299252,0.026440643977377346,
0.036658354114713215,0.025247055884702586,
0.03670822942643392,0.025640900863646746,
0.036758104738154614,-0.008619914546540194,
0.03680798004987531,0.011212535205685562,
0.03685785536159601,0.020253391148025587,
0.03690773067331671,0.009496307016438664,
0.0369576059850374,-0.004838350524792805,
0.037007481296758106,0.013083211536811558,
0.0370573566084788,0.01600741889877208,
0.037107231920199504,-0.002269798146246081,
0.0371571072319202,-0.016548737653912987,
0.037206982543640896,0.02296357612133208,
0.0372568578553616,0.012678932389860613,
0.037306733167082294,0.02255349174530271,
0.03735660847880299,0.028151062956427775,
0.03740648379052369,0.024461631364707522,
0.03745635910224439,0.02521362467183584,
0.037506234413965084,0.013103354168058686,
0.037556109725685786,0.0011497551572986105,
0.03760598503740648,0.0010191198981235987,
0.037655860349127185,0.016815249957065775,
0.03770573566084788,-0.00749932844124967,
0.037755610972568576,0.031243926172071883,
0.03780548628428928,0.001392621090717543,
0.037855361596009975,0.030928782363082222,
0.03790523690773067,0.019657541853048164,
0.03795511221945137,0.013960585499788035,
0.03800498753117207,0.011188422300638875,
0.03805486284289277,0.037715648453179845,
0.03810473815461347,0.054089001537351925,
0.03815461346633416,0.009530169173429127,
0.038204488778054865,0.022416055201812342,
0.03825436408977556,0.011270391538873721,
0.03830423940149626,0.011142875949984199,
0.03835411471321696,0.00817903733559596,
0.038403990024937655,-0.005230317130168256,
0.03845386533665835,-0.004738026584890132,
0.03850374064837905,0.00914308381145225,
0.03855361596009975,0.011493927315019576,
0.03860349127182045,0.02031054891400927,
0.03865336658354115,-0.007042722642961108,
0.03870324189526184,0.011201646414132176,
0.038753117206982546,0.024534435288653574,
0.03880299251870324,0.016593750151437756,
0.03885286783042394,0.01299255545498272,
0.03890274314214464,0.01981735681138955,
0.038952618453865336,0.014563831558066306,
0.03900249376558604,-0.017167309949171115,
0.039052369077306734,0.012417640551976465,
0.03910224438902743,0.011405923437729748,
0.03915211970074813,0.002850840220629437,
0.03920199501246883,-0.02749625780314015,
0.039251870324189524,-0.009929599145478928,
0.039301745635910226,0.005536387977978529,
0.03935162094763092,0.02029606485187353,
0.03940149625935162,-0.010991290258276146,
0.03945137157107232,-0.00248235428502515,
0.039501246882793016,-0.017714156539932385,
0.03955112219451372,0.024376016263875717,
0.039600997506234414,0.006602716034072594,
0.03965087281795511,0.0116506244850129,
0.03970074812967581,-0.025774418873455704,
0.03975062344139651,0.015131372470935812,
0.039800498753117204,-0.01108722173331889,
0.03985037406483791,-0.007501233643131619,
0.0399002493765586,-0.002620467893425478,
0.039950124688279305,-0.020624208126558328,
0.04,0.020483034564570683,
0.0400498753117207,0.023775752872264487,
0.0400997506234414,-0.0003257248534937198,
0.040149625935162095,-0.02755355451432731,
0.04019950124688279,0.004867968640344052,
0.04024937655860349,0.006907242020114748,
0.04029925187032419,-0.024680493076081722,
0.040349127182044885,0.01246643785649292,
0.04039900249376559,-0.00902061988904381,
0.04044887780548628,-0.023947273541167866,
0.040498753117206986,-0.00619997369529902,
0.04054862842892768,0.002942308104938813,
0.04059850374064838,-0.007914456001182913,
0.04064837905236908,0.021793902211192324,
0.040698254364089775,-0.018573725929837588,
0.04074812967581047,0.01484742588911697,
0.040798004987531174,0.011232234392412622,
0.04084788029925187,-0.005794328354645085,
0.040897755610972565,-0.0008621279572547103,
0.04094763092269327,0.010192344241745097,
0.04099750623441396,0.0037765095732696374,
0.041047381546134666,-0.019799737359723173,
0.04109725685785536,0.001837462696010624,
0.04114713216957606,-0.0004508114011056493,
0.04119700748129676,-0.02360716613750856,
0.041246882793017456,0.0032734804725769746,
0.04129675810473815,0.0001478274204619219,
0.041346633416458854,0.010594548558801594,
0.04139650872817955,0.003253064102542844,
0.04144638403990025,-0.009092496817043586,
0.04149625935162095,-0.012818379426788016,
0.041546134663341644,-0.013441992870992276,
0.04159600997506235,-0.03198076733111942,
0.04164588528678304,-0.023976277474994527,
0.04169576059850374,-0.020770248130426987,
0.04174563591022444,-0.03153032884437762,
0.041795511221945136,-0.023575343764006825,
0.04184538653366583,-0.0014313562994879396,
0.041895261845386535,-0.026548823155870187,
0.04194513715710723,-0.039355026649979336,
0.04199501246882793,0.003984015773386845,
0.04204488778054863,0.0053337639960605605,
0.042094763092269324,-0.0017008072380859367,
0.04214463840399003,-0.02821785523370318,
0.04219451371571072,-0.041828482760603664,
0.04224438902743142,0.0023677456057602728,
0.04229426433915212,-0.0006389510878792286,
0.04234413965087282,-0.02685754957137027,
0.04239401496259352,-0.006901643070558723,
0.042443890274314215,0.0028995697577545564,
0.04249376558603491,-0.030710508459128514,
0.042543640897755614,0.0055376254572517235,
0.04259351620947631,-0.01943536717560402,
0.042643391521197005,0.012781399979982195,
0.04269326683291771,-0.010413557926253519,
0.0427431421446384,-0.008912644593054665,
0.0427930174563591,-0.011605459477449028,
0.0428428927680798,-0.003594550276146174,
0.0428927680798005,-0.007450335077824238,
0.0429426433915212,-0.00918817646753637,
0.042992518703241896,-0.0028499538290056494,
0.04304239401496259,0.006689933041609565,
0.043092269326683294,-0.025458155963557334,
0.04314214463840399,-0.008122509577666838,
0.043192019950124685,0.0021357147515701762,
0.04324189526184539,-0.010824506602725784,
0.043291770573566084,-0.033065150979651,
0.043341645885286786,-0.040913624978463986,
0.04339152119700748,-0.005288930748601418,
0.04344139650872818,-0.013440597243404977,
0.04349127182044888,-0.00847094906035501,
0.043541147132169576,-0.029874795581650647,
0.04359102244389027,-0.03072138401444974,
0.043640897755610975,-0.006863734814523606,
0.04369077306733167,-0.04622219645161586,
0.043740648379052366,-0.009444985374743215,
0.04379052369077307,-0.036493783622875337,
0.043840399002493764,-0.007374262868037428,
0.04389027431421447,-0.012302794658008777,
0.04394014962593516,-0.010796386186827094,
0.04399002493765586,0.00014998977891651083,
0.04403990024937656,-0.019249233926417836,
0.04408977556109726,-0.02240983595127244,
0.04413965087281795,-0.013095477310482329,
0.044189526184538655,-0.04031105091036383,
0.04423940149625935,-0.028495465255970385,
0.04428927680798005,-0.024136253044691164,
0.04433915211970075,-0.009858243166684964,
0.044389027431421445,-0.015981337740517732,
0.04443890274314215,-0.024608025280618562,
0.04448877805486284,-0.005369296325218376,
0.04453865336658354,-0.03765641027096681,
0.04458852867830424,-0.02408639269873778,
0.04463840399002494,-4.035125264481576e-05,
0.04468827930174563,-0.02508520160828473,
0.044738154613466335,-0.008438559047706694,
0.04478802992518703,-0.0074506805166646446,
0.044837905236907734,-0.014119588006265501,
0.04488778054862843,-0.014823605330168532,
0.044937655860349125,0.0061380107308697425,
0.04498753117206983,-0.018213867143160624,
0.045037406483790524,-0.022216586154565617,
0.04508728179551122,-0.01735555121494227,
0.04513715710723192,-0.0216141351066739,
0.04518703241895262,0.0053111870429935065,
0.04523690773067331,-0.020193422398593834,
0.045286783042394016,-0.008683050108565465,
0.04533665835411471,-0.009651515296863611,
0.045386533665835414,-0.030514983061790398,
0.04543640897755611,-0.015125669460856386,
0.045486284289276806,-0.032513071679949934,
0.04553615960099751,-0.0013590904823285732,
0.045586034912718204,0.0013105236985961957,
0.0456359102244389,-0.0199264177181828,
0.0456857855361596,-0.020191730015188116,
0.0457356608478803,-0.022117849948142226,
0.045785536159601,0.012605685552979064,
0.045835411471321696,-0.013162276056175926,
0.04588528678304239,-0.03262589917019197,
0.045935162094763095,-0.01631574941573669,
0.04598503740648379,-0.020607045446497073,
0.046034912718204486,-0.010744226316921787,
0.04608478802992519,-0.016017244173934235,
0.046134663341645885,-0.03144447768637574,
0.04618453865336658,-0.011545101286313156,
0.04623441396508728,-0.01746087502426001,
0.04628428927680798,-0.030001547689438454,
0.04633416458852868,0.008957429172654172,
0.04638403990024938,-0.021805869711109385,
0.04643391521197007,-0.029808742120127452,
0.046483790523690775,-0.017297359189078466,
0.04653366583541147,-0.02580091540742389,
0.04658354114713217,-0.034493440148408216,
0.04663341645885287,-0.0017375622702713988,
0.046683291770573565,-0.008740963801736433,
0.04673316708229427,-0.0050077268010790136,
0.04678304239401496,-0.009228271593521869,
0.04683291770573566,-0.0014901178394583613,
0.04688279301745636,-0.02200631601690007,
0.04693266832917706,0.03361542489597857,
0.04698254364089775,-0.0037947745539608363,
0.047032418952618456,0.0005961372240541763,
0.04708229426433915,-0.0019501239183905717,
0.04713216957605985,0.002783179547278629,
0.04718204488778055,-0.01199521674856173,
0.047231920199501246,-0.0215051474752782,
0.04728179551122195,-0.006044963079507913,
0.047331670822942644,-0.0039365340593014095,
0.04738154613466334,-0.005545740674250864,
0.04743142144638404,0.0023241449558638622,
0.04748129675810474,0.019504221690455875,
0.047531172069825434,-0.006649208102677512,
0.047581047381546136,0.021303755913479386,
0.04763092269326683,-0.025429711059626922,
0.047680798004987535,-0.00599261189551392,
0.04773067331670823,-0.002233406415711302,
0.047780548628428926,0.01791798608970413,
0.04783042394014963,-0.02156421221407629,
0.047880299251870324,-0.0021282054459618328,
0.04793017456359102,0.0015566525565525431,
0.04798004987531172,-0.02691982713798165,
0.04802992518703242,-0.00811343332570777,
0.048079800498753114,0.0035539339786831072,
0.04812967581047382,0.017222521421014648,
0.04817955112219451,-0.01684953922517938,
0.048229426433915215,-0.025232785149627124,
0.04827930174563591,-0.01826169790003552,
0.048329177057356607,0.004902168888542252,
0.04837905236907731,0.011253016838393073,
0.048428927680798005,0.008154727134903379,
0.0484788029925187,0.0037451358226906796,
0.0485286783042394,-0.025759238169597666,
0.0485785536159601,0.00550704430377384,
0.048628428927680795,-0.009212008738433825,
0.0486783042394015,0.017535961762265833,
0.04872817955112219,-0.008059930528715254,
0.048778054862842896,-0.01584643907976225,
0.04882793017456359,0.020945027237290643,
0.04887780548628429,-0.0005576372068712965,
0.04892768079800499,0.035294718550104714,
0.048977556109725685,0.004460274381477103,
0.04902743142144638,-0.01654680568956923,
0.049077306733167084,0.018015641360534886,
0.04912718204488778,0.005571166311119179,
0.04917705735660848,0.012117970484693267,
0.04922693266832918,-0.021820162371032178,
0.04927680798004987,-0.007674782759126078,
0.049326683291770576,0.0005643011852853072,
0.04937655860349127,0.030346372245900855,
0.04942643391521197,0.0009960146903542919,
0.04947630922693267,-0.0037293239658281263,
0.049526184538653366,0.03725386624883594,
0.04957605985037406,0.012372769863994663,
0.049625935162094764,0.014132405768282813,
0.04967581047381546,0.009954610355023692,
0.04972568578553616,0.034666859366978234,
0.04977556109725686,0.014887442162823561,
0.049825436408977554,0.0018543426071945942,
0.04987531172069826,0.02914076831786596,
0.04992518703241895,-0.013527131572450038,
0.04997506234413965,0.012621174757896508,
0.05002493765586035,0.019225940021059876,
0.050074812967581046,0.023428129909375938,
0.05012468827930175,-0.00011088583369773738,
0.050174563591022445,0.0026303295471430026,
0.05022443890274314,-0.0017774613418814287,
0.05027431421446384,-0.007600524095797534,
0.05032418952618454,0.02328180308079278,
0.050374064837905234,-0.010784090264728357,
0.05042394014962594,0.0017552490322065746,
0.05047381546134663,0.015575495634580864,
0.05052369077306733,-0.018092739082283437,
0.05057356608478803,0.013839489051946978,
0.05062344139650873,0.026036355560646214,
0.05067331670822943,-0.01615741863202448,
0.050723192019950125,0.01881182581984436,
0.05077306733167082,0.008503076245107124,
0.050822942643391524,0.02008468688767114,
0.05087281795511222,0.013902727348423903,
0.050922693266832915,0.04052555895844814,
0.05097256857855362,-0.0006499582599652307,
0.05102244389027431,0.047282443762273245,
0.051072319201995016,0.014672828134977764,
0.05112219451371571,0.025042767568177377,
0.05117206982543641,0.021770780409437362,
0.05122194513715711,0.03207948052874531,
0.051271820448877806,0.015814512009976606,
0.0513216957605985,0.036615398868782206,
0.051371571072319204,0.02373179297566485,
0.0514214463840399,0.036145277822525676,
0.051471321695760595,0.03356240002086862,
0.0515211970074813,0.049970030838725435,
0.051571072319201994,0.02266427535957015,
0.051620947630922696,0.0274588161305161,
0.05167082294264339,0.03029483859793719,
0.05172069825436409,0.030299956239668992,
0.05177057356608479,0.029749049876944475,
0.051820448877805486,0.012266289667257456,
0.05187032418952618,0.015192678583964041,
0.051920199501246884,0.03704432179664577,
0.05197007481296758,0.04257340204812516,
0.052019950124688276,0.013925899087876947,
0.05206982543640898,-0.0041338221462651585,
0.052119700748129674,0.0006714289072131188,
0.05216957605985038,0.028600521405552744,
0.05221945137157107,-0.004543983924116757,
0.05226932668329177,0.0107653942118839,
0.05231920199501247,0.01556640723313752,
0.05236907730673317,0.008085577345430386,
0.05241895261845386,0.020150008819083704,
0.052468827930174565,-0.0033947460660577466,
0.05251870324189526,0.01679706422999034,
0.05256857855361596,0.04441682811043863,
0.05261845386533666,0.027034021558940746,
0.052668329177057355,0.03361600986188319,
0.05271820448877806,0.0386120995791266,
0.05276807980049875,-0.0004884755204282477,
0.05281795511221945,-0.006804375138474223,
0.05286783042394015,0.010116335066526252,
0.05291770573566085,0.009489927997939455,
0.05296758104738154,0.03217978242316341,
0.053017456359102245,0.021240270213406843,
0.05306733167082294,0.042856928759736505,
0.053117206982543644,0.017618152553782802,
0.05316708229426434,0.0321337860912739,
0.053216957605985035,0.005797660369356132,
0.05326683291770574,-0.01302519082311368,
0.053316708229426434,0.027148469897281542,
0.05336658354114713,0.025859386186070792,
0.05341645885286783,0.036730040914752515,
0.05346633416458853,0.045788466011961376,
0.05351620947630923,0.04458687787178669,
0.053566084788029926,0.027191732706227434,
0.05361596009975062,0.051111763638784065,
0.053665835411471324,0.022427433231534667,
0.05371571072319202,0.031117011840735752,
0.053765586034912716,0.04265972293732331,
0.05381546134663342,0.020898068712023748,
0.053865336658354114,0.019056169641646206,
0.05391521197007481,0.05702107259627648,
0.05396508728179551,0.013588999428451775,
0.05401496259351621,0.041677881897850017,
0.05406483790523691,-0.0010323531522215164,
0.054114713216957606,0.0012568918397017313,
0.0541645885286783,0.04744405186902889,
0.054214463840399005,0.019915003932777533,
0.0542643391521197,0.009906081941420203,
0.054314214463840396,0.03752578421086368,
0.0543640897755611,0.0409641611085595,
0.054413965087281795,0.029192107898092755,
0.0544638403990025,0.03825470282075165,
0.05451371571072319,0.03542658392510952,
0.05456359102244389,0.030683347043159632,
0.05461346633416459,0.038410792266774435,
0.05466334164588529,0.008763131671336178,
0.05471321695760598,0.024138218098896314,
0.054763092269326685,0.037457550967053645,
0.05481296758104738,0.03761010850450813,
0.05486284289276808,0.017890327013906665,
0.05491271820448878,0.009633249832474256,
0.054962593516209475,0.0343757599260658,
0.05501246882793018,0.03893042431549418,
0.05506234413965087,0.020891869657486024,
0.05511221945137157,0.027318335187785755,
0.05516209476309227,0.024982847745731316,
0.05521197007481297,0.007954411745238109,
0.05526184538653366,0.034946196225308146,
0.055311720698254366,0.017421949335780864,
0.05536159600997506,0.05418436170854317,
0.05541147132169576,0.03616379363343386,
0.05546134663341646,0.0007212543357383687,
0.055511221945137156,0.04518710269560981,
0.05556109725685786,0.015579615961799253,
0.055610972568578554,0.007686633375779151,
0.05566084788029925,0.004649678631287676,
0.05571072319201995,0.02174515926694325,
0.05576059850374065,0.03022619667748964,
0.055810473815461344,0.037608574663452334,
0.055860349127182046,0.006156203800476528,
0.05591022443890274,0.022477148728930474,
0.055960099750623445,0.026978147739203984,
0.05600997506234414,0.026961485317474738,
0.056059850374064836,0.019782351031592628,
0.05610972568578554,0.033624780374595556,
0.056159600997506234,0.018957705730480837,
0.05620947630922693,0.01614212182801656,
0.05625935162094763,0.02201474133802012,
0.05630922693266833,0.018377230519623804,
0.056359102244389024,0.017771907030702205,
0.05640897755610973,0.023178396599850604,
0.05645885286783042,0.021238986255696122,
0.056508728179551125,-0.0008450076518415582,
0.05655860349127182,0.034278518644598535,
0.056608478802992516,0.013752338218227703,
0.05665835411471322,0.011921466829414522,
0.056708229426433915,0.019137322560953636,
0.05675810473815461,0.02072277583550186,
0.05680798004987531,0.020739206488618857,
0.05685785536159601,0.00940529641652231,
0.05690773067331671,0.028909937766934665,
0.05695760598503741,0.015461337223188251,
0.0570074812967581,0.015480856482505358,
0.057057356608478806,0.015272311084194187,
0.0571072319201995,0.02404232238023338,
0.0571571072319202,0.028327578796364376,
0.0572069825436409,0.014795917964652433,
0.057256857855361595,0.013311953490205718,
0.05730673316708229,0.038112349100858374,
0.057356608478802994,0.041510733444714676,
0.05740648379052369,0.044992690073208275,
0.05745635910224439,-0.003409322153054721,
0.05750623441396509,0.02592572632150116,
0.05755610972568578,0.0248781715356187,
0.057605985037406486,0.03368510000198197,
0.05765586034912718,0.04103444920790742,
0.05770573566084788,0.016636954641194565,
0.05775561097256858,0.0038781348476499868,
0.057805486284289276,0.02832376561761356,
0.05785536159600998,0.02236836859512642,
0.057905236907730674,0.030599966723063563,
0.05795511221945137,0.006840188754788743,
0.05800498753117207,0.028792133605964776,
0.05805486284289277,0.005696602373853331,
0.058104738154613464,0.007144036336584654,
0.05815461346633417,0.032057664308526766,
0.05820448877805486,0.03414978583642768,
0.05825436408977556,0.03550912818805805,
0.05830423940149626,-0.0044688184830181145,
0.058354114713216956,0.028153232379229533,
0.05840399002493766,-0.016020813456878898,
0.058453865336658355,0.031815897795315407,
0.05850374064837905,-0.0063550457682162755,
0.05855361596009975,-0.019092501810638443,
0.05860349127182045,0.04545093812250612,
0.058653366583541144,0.008050429625563625,
0.05870324189526185,0.0023432426595233133,
0.05875311720698254,-0.00802990753850807,
0.05880299251870324,-0.007759077087150283,
0.05885286783042394,0.023165855123661334,
0.05890274314214464,0.005506102864643828,
0.05895261845386534,-0.02233355502505998,
0.059002493765586035,-0.012037284224999466,
0.05905236907730673,0.0016407864102404414,
0.059102244389027433,0.01499489855267562,
0.05915211970074813,-0.010468091334640996,
0.059201995012468825,0.013069616769935507,
0.05925187032418953,0.012956238532393496,
0.05930174563591022,0.0021895984785703284,
0.059351620947630926,0.00698933097518106,
0.05940149625935162,-0.012147714615730814,
0.05945137157107232,-0.01521736943595891,
0.05950124688279302,-0.01587202468587097,
0.059551122194513716,-0.01321452991391707,
0.05960099750623441,-0.0052591100306315,
0.059650872817955114,-0.012308595184148927,
0.05970074812967581,0.015137559782358107,
0.059750623441396505,-0.009425088615127624,
0.05980049875311721,0.014376788573565061,
0.059850374064837904,-0.008816678081786461,
0.059900249376558606,-0.02261012961509539,
0.0599501246882793,-0.025271163078914638,
0.06,0.03222421667785293,
0.0600498753117207,0.0023947485526190073,
0.060099750623441396,0.017733483885011357,
0.06014962593516209,0.005525473065567713,
0.060199501246882794,0.012572958013586532,
0.06024937655860349,-0.002241752421032998,
0.06029925187032419,0.0030585235403717565,
0.06034912718204489,0.03323379566458368,
0.060399002493765584,0.005093028839078297,
0.06044887780548629,0.0006958348167738888,
0.06049875311720698,0.00018393268748780316,
0.06054862842892768,-0.0035476236762919957,
0.06059850374064838,0.00198842428388318,
0.06064837905236908,-0.01171405585310004,
0.06069825436408977,-0.021695837946195583,
0.060748129675810475,-0.00830155436251041,
0.06079800498753117,-0.019204951313433544,
0.06084788029925187,-0.0010011274023504968,
0.06089775561097257,0.01939114676415093,
0.060947630922693265,-0.004073424121223818,
0.06099750623441397,-0.01233600676914734,
0.06104738154613466,-0.023104025253363875,
0.06109725685785536,-0.01316527137875026,
0.06114713216957606,-0.018288256596442027,
0.06119700748129676,-0.025037580146809305,
0.06124688279301746,0.007688695396649699,
0.061296758104738155,0.012390256301828637,
0.06134663341645885,-0.021742988940004773,
0.061396508728179554,0.015170868215324037,
0.06144638403990025,0.02042484030169642,
0.061496259351620945,-0.004330689134341552,
0.06154613466334165,-0.004463891157400616,
0.061596009975062344,-0.014770137530809382,
0.06164588528678304,-0.032846790302313786,
0.06169576059850374,0.012053003373203601,
0.06174563591022444,-0.009561893103041168,
0.06179551122194514,0.011132209702223022,
0.061845386533665836,0.01741989430253698,
0.06189526184538653,-0.0037065754572526144,
0.061945137157107234,0.011101193407807915,
0.06199501246882793,0.00706033653687135,
0.062044887780548626,-0.000860875232041796,
0.06209476309226933,-0.022176620627104682,
0.062144638403990024,-0.005489725097272801,
0.06219451371571072,-0.03590095190576195,
0.06224438902743142,-4.270866919737701e-05,
0.06229426433915212,-0.018168155109971926,
0.06234413965087282,-0.012804979943423025,
0.062394014962593516,-0.017194516857551648,
0.06244389027431421,-0.04311836205121049,
0.062493765586034915,0.005488646890971557,
0.06254364089775562,-0.03739726532674,
0.06259351620947631,-0.04092924585042867,
0.06264339152119701,-0.02678052627363805,
0.0626932668329177,-0.015978868888092947,
0.0627431421446384,-0.020274105660732008,
0.0627930174563591,0.0031165076500298747,
0.0628428927680798,-0.013856038102817537,
0.0628927680798005,0.006013067089746742,
0.0629426433915212,0.009022389466504143,
0.06299251870324189,-0.02509078423316626,
0.06304239401496259,-0.038215071884900406,
0.0630922693266833,-0.018000803988715355,
0.063142144638404,-0.01055394024176071,
0.06319201995012469,-0.0003748100551694677,
0.06324189526184539,-0.0035771425677702737,
0.06329177057356608,-0.04001906400965933,
0.06334164588528678,-0.02400581958109803,
0.06339152119700749,-0.029583554575588873,
0.06344139650872818,-0.029417181440533242,
0.06349127182044888,-0.018300183235265843,
0.06354114713216957,0.004392751122902716,
0.06359102244389027,-0.007420007009607653,
0.06364089775561098,0.005079925154262796,
0.06369077306733167,-0.0055870134763793475,
0.06374064837905237,-0.025649572033702994,
0.06379052369077307,-0.005218750134449463,
0.06384039900249376,0.008721802018031704,
0.06389027431421446,-0.013770385894790184,
0.06394014962593517,-0.0072092593165036245,
0.06399002493765586,-0.02112019356804453,
0.06403990024937656,-0.023345760148958603,
0.06408977556109725,-0.02033328335619796,
0.06413965087281795,-0.006806386229193051,
0.06418952618453866,0.013307639433836876,
0.06423940149625935,0.012146870064472947,
0.06428927680798005,-0.004816784835407664,
0.06433915211970075,-0.021781061856585446,
0.06438902743142144,0.003768802556135698,
0.06443890274314215,0.00653322777331194,
0.06448877805486285,-0.013592288524388074,
0.06453865336658354,0.006188520905875097,
0.06458852867830424,-0.028392136221109157,
0.06463840399002493,-0.0012025787158541409,
0.06468827930174563,-0.04264794649303873,
0.06473815461346634,0.003042249763738094,
0.06478802992518704,-0.010282227757878716,
0.06483790523690773,-0.022492824589094247,
0.06488778054862843,-0.038851982141616434,
0.06493765586034912,-0.0062731126601321095,
0.06498753117206983,-0.01949437090816528,
0.06503740648379053,-0.0027919870347751855,
0.06508728179551122,-0.012257581995162907,
0.06513715710723192,-0.03763595536801394,
0.06518703241895261,-0.035827498366737404,
0.06523690773067331,-0.020079018445136213,
0.06528678304239402,0.01443674020370063,
0.06533665835411472,-0.006095419509535328,
0.06538653366583541,-0.024409212165464378,
0.06543640897755611,0.0174093522096138,
0.0654862842892768,-0.01700825392998112,
0.06553615960099751,0.018084759948980955,
0.06558603491271821,-0.024338635002904202,
0.0656359102244389,-0.010230777249533715,
0.0656857855361596,-0.00987185390600058,
0.0657356608478803,-0.02484413955957988,
0.06578553615960099,-0.00215446946415989,
0.0658354114713217,-0.01688408932841741,
0.0658852867830424,-0.007701289446919028,
0.06593516209476309,-0.025753842753855984,
0.06598503740648379,-0.018438694438774147,
0.06603491271820448,-0.0006734791143628762,
0.06608478802992519,0.00043880595312007983,
0.06613466334164589,-0.029131564532113442,
0.06618453865336658,-0.009021495365788643,
0.06623441396508728,-0.011268936321068578,
0.06628428927680798,0.004103824221856248,
0.06633416458852869,-0.0036112137467583516,
0.06638403990024938,-0.01285025839252281,
0.06643391521197008,-0.014821603647063508,
0.06648379052369077,-0.04119794481882705,
0.06653366583541147,0.0010715845286959399,
0.06658354114713216,-0.013805107827262682,
0.06663341645885287,-0.000424271807172201,
0.06668329177057357,-0.038570768448642774,
0.06673316708229426,-0.01645262677102151,
0.06678304239401496,-0.0395964400250499,
0.06683291770573566,0.019720000492775655,
0.06688279301745637,-0.013458086211025237,
0.06693266832917706,0.006958250620138931,
0.06698254364089776,-0.01879951211386928,
0.06703241895261845,-0.010917714407932662,
0.06708229426433915,0.012682888477537936,
0.06713216957605984,-0.02299553987815464,
0.06718204488778055,0.003149967160105711,
0.06723192019950125,0.019486410149307222,
0.06728179551122195,-0.005700789185786266,
0.06733167082294264,-0.009021555270811997,
0.06738154613466334,-0.03770456375247443,
0.06743142144638405,-0.018148415491590426,
0.06748129675810474,0.0050554915225282885,
0.06753117206982544,-0.006035154689814002,
0.06758104738154613,-0.002079125507996334,
0.06763092269326683,0.004708144420997034,
0.06768079800498752,-0.011550087848403357,
0.06773067331670823,0.008256413443638186,
0.06778054862842893,0.016519362386966885,
0.06783042394014963,0.0052473688428285635,
0.06788029925187032,0.016856498005145014,
0.06793017456359102,0.008100068799115324,
0.06798004987531173,-0.007732952898481528,
0.06802992518703242,0.025286491350296165,
0.06807980049875312,-0.040342101276714136,
0.06812967581047381,0.003931892697943914,
0.06817955112219451,-0.0102877831213951,
0.0682294264339152,0.004418482752511727,
0.06827930174563591,0.009821132842194689,
0.06832917705735661,-0.008118066431965026,
0.0683790523690773,-0.025469655948694436,
0.068428927680798,0.024902231407113295,
0.0684788029925187,-0.02925048533506733,
0.06852867830423941,0.02277907899325836,
0.0685785536159601,0.024901781317246127,
0.0686284289276808,0.008772924977335061,
0.0686783042394015,0.008493884342633207,
0.06872817955112219,0.0141038986474043,
0.0687780548628429,0.00619560933301985,
0.0688279301745636,-0.0023621589437387664,
0.06887780548628429,-0.0036484511469598822,
0.06892768079800499,0.006349680128296385,
0.06897755610972568,0.017313310631873073,
0.06902743142144638,0.01930531646662483,
0.06907730673316709,0.008304570005297484,
0.06912718204488778,0.02478842024178734,
0.06917705735660848,-0.008024813539587242,
0.06922693266832917,0.007847455347710992,
0.06927680798004987,-0.03144742172920985,
0.06932668329177058,0.00993845172733527,
0.06937655860349128,-0.004993574294597254,
0.06942643391521197,0.010479541282512177,
0.06947630922693267,0.013859331373751168,
0.06952618453865336,-0.022152861483973635,
0.06957605985037406,0.0076816509994858855,
0.06962593516209477,0.016075753331784022,
0.06967581047381546,0.011261547833704562,
0.06972568578553616,0.016969573154709507,
0.06977556109725686,0.013449881893847167,
0.06982543640897755,0.009518726692782208,
0.06987531172069826,0.007547687753441686,
0.06992518703241896,0.03179351862887093,
0.06997506234413965,0.029598669084530793,
0.07002493765586035,0.019490132489562953,
0.07007481296758104,0.011129143358288858,
0.07012468827930174,0.03967442650952753,
0.07017456359102245,0.012562837584424967,
0.07022443890274314,0.014283266255106848,
0.07027431421446384,0.015986492908812728,
0.07032418952618454,0.010244714577852492,
0.07037406483790523,0.008649137375136538,
0.07042394014962594,0.025171712594311828,
0.07047381546134664,0.01663610499705501,
0.07052369077306733,0.008085697872295744,
0.07057356608478803,0.009513891973894552,
0.07062344139650872,-0.003360943747977685,
0.07067331670822943,0.0008938035640966447,
0.07072319201995013,0.02952101832370706,
0.07077306733167082,0.009397806393541486,
0.07082294264339152,0.0056454599580503285,
0.07087281795511222,0.004195549133653557,
0.07092269326683291,0.022394853560095004,
0.07097256857855362,1.6252518996421814e-05,
0.07102244389027432,0.024997374126114767,
0.07107231920199501,-0.004853479013216477,
0.07112219451371571,0.04968992125231536,
0.0711720698254364,0.03499620052862927,
0.07122194513715711,0.009820837124379844,
0.07127182044887781,0.034720271231373945,
0.0713216957605985,0.015344750225126791,
0.0713715710723192,0.020838030557517238,
0.0714214463840399,0.015844193339218812,
0.07147132169576059,0.0142898288163493,
0.0715211970074813,0.031277340122252605,
0.071571072319202,0.023717681709419538,
0.0716209476309227,0.028524358555092083,
0.07167082294264339,0.015315715409537115,
0.07172069825436408,0.04570151630471936,
0.0717705735660848,0.012631133043991973,
0.07182044887780549,0.02025424999147031,
0.07187032418952619,0.031738888234787564,
0.07192019950124688,0.019956044729204023,
0.07197007481296758,0.026126893019394887,
0.07201995012468827,0.017224096271983277,
0.07206982543640898,0.024252699685571946,
0.07211970074812968,0.015234835975495258,
0.07216957605985037,0.002955709350982435,
0.07221945137157107,0.03812668178876888,
0.07226932668329177,0.026271005872366977,
0.07231920199501247,0.00951609055318068,
0.07236907730673317,0.026433606606199114,
0.07241895261845387,0.02766106359640386,
0.07246882793017456,0.049202577294581246,
0.07251870324189526,0.051956080352258426,
0.07256857855361595,0.01262256901691845,
0.07261845386533666,0.003996450558794908,
0.07266832917705736,0.018178179396493473,
0.07271820448877805,0.040352203454558776,
0.07276807980049875,0.04482563394202432,
0.07281795511221945,0.014314125458368566,
0.07286783042394016,0.036913316617619644,
0.07291770573566085,0.04367787005200145,
0.07296758104738155,0.019604878550964606,
0.07301745635910224,0.02982737643209916,
0.07306733167082294,0.01568090588096685,
0.07311720698254365,0.00915440378662468,
0.07316708229426434,0.019974883772845134,
0.07321695760598504,0.022038064671056273,
0.07326683291770573,0.026970481889429514,
0.07331670822942643,0.005217902438204712,
0.07336658354114713,0.042183180225364145,
0.07341645885286784,0.012617690935763017,
0.07346633416458853,0.048019067325537665,
0.07351620947630923,0.01018366433711405,
0.07356608478802992,0.04611179028013851,
0.07361596009975062,0.03935926810816132,
0.07366583541147133,0.0039594185539392306,
0.07371571072319202,0.022758784660072792,
0.07376558603491272,0.026004097337420828,
0.07381546134663342,0.007937229840799528,
0.07386533665835411,0.029241897298250337,
0.0739152119700748,0.012064994327398585,
0.07396508728179552,0.01953182947544005,
0.07401496259351621,0.014870698755269262,
0.07406483790523691,0.022186727595191275,
0.0741147132169576,-0.0049780106988811,
0.0741645885286783,0.0326655259860895,
0.07421446384039901,0.023101018475754177,
0.0742643391521197,0.047686752253278605,
0.0743142144638404,0.03962494179254942,
0.0743640897755611,0.03657675805566684,
0.07441396508728179,0.03054614943571267,
0.07446384039900249,0.004529283876829812,
0.0745137157107232,0.017932069414663854,
0.07456359102244389,0.002612410191903544,
0.07461346633416459,0.0017104139909197777,
0.07466334164588528,0.010517236183337785,
0.07471321695760598,0.01066248711315312,
0.07476309226932669,0.023912190537271057,
0.07481296758104738,-0.012277945020237255,
0.07486284289276808,0.02404407904832156,
0.07491271820448878,-0.002603236260876246,
0.07496259351620947,0.029572650778648717,
0.07501246882793017,0.05323539065752976,
0.07506234413965088,0.014067620167844736,
0.07511221945137157,0.055278990173033685,
0.07516209476309227,0.029657493775883545,
0.07521197007481296,0.02430541378181009,
0.07526184538653366,0.03657621589208225,
0.07531172069825437,0.0430578043463038,
0.07536159600997507,0.02469097506320456,
0.07541147132169576,0.018706805191937174,
0.07546134663341646,0.009872300968148444,
0.07551122194513715,0.013688798214644183,
0.07556109725685786,0.016078634402087247,
0.07561097256857856,0.02676713606467054,
0.07566084788029925,0.04839514752950119,
0.07571072319201995,0.021691730813083773,
0.07576059850374064,0.035078792218144576,
0.07581047381546134,0.004983171978492289,
0.07586034912718205,0.003601044142897903,
0.07591022443890275,0.01304011444259887,
0.07596009975062344,0.016511306377190924,
0.07600997506234414,0.02953531536577683,
0.07605985037406483,0.04060629394150571,
0.07610972568578554,0.031193189239905796,
0.07615960099750624,0.010925282188573719,
0.07620947630922693,0.029406948022404636,
0.07625935162094763,0.01148475389366066,
0.07630922693266833,0.019627339347356658,
0.07635910224438902,-0.00875527094657818,
0.07640897755610973,0.039982667221901955,
0.07645885286783043,0.014745384248467237,
0.07650872817955112,0.0404694886194745,
0.07655860349127182,0.0013424777592238313,
0.07660847880299251,0.0353657194246071,
0.07665835411471322,0.00831937285594009,
0.07670822942643392,0.022094845188378523,
0.07675810473815461,0.04769114366019878,
0.07680798004987531,0.025666474227120064,
0.076857855361596,0.006447052374638386,
0.0769077306733167,0.017852644191201212,
0.07695760598503741,0.022351060857736214,
0.0770074812967581,0.03864252624378405,
0.0770573566084788,0.019486970353414387,
0.0771072319201995,0.035966251113421346,
0.0771571072319202,0.008405902821904477,
0.0772069825436409,0.022669800941116633,
0.0772568578553616,0.023418406149586304,
0.0773067331670823,0.024249827679446327,
0.07735660847880299,0.007750108796561591,
0.07740648379052369,0.023880666159967444,
0.0774563591022444,0.03551056661329913,
0.07750623441396509,0.02801580855181636,
0.07755610972568579,-0.0013252858535305438,
0.07760598503740648,0.005519123114487275,
0.07765586034912718,0.008360809948534342,
0.07770573566084787,-0.005147456852363756,
0.07775561097256858,-0.00140941022046457,
0.07780548628428928,-0.01286083524468105,
0.07785536159600998,0.012216407019522663,
0.07790523690773067,0.03435102832309471,
0.07795511221945137,0.016572898761287928,
0.07800498753117208,0.0024894328317392744,
0.07805486284289277,0.004487001430477748,
0.07810473815461347,0.02545934922727521,
0.07815461346633416,-0.007049640657531067,
0.07820448877805486,0.00875605261541669,
0.07825436408977555,0.030471458320552508,
0.07830423940149626,0.004848757100106796,
0.07835411471321696,0.031093399167835503,
0.07840399002493766,0.0059428081180665044,
0.07845386533665835,-0.01053623030555001,
0.07850374064837905,0.00538719265840681,
0.07855361596009976,0.0468205328533075,
0.07860349127182045,0.03485487215578591,
0.07865336658354115,0.005631498548398168,
0.07870324189526184,0.030740450317882577,
0.07875311720698254,0.02043293153016923,
0.07880299251870324,0.00925640247560985,
0.07885286783042394,0.006335456795753341,
0.07890274314214464,0.02515276753474343,
0.07895261845386534,0.018756763916830062,
0.07900249376558603,0.011238465096530108,
0.07905236907730673,0.015284666322605205,
0.07910224438902744,0.0232836568367989,
0.07915211970074813,0.006552109415205661,
0.07920199501246883,0.016673282938462396,
0.07925187032418952,-0.004877519209631764,
0.07930174563591022,0.016444230828484285,
0.07935162094763092,-0.009541055575277294,
0.07940149625935163,-0.0022854232526800878,
0.07945137157107232,0.011313388082100865,
0.07950124688279302,-0.016639951802677716,
0.07955112219451371,-0.0025938208042962704,
0.07960099750623441,-0.007703889761529123,
0.07965087281795512,0.013561704160361501,
0.07970074812967581,0.028912399534096758,
0.07975062344139651,0.020752512499847504,
0.0798004987531172,-0.005576739754712784,
0.0798503740648379,-0.011867396285469838,
0.07990024937655861,0.03637234133015122,
0.0799501246882793,0.008019622691183564,
0.08,0.006891529379422063,
0.0800498753117207,0.002967381661087121,
0.0800997506234414,0.004255551992353017,
0.08014962593516209,-0.008166670202892648,
0.0801995012468828,-0.0031636840880726806,
0.0802493765586035,-0.005360527790901658,
0.08029925187032419,-0.0017916242334729978,
0.08034912718204489,-0.002684242958412348,
0.08039900249376558,-0.004620852105543866,
0.08044887780548629,-0.023113375698133543,
0.08049875311720699,0.026236713625233415,
0.08054862842892768,-0.011757993237173258,
0.08059850374064838,-0.03299364902129346,
0.08064837905236907,0.018336151116184547,
0.08069825436408977,-0.0047758781435990275,
0.08074812967581048,-0.01099828041927539,
0.08079800498753117,0.010552142218876511,
0.08084788029925187,0.010288726962351462,
0.08089775561097257,-0.00043821471969483685,
0.08094763092269326,0.014146692711220231,
0.08099750623441397,-0.011440828103143756,
0.08104738154613467,0.003194668200878076,
0.08109725685785536,-0.03687841160190798,
0.08114713216957606,0.0015723154219510916,
0.08119700748129675,-0.014277622307456257,
0.08124688279301745,0.00304569190045899,
0.08129675810473816,0.0012955292614954313,
0.08134663341645886,-0.008961188349200275,
0.08139650872817955,-0.025520445558687543,
0.08144638403990025,-0.011256397939473323,
0.08149625935162094,-0.005614026862307972,
0.08154613466334165,0.024332004112466596,
0.08159600997506235,-0.022928854865173588,
0.08164588528678304,-0.027104308441502353,
0.08169576059850374,-0.020024276313953458,
0.08174563591022443,-0.01662108503119348,
0.08179551122194513,0.01107786804134309,
0.08184538653366584,0.00956061231936827,
0.08189526184538654,-0.012350299699162383,
0.08194513715710723,-0.013291078112329605,
0.08199501246882793,0.011655943015400055,
0.08204488778054862,-0.010109110272098997,
0.08209476309226933,-0.016310330588506106,
0.08214463840399003,-0.01028503920800182,
0.08219451371571072,-0.008147983209747316,
0.08224438902743142,-0.001363256844134686,
0.08229426433915212,-0.015157557295161578,
0.08234413965087282,-0.02431751980373494,
0.08239401496259352,-0.00017726899219939682,
0.08244389027431422,-0.01517375368011875,
0.08249376558603491,-0.021975519581835197,
0.08254364089775561,-0.02983741055512788,
0.0825935162094763,-0.021678412954830077,
0.08264339152119701,-0.005829239164429633,
0.08269326683291771,0.010852269255499444,
0.0827431421446384,-0.009553658206840988,
0.0827930174563591,0.0022814944725925955,
0.0828428927680798,-0.013172907909829992,
0.0828927680798005,-0.0063649259865116,
0.0829426433915212,-0.01007531773790643,
0.0829925187032419,-0.02273974361509909,
0.08304239401496259,-0.007816872669618048,
0.08309226932668329,-0.01151241956139646,
0.08314214463840398,0.009971420018929696,
0.0831920199501247,0.00487534294687258,
0.08324189526184539,-0.008039325401293006,
0.08329177057356608,-0.005497516297446734,
0.08334164588528678,-0.020590914699872547,
0.08339152119700748,-0.002506702199871971,
0.08344139650872819,0.004497331160866029,
0.08349127182044888,-0.007661937906457435,
0.08354114713216958,0.006782890579966786,
0.08359102244389027,-0.02166725974022729,
0.08364089775561097,0.01084691880052006,
0.08369077306733166,-0.015022854793310699,
0.08374064837905237,0.01686253356153265,
0.08379052369077307,0.02305553398726905,
0.08384039900249377,-0.04944194945623577,
0.08389027431421446,0.0023614229529542764,
0.08394014962593516,-0.0033232531053021992,
0.08399002493765587,-0.02432705986865629,
0.08403990024937656,0.002067569051439889,
0.08408977556109726,-0.002509604796177541,
0.08413965087281795,-0.03292142994608323,
0.08418952618453865,0.0014969932467322755,
0.08423940149625936,-0.020403773898865114,
0.08428927680798005,-0.021009368170752954,
0.08433915211970075,-0.023319114225404024,
0.08438902743142145,-0.010610662022262185,
0.08443890274314214,-0.0022303580110382137,
0.08448877805486284,-0.021635210021625075,
0.08453865336658355,-0.029011469744827607,
0.08458852867830424,-0.03886858731298662,
0.08463840399002494,-0.007979878356131289,
0.08468827930174563,-0.008595657569919656,
0.08473815461346633,-0.02151009692875317,
0.08478802992518704,-0.00018340533656512926,
0.08483790523690773,-0.0020242260622708626,
0.08488778054862843,-0.014994516864608225,
0.08493765586034913,-0.029720616428544407,
0.08498753117206982,0.0021870670772086917,
0.08503740648379052,-0.037263910156555516,
0.08508728179551123,-0.024724937028431683,
0.08513715710723192,-0.006486753595051045,
0.08518703241895262,-0.027936111217893807,
0.08523690773067331,-0.0212105554461435,
0.08528678304239401,0.003114984794484901,
0.08533665835411472,-0.008402343295214419,
0.08538653366583542,0.01075521809550816,
0.08543640897755611,-0.0307594277583513,
0.0854862842892768,-0.007222774906167346,
0.0855361596009975,-0.01882760923466688,
0.0855860349127182,-0.0329481069102233,
0.08563591022443891,-0.01967478142523882,
0.0856857855361596,-0.037171068617800736,
0.0857356608478803,-0.011321226180455213,
0.085785536159601,-0.00995504826972711,
0.08583541147132169,-0.027063951008125902,
0.0858852867830424,0.01560050232439571,
0.0859351620947631,-0.016034378753124662,
0.08598503740648379,-0.020208855780049866,
0.08603491271820449,-0.020993522045181456,
0.08608478802992518,0.0012225040343415376,
0.08613466334164588,-0.0011990639703981926,
0.08618453865336659,-0.007221632838481725,
0.08623441396508728,-0.01600524870653359,
0.08628428927680798,-0.0356288942520591,
0.08633416458852868,-0.009029828204131639,
0.08638403990024937,-0.008375198112781373,
0.08643391521197008,0.000938394775551403,
0.08648379052369078,0.025577213870705683,
0.08653366583541147,-0.019713117218141896,
0.08658354114713217,0.010969407271148719,
0.08663341645885286,0.01765471704370767,
0.08668329177057357,-0.04469695121433049,
0.08673316708229427,-0.02488596655566525,
0.08678304239401496,-0.0036508990197134314,
0.08683291770573566,-0.007965455631484226,
0.08688279301745636,0.006671477920434169,
0.08693266832917705,-0.01989106900705414,
0.08698254364089776,0.020901333229491344,
0.08703241895261846,-0.012697345267826928,
0.08708229426433915,-0.017581347822459747,
0.08713216957605985,0.007348950012056549,
0.08718204488778054,-0.01739839169968118,
0.08723192019950125,-0.020369749867440994,
0.08728179551122195,-0.017550561594862915,
0.08733167082294264,-0.002497703411012325,
0.08738154613466334,0.0047334239752544575,
0.08743142144638404,0.01679128363624584,
0.08748129675810473,-0.01049316315930955,
0.08753117206982544,0.031558852241166016,
0.08758104738154614,0.018179624545047356,
0.08763092269326683,0.01559860153450747,
0.08768079800498753,0.00019017506375499033,
0.08773067331670822,0.00296728868580511,
0.08778054862842893,0.0025310294663653775,
0.08783042394014963,-0.004862798697321119,
0.08788029925187033,-0.002933284345712954,
0.08793017456359102,-0.02648330088210341,
0.08798004987531172,0.004507212245201755,
0.08802992518703241,-0.016236112692435127,
0.08807980049875312,-0.02127906893751222,
0.08812967581047382,0.014345748958292898,
0.08817955112219451,-0.0006902079882891484,
0.08822942643391521,-0.0023556408039651566,
0.0882793017456359,0.0234470155564761,
0.08832917705735661,0.008450599269722308,
0.08837905236907731,0.00017527830888782283,
0.088428927680798,0.019471539789978846,
0.0884788029925187,0.00896296344936974,
0.0885286783042394,-0.00734182332236422,
0.0885785536159601,0.00226853803409719,
0.0886284289276808,0.01730886175982153,
0.0886783042394015,0.005253134533008666,
0.0887281795511222,-0.011906045355648494,
0.08877805486284289,0.017730452464828513,
0.08882793017456359,0.0006763945702819036,
0.0888778054862843,-0.0005749921220975667,
0.08892768079800499,0.017246015064589355,
0.08897755610972569,0.011665361153982323,
0.08902743142144638,0.0003009767715112426,
0.08907730673316708,0.028752224418639935,
0.08912718204488779,0.02276442513993139,
0.08917705735660848,-0.020402590574933956,
0.08922693266832918,-0.01055320864781512,
0.08927680798004987,0.027887431637998006,
0.08932668329177057,0.018108530155489418,
0.08937655860349127,0.040314183481853935,
0.08942643391521198,0.016700209354256663,
0.08947630922693267,0.015852036661601406,
0.08952618453865337,0.009488127546743672,
0.08957605985037406,0.020525193798440155,
0.08962593516209476,0.000991589345570718,
0.08967581047381547,-0.016651026735894282,
0.08972568578553616,-0.0034924551453571293,
0.08977556109725686,-0.026196352249811056,
0.08982543640897755,9.207377110934979e-05,
0.08987531172069825,0.04561057032195902,
0.08992518703241895,0.021674242951648708,
0.08997506234413966,0.004800068585360905,
0.09002493765586035,0.0015062528729732506,
0.09007481296758105,0.01376317711889842,
0.09012468827930174,0.03556241738146179,
0.09017456359102244,0.02684591337929769,
0.09022443890274315,0.0177067916713909,
0.09027431421446384,0.017786471994728402,
0.09032418952618454,-0.01506077553648523,
0.09037406483790524,0.015236518873359821,
0.09042394014962593,0.009273837260725153,
0.09047381546134663,0.0014047514775613196,
0.09052369077306734,0.018541364430655564,
0.09057356608478803,0.038722532200575525,
0.09062344139650873,0.017380448226499326,
0.09067331670822942,-0.004954256605103565,
0.09072319201995012,0.023949875862953544,
0.09077306733167083,0.039047946133877035,
0.09082294264339152,0.025720790597352498,
0.09087281795511222,0.04745235186020042,
0.09092269326683292,0.009912532196000677,
0.09097256857855361,0.02026345517894882,
0.09102244389027432,0.006027150673640725,
0.09107231920199502,0.0018717046774039334,
0.09112219451371571,0.021647145750960595,
0.09117206982543641,0.005819889868036294,
0.0912219451371571,0.010519425541316903,
0.0912718204488778,0.04416963232217208,
0.09132169576059851,0.0428285706863064,
0.0913715710723192,-0.009205124420430002,
0.0914214463840399,0.014126876967227232,
0.0914713216957606,0.05217680604827732,
0.09152119700748129,0.034093322963562975,
0.091571072319202,0.024621634351418398,
0.0916209476309227,0.020222321083787197,
0.09167082294264339,0.013626367742802195,
0.09172069825436409,0.027039184322459196,
0.09177057356608478,0.004071506970133622,
0.09182044887780548,0.041348072945162434,
0.09187032418952619,0.009497752013695385,
0.09192019950124689,0.02798177861563684,
0.09197007481296758,0.02714866501342287,
0.09201995012468828,0.016861136318929028,
0.09206982543640897,0.016773243733900774,
0.09211970074812968,0.024526969099800018,
0.09216957605985038,0.04635468192192657,
0.09221945137157107,0.01766048988894036,
0.09226932668329177,0.01781851699579951,
0.09231920199501246,0.019999315618941776,
0.09236907730673316,0.012239378379088563,
0.09241895261845387,0.031375402740332084,
0.09246882793017457,0.01759539208445492,
0.09251870324189526,0.019479482432810804,
0.09256857855361596,0.028703952519966852,
0.09261845386533665,0.033794347574248824,
0.09266832917705736,0.03561845333210725,
0.09271820448877806,0.010818544291375012,
0.09276807980049875,0.03802069003005715,
0.09281795511221945,0.03241535569326695,
0.09286783042394015,0.024950572355018526,
0.09291770573566084,0.028716256160511936,
0.09296758104738155,0.02946047525766221,
0.09301745635910225,0.049833303981723545,
0.09306733167082294,0.03518909118565783,
0.09311720698254364,0.015519941243382799,
0.09316708229426433,0.0414646932720534,
0.09321695760598504,0.041968073436073776,
0.09326683291770574,0.032899808614439315,
0.09331670822942643,0.04835884193432476,
0.09336658354114713,0.0427294554256077,
0.09341645885286783,0.05951559849110285,
0.09346633416458854,0.040381194712749285,
0.09351620947630923,0.02101437109540114,
0.09356608478802993,0.026897088655111905,
0.09361596009975062,0.03345018511434508,
0.09366583541147132,0.009235567233296608,
0.09371571072319201,0.024935832787217678,
0.09376558603491272,0.029019538736456102,
0.09381546134663342,0.028418304147085877,
0.09386533665835411,0.03334177358980954,
0.09391521197007481,0.01536200168935755,
0.0939650872817955,0.024141930217778246,
0.09401496259351622,-0.0046359196096359585,
0.09406483790523691,0.03204842976738216,
0.09411471321695761,0.04072701030891108,
0.0941645885286783,0.028940170516573785,
0.094214463840399,0.016599517217275386,
0.0942643391521197,0.03593341861993551,
0.0943142144638404,0.022133863016039767,
0.0943640897755611,0.05643790873634978,
0.0944139650872818,0.032915266574600616,
0.09446384039900249,0.03495442049522146,
0.09451371571072319,0.052762393180653885,
0.0945635910224439,0.02051943937163837,
0.09461346633416459,0.03946639954914239,
0.09466334164588529,0.021814239235307765,
0.09471321695760598,0.017033880485196606,
0.09476309226932668,0.014583896770216893,
0.09481296758104737,0.052321512608591,
0.09486284289276808,0.011504037974631768,
0.09491271820448878,0.011486045748163334,
0.09496259351620948,0.02342570528449124,
0.09501246882793017,0.04769596322606606,
0.09506234413965087,0.026839827474557543,
0.09511221945137158,0.048239821835112384,
0.09516209476309227,0.01455850294036553,
0.09521197007481297,0.007645355951926933,
0.09526184538653366,0.044994524984059245,
0.09531172069825436,0.05002690999699824,
0.09536159600997507,0.026422945652811714,
0.09541147132169576,0.02003778638593344,
0.09546134663341646,0.02848067523249557,
0.09551122194513716,0.03806452921573932,
0.09556109725685785,0.03621996866743369,
0.09561097256857855,0.03572500209422014,
0.09566084788029926,0.05835055983875001,
0.09571072319201995,0.025127544284368638,
0.09576059850374065,0.03875223617342329,
0.09581047381546134,0.021063060857742066,
0.09586034912718204,0.02799306926756401,
0.09591022443890275,0.016291994296964568,
0.09596009975062345,0.05380044404862436,
0.09600997506234414,0.008315740344387916,
0.09605985037406484,0.022645875479686318,
0.09610972568578553,0.010868532299994463,
0.09615960099750623,0.011688038686402268,
0.09620947630922694,0.03301830706696614,
0.09625935162094763,0.05546199174615815,
0.09630922693266833,0.04934999258264927,
0.09635910224438902,0.0163308441806887,
0.09640897755610972,0.03264055824043988,
0.09645885286783043,0.0006708039750606375,
0.09650872817955113,0.013946910790743136,
0.09655860349127182,0.02525545034882507,
0.09660847880299252,0.04091653747781601,
0.09665835411471321,0.06090331408469159,
0.09670822942643391,0.005310952907635513,
0.09675810473815462,-0.0030280544938113066,
0.09680798004987531,-0.000317532940433702,
0.09685785536159601,0.030464000532424776,
0.0969077306733167,0.03627638897601326,
0.0969576059850374,0.0018372399147335537,
0.09700748129675811,0.02456178583830477,
0.0970573566084788,0.025867870729537265,
0.0971072319201995,0.025024863769323898,
0.0971571072319202,0.036371864521400094,
0.0972069825436409,0.043572336356035975,
0.09725685785536159,0.014464807481398386,
0.0973067331670823,0.010055629601058515,
0.097356608478803,0.018380558691704532,
0.09740648379052369,0.030838547907405506,
0.09745635910224439,0.02545792756880331,
0.09750623441396508,-0.001961219668892688,
0.09755610972568579,0.0036493322331511823,
0.09760598503740649,0.03176446819753849,
0.09765586034912718,0.02952122483095526,
0.09770573566084788,0.014852134110190013,
0.09775561097256857,0.026309185878087015,
0.09780548628428928,-0.007965990425447066,
0.09785536159600998,0.029759019942378534,
0.09790523690773068,0.03954974632643444,
0.09795511221945137,0.02068505163177479,
0.09800498753117207,-0.0019776117908382115,
0.09805486284289276,0.012312132344159961,
0.09810473815461347,0.032419989509842456,
0.09815461346633417,0.01099910242828036,
0.09820448877805486,0.0006202490179155525,
0.09825436408977556,0.021089353366656724,
0.09830423940149625,-0.01171777662821515,
0.09835411471321696,0.02634538736371203,
0.09840399002493766,0.039377186142591246,
0.09845386533665836,0.00012257316137947658,
0.09850374064837905,0.012049950261600747,
0.09855361596009975,0.018251428059987636,
0.09860349127182044,0.04427025353784826,
0.09865336658354115,0.036911547504423714,
0.09870324189526185,0.012855542241151697,
0.09875311720698254,-0.03026621185398541,
0.09880299251870324,0.028249272073906533,
0.09885286783042393,0.014430750584014173,
0.09890274314214464,0.014583318668636106,
0.09895261845386534,0.014096976199371914,
0.09900249376558604,-0.013963888383601929,
0.09905236907730673,0.012894766455410978,
0.09910224438902743,0.020259202568881113,
0.09915211970074812,0.0325033880856713,
0.09920199501246883,-0.00013435354585369062,
0.09925187032418953,0.0013984522649687662,
0.09930174563591022,0.006090633671244963,
0.09935162094763092,0.002738922057771308,
0.09940149625935162,0.012881260314112221,
0.09945137157107233,-0.0020648715469235093,
0.09950124688279302,-0.0009686085640987678,
0.09955112219451372,-0.007004293345872756,
0.09960099750623441,-0.025757205767254772,
0.09965087281795511,0.01844614726398795,
0.0997007481296758,0.020987351369998932,
0.09975062344139651,0.04062217148503361,
0.09980049875311721,0.02839448301108033,
0.0998503740648379,-0.0015435838496917513,
0.0999002493765586,0.011106390740657382,
0.0999501246882793,0.007222934642068354,
0.1,0.016322760520289806,
0.1000498753117207,-0.012934823174732173,
0.1000997506234414,-0.002271895716598046,
0.10014962593516209,-0.009815934863270363,
0.10019950124688279,0.02448333746166732,
0.1002493765586035,-0.009162991991824769,
0.1002992518703242,0.00474982174206523,
0.10034912718204489,0.01607466055951768,
0.10039900249376559,0.0034878554188399902,
0.10044887780548628,-0.009702402871268823,
0.10049875311720698,-0.014900354821657642,
0.10054862842892769,-0.003309118793838321,
0.10059850374064838,-0.007780784431528681,
0.10064837905236908,-0.015006765109185673,
0.10069825436408977,0.019186450724210984,
0.10074812967581047,-0.014681527388735445,
0.10079800498753118,0.0003807361581023908,
0.10084788029925187,-0.00535477865254137,
0.10089775561097257,-0.01854260731661543,
0.10094763092269327,-0.03311596139385486,
0.10099750623441396,0.01135969426440981,
0.10104738154613466,-0.01287683774559158,
0.10109725685785537,-0.007357199092714913,
0.10114713216957606,0.003749309037229055,
0.10119700748129676,-0.0007246503952094601,
0.10124688279301745,-0.014043851265896894,
0.10129675810473815,0.013152149146795314,
0.10134663341645886,-0.005330602694244376,
0.10139650872817955,0.0056888984967159864,
0.10144638403990025,0.012949100628266923,
0.10149625935162095,-0.013844157791853938,
0.10154613466334164,0.011389213730097042,
0.10159600997506234,0.016063507268808896,
0.10164588528678305,-0.040186899207229586,
0.10169576059850374,-0.0010930470745852492,
0.10174563591022444,0.010875938787162833,
0.10179551122194513,0.0036562610722075594,
0.10184538653366583,-0.029884095451668195,
0.10189526184538654,-0.03183656065769956,
0.10194513715710724,-0.01928517221785817,
0.10199501246882793,0.006502447616524715,
0.10204488778054863,-0.010115228813012453,
0.10209476309226932,-0.04127702322459036,
0.10214463840399003,0.013331505952217045,
0.10219451371571073,-0.008494672800153988,
0.10224438902743142,-0.016578363164902292,
0.10229426433915212,-0.003703894818724916,
0.10234413965087281,-0.030951911787772863,
0.10239401496259351,0.005378378225365493,
0.10244389027431422,-0.021505308627173737,
0.10249376558603492,-0.016672277243345534,
0.10254364089775561,-0.014019706974177145,
0.10259351620947631,-0.0036706105409555186,
0.102643391521197,-0.047268044313530135,
0.10269326683291771,-0.0010892016039954228,
0.10274314214463841,-0.01886352616634288,
0.1027930174563591,-0.0025871550867274176,
0.1028428927680798,0.00897590502775284,
0.1028927680798005,-0.017371407259625857,
0.10294264339152119,0.007601791538039988,
0.1029925187032419,-0.023264124692723424,
0.1030423940149626,0.004591785099711993,
0.10309226932668329,-0.023440337928465033,
0.10314214463840399,-0.006595500706462624,
0.10319201995012468,-0.005131681124356454,
0.10324189526184539,-0.018716780709490313,
0.10329177057356609,-0.008837895044257003,
0.10334164588528678,0.004931060199078883,
0.10339152119700748,-0.03142088063328902,
0.10344139650872818,0.03222740738475411,
0.10349127182044887,-0.014182583520865336,
0.10354114713216958,-0.00111058332723178,
0.10359102244389028,-0.03559546348104348,
0.10364089775561097,-0.012472342229685308,
0.10369077306733167,-0.02826734974520168,
0.10374064837905236,-0.0034948538158864895,
0.10379052369077307,0.0028921368432137436,
0.10384039900249377,0.014745474109012769,
0.10389027431421446,-0.002449247937878804,
0.10394014962593516,-0.023177932278691638,
0.10399002493765586,-0.011526604851288886,
0.10403990024937655,-0.018455018354637504,
0.10408977556109726,-0.0042249391756910264,
0.10413965087281796,-0.026790615479540383,
0.10418952618453865,-0.0023715879673959443,
0.10423940149625935,-0.02949202971452849,
0.10428927680798004,-0.005699732183388679,
0.10433915211970075,-0.029718134570105442,
0.10438902743142145,-0.013255303484946843,
0.10443890274314215,-0.01325447458851626,
0.10448877805486284,-0.015233011765009925,
0.10453865336658354,-0.017034779615740996,
0.10458852867830425,-0.02016875790882316,
0.10463840399002494,-0.018850347454446862,
0.10468827930174564,0.0009162162841552333,
0.10473815461346633,-0.03215997039655993,
0.10478802992518703,0.009081466714183355,
0.10483790523690772,-0.016021858498982855,
0.10488778054862843,-0.014975266793139796,
0.10493765586034913,-0.03852039165542985,
0.10498753117206983,-0.01853851106874213,
0.10503740648379052,-0.0023160563808664637,
0.10508728179551122,-0.01352450696798349,
0.10513715710723193,0.005222181823874241,
0.10518703241895262,-0.005309221498552855,
0.10523690773067332,-0.0007370193419105279,
0.10528678304239401,0.008089766717273194,
0.10533665835411471,-0.007896767156930837,
0.1053865336658354,-0.024403119624816276,
0.10543640897755611,0.01670884414487233,
0.10548628428927681,-0.00900185474386339,
0.1055361596009975,-0.0043483245917111755,
0.1055860349127182,-0.04476347048946257,
0.1056359102244389,0.009616370041071892,
0.10568578553615961,-0.00811861427329735,
0.1057356608478803,-0.005507587298944837,
0.105785536159601,-0.03288771787626395,
0.1058354114713217,-0.01004622928549148,
0.10588528678304239,-0.01874553380971667,
0.10593516209476309,-0.027374858205603533,
0.1059850374064838,-0.026157461985768404,
0.10603491271820449,-0.018336540124057776,
0.10608478802992519,0.0028808960607502807,
0.10613466334164588,0.006042467681303393,
0.10618453865336658,-0.008085925107128359,
0.10623441396508729,-0.016773164625785326,
0.10628428927680798,-0.007034740786431626,
0.10633416458852868,-0.016539493850006165,
0.10638403990024937,-0.011385321802030578,
0.10643391521197007,0.010441889765296149,
0.10648379052369077,0.005814433573773746,
0.10653366583541148,-0.000977103423198484,
0.10658354114713217,0.008224842899847285,
0.10663341645885287,-0.0016129116509677474,
0.10668329177057356,-0.007218054096139227,
0.10673316708229426,-0.02645128236930649,
0.10678304239401497,0.0001329323787808579,
0.10683291770573566,-0.021152093171608828,
0.10688279301745636,-0.012896434728452939,
0.10693266832917706,-0.004851888825406828,
0.10698254364089775,-0.028081315666685248,
0.10703241895261846,0.014909859620797607,
0.10708229426433916,-0.010998871146430785,
0.10713216957605985,-0.022449832088794253,
0.10718204488778055,-0.0008590028143845435,
0.10723192019950124,-0.009717857709408043,
0.10728179551122194,-0.027242803040200242,
0.10733167082294265,0.008416328502408112,
0.10738154613466334,0.00929066493771858,
0.10743142144638404,-0.00016009102301680223,
0.10748129675810474,-0.003809079469937757,
0.10753117206982543,-0.04477073556211089,
0.10758104738154614,0.014555900056763785,
0.10763092269326684,0.0039633072778625655,
0.10768079800498753,-0.007097031176517632,
0.10773067331670823,0.01657887910956327,
0.10778054862842892,0.005726818557742885,
0.10783042394014962,0.03043489959313687,
0.10788029925187033,0.014245167762281501,
0.10793017456359102,-0.0029037853717044123,
0.10798004987531172,0.011651167318288152,
0.10802992518703242,-0.0018495708892156378,
0.10807980049875311,-0.016986302058973623,
0.10812967581047382,0.017459246786200235,
0.10817955112219452,0.006283140277885281,
0.10822942643391521,0.014879718095670503,
0.10827930174563591,-0.012785936578549829,
0.1083291770573566,0.002378015071231036,
0.1083790523690773,0.006533486401467024,
0.10842892768079801,0.027164517819651478,
0.1084788029925187,-0.0011061995247190143,
0.1085286783042394,-0.0018779062556047435,
0.1085785536159601,0.000847042688479579,
0.10862842892768079,0.006962226281910545,
0.1086783042394015,0.018104704392682146,
0.1087281795511222,-0.017869659720383842,
0.1087780548628429,-0.0084816441264751,
0.10882793017456359,0.010581609794557079,
0.10887780548628428,0.0026578981349805065,
0.108927680798005,0.01571476428684674,
0.10897755610972569,0.004401955726328654,
0.10902743142144639,0.001906500201948937,
0.10907730673316708,0.001094823011861,
0.10912718204488778,0.008555426587864396,
0.10917705735660847,-0.0032532504453099314,
0.10922693266832918,0.018710130621749255,
0.10927680798004988,0.00027804651482968464,
0.10932668329177057,0.013709383503464298,
0.10937655860349127,0.010732859262890828,
0.10942643391521197,0.029094980683721162,
0.10947630922693267,0.02837216849905973,
0.10952618453865337,0.0006587917216365254,
0.10957605985037407,-0.01362740333659149,
0.10962593516209476,0.011927786897443738,
0.10967581047381546,0.02192504373908849,
0.10972568578553615,0.0013097032129601172,
0.10977556109725686,0.00515393216346696,
0.10982543640897756,0.02104046084811064,
0.10987531172069825,0.01760528877655206,
0.10992518703241895,0.017751424785897002,
0.10997506234413965,0.003850691163940996,
0.11002493765586036,0.040444768592132946,
0.11007481296758105,0.025352966887173783,
0.11012468827930175,0.007786340656821157,
0.11017456359102244,0.001932512880699483,
0.11022443890274314,-0.0022410926463323835,
0.11027431421446383,0.032185180232281486,
0.11032418952618454,-0.004024331025018934,
0.11037406483790524,0.020826709868802057,
0.11042394014962593,0.030487183343069775,
0.11047381546134663,0.037287018903485666,
0.11052369077306733,-8.275523267068687e-05,
0.11057356608478804,0.024202543711389034,
0.11062344139650873,0.013687368454216425,
0.11067331670822943,0.0023178274091302797,
0.11072319201995012,0.003449955035346959,
0.11077306733167082,0.008566285079685782,
0.11082294264339151,-0.008541607731648727,
0.11087281795511222,-1.3418661512255847e-06,
0.11092269326683292,0.002119385935556037,
0.11097256857855362,0.021402891178701654,
0.11102244389027431,0.03284725079592378,
0.111072319201995,0.015472860558895489,
0.11112219451371572,0.018286416919862533,
0.11117206982543641,0.036281012488924416,
0.11122194513715711,-0.010454802841639,
0.1112718204488778,0.014968478706793277,
0.1113216957605985,0.028049788626921784,
0.11137157107231921,0.010268540910318197,
0.1114214463840399,0.01596910131740768,
0.1114713216957606,0.012133921359646445,
0.1115211970074813,0.022241629339801318,
0.11157107231920199,0.05551811298210246,
0.11162094763092269,0.042703443918311434,
0.1116708229426434,0.023093234254959794,
0.11172069825436409,0.02833338826124405,
0.11177057356608479,0.041311834859963814,
0.11182044887780548,0.01628343649895105,
0.11187032418952618,0.025913790151512243,
0.11192019950124689,0.014076078091012448,
0.11197007481296758,0.005516957370179522,
0.11201995012468828,0.001242031986591688,
0.11206982543640898,0.02432616812690038,
0.11211970074812967,0.03329191042563305,
0.11216957605985037,0.01689639236007931,
0.11221945137157108,0.012227957914304493,
0.11226932668329177,0.053606963507176135,
0.11231920199501247,0.04419703817933669,
0.11236907730673316,0.03298875707226113,
0.11241895261845386,0.013118058209518668,
0.11246882793017457,0.025320269940974766,
0.11251870324189527,0.03557098046288096,
0.11256857855361596,0.011468072687107495,
0.11261845386533666,0.027380340377607965,
0.11266832917705735,-0.006965329010215127,
0.11271820448877805,0.009300084202991742,
0.11276807980049876,0.03216747468966123,
0.11281795511221945,0.059405019108103925,
0.11286783042394015,0.026144941530903656,
0.11291770573566084,0.022182123864345534,
0.11296758104738154,0.014843610536822177,
0.11301745635910225,0.039373930946792,
0.11306733167082295,0.018608230339743202,
0.11311720698254364,0.021364980357742095,
0.11316708229426434,0.05076581478874274,
0.11321695760598503,0.03790596538556522,
0.11326683291770574,0.03131996215219714,
0.11331670822942644,0.030413286013945766,
0.11336658354114713,0.01882525067226781,
0.11341645885286783,0.03400835673160357,
0.11346633416458853,0.019144451281864247,
0.11351620947630922,0.024608058042135086,
0.11356608478802993,0.030813602577985988,
0.11361596009975063,0.03395475038304763,
0.11366583541147132,0.021685661892972163,
0.11371571072319202,0.034332209590447776,
0.11376558603491271,0.01452930719469525,
0.11381546134663342,0.05188316976960741,
0.11386533665835412,0.03452586401734822,
0.11391521197007481,0.034643690394310644,
0.11396508728179551,0.03315271465844384,
0.1140149625935162,0.0389259754870439,
0.1140648379052369,0.005937677147819852,
0.11411471321695761,0.015109289325374389,
0.1141645885286783,0.02480848252072495,
0.114214463840399,0.02377074955398235,
0.1142643391521197,0.03162412264032728,
0.1143142144638404,0.027820927404595727,
0.1143640897755611,0.014646962347847034,
0.1144139650872818,0.03639892731790217,
0.1144638403990025,0.015076800127326383,
0.11451371571072319,0.030864585316634083,
0.11456359102244389,0.05013000238230171,
0.11461346633416458,0.055084343742529324,
0.11466334164588529,0.007077583807884761,
0.11471321695760599,0.02998277600086064,
0.11476309226932668,0.018378167897885316,
0.11481296758104738,0.009091740241276326,
0.11486284289276807,0.02228764319839953,
0.11491271820448878,0.041331125662278416,
0.11496259351620948,0.04437471651960498,
0.11501246882793018,0.020022841296209938,
0.11506234413965087,0.04314322697256938,
0.11511221945137157,0.013432476886151403,
0.11516209476309226,0.014624800713396292,
0.11521197007481297,0.013847411137512328,
0.11526184538653367,0.015665220515190356,
0.11531172069825436,0.05391610851256183,
0.11536159600997506,0.010807580175094703,
0.11541147132169575,0.023969279187203856,
0.11546134663341646,0.0064621888531810265,
0.11551122194513716,0.038525610511954904,
0.11556109725685786,0.01804961730409997,
0.11561097256857855,0.04513687767625604,
0.11566084788029925,0.015306879105207423,
0.11571072319201996,0.0263558067716052,
0.11576059850374065,0.01773212003220035,
0.11581047381546135,0.02231181479544306,
0.11586034912718204,0.028627021056436247,
0.11591022443890274,0.016466649008907083,
0.11596009975062344,0.019808445110047646,
0.11600997506234415,0.047996199562574296,
0.11605985037406484,0.016078172421771224,
0.11610972568578554,0.014599081425580406,
0.11615960099750623,0.007011792582811774,
0.11620947630922693,0.032148927593802126,
0.11625935162094764,0.011626116873096263,
0.11630922693266833,0.01921356071025599,
0.11635910224438903,0.03568178720641325,
0.11640897755610972,0.06763079023661858,
0.11645885286783042,0.004028989860720655,
0.11650872817955112,0.016381400730129943,
0.11655860349127183,0.04394783784949324,
0.11660847880299252,-0.01751741934187312,
0.11665835411471322,0.022597262954094754,
0.11670822942643391,0.04569221296280662,
0.11675810473815461,0.03145916008206151,
0.11680798004987532,0.022825764065412764,
0.11685785536159601,0.02775857821745101,
0.11690773067331671,-0.011521678306893504,
0.1169576059850374,0.0083709402335955,
0.1170074812967581,0.01875757282177351,
0.1170573566084788,0.009418683475533738,
0.1171072319201995,0.01928687702420094,
0.1171571072319202,0.025264300005229993,
0.1172069825436409,0.020189635299267164,
0.1172568578553616,0.015000541046967956,
0.11730673316708229,0.045930335139952,
0.117356608478803,0.03697142212442073,
0.1174064837905237,0.03049702641131081,
0.11745635910224439,0.008164962765262766,
0.11750623441396509,0.014042368393130457,
0.11755610972568578,0.01865056023417346,
0.11760598503740648,0.03308309274793943,
0.11765586034912719,0.016064394599232076,
0.11770573566084788,-0.010414342220317199,
0.11775561097256858,0.025056790848287595,
0.11780548628428927,0.0373251245115945,
0.11785536159600997,0.011346710868157152,
0.11790523690773068,0.014345257849053003,
0.11795511221945137,-0.010098966295248469,
0.11800498753117207,0.03311165607969952,
0.11805486284289277,0.04788064156948919,
0.11810473815461346,0.025368428177759212,
0.11815461346633417,0.04286621338139714,
0.11820448877805487,-0.012693728926922648,
0.11825436408977556,0.005954664199442197,
0.11830423940149626,0.004414624842197189,
0.11835411471321695,0.036273882549972394,
0.11840399002493765,0.02182375434898325,
0.11845386533665836,0.027316499199837106,
0.11850374064837906,0.05827371611211395,
0.11855361596009975,0.020836973995251036,
0.11860349127182045,0.02406099021656409,
0.11865336658354114,0.009982825623809621,
0.11870324189526185,0.006829143734269682,
0.11875311720698255,-0.014030104443251317,
0.11880299251870324,0.00022958757975933934,
0.11885286783042394,0.019429863913280214,
0.11890274314214463,0.03911912035460716,
0.11895261845386533,0.02884900946385833,
0.11900249376558604,-0.007102246474468006,
0.11905236907730674,-0.0050612808495339515,
0.11910224438902743,0.013976681933771008,
0.11915211970074813,0.008877976857392151,
0.11920199501246882,0.010951907301059884,
0.11925187032418953,0.04484167769696825,
0.11930174563591023,0.00639890156095782,
0.11935162094763092,0.00363390619621581,
0.11940149625935162,0.03055132770230197,
0.11945137157107232,0.016391892941266525,
0.11950124688279301,0.005813523547249826,
0.11955112219451372,0.008775682445235355,
0.11960099750623442,0.027802061117643183,
0.11965087281795511,0.004756062353924508,
0.11970074812967581,-0.00444744138518424,
0.1197506234413965,0.016696867514576785,
0.11980049875311721,0.00870453783646815,
0.11985037406483791,-0.002581273136843445,
0.1199002493765586,0.023453375421227107,
0.1199501246882793,0.009115213810727878,
0.12,-0.005768089231988776,
0.1200498753117207,0.02108229471394754,
0.1200997506234414,-0.02109466512012708,
0.1201496259351621,0.0038863521604440374,
0.12019950124688279,0.016740751653261082,
0.12024937655860349,0.006561464411658875,
0.12029925187032418,0.01929874807439913,
0.1203491271820449,-0.002147780719608589,
0.12039900249376559,-0.0010661937967262852,
0.12044887780548628,-0.0034423564173166324,
0.12049875311720698,0.001710244463211556,
0.12054862842892768,0.017509657517996748,
0.12059850374064839,0.003965309262681778,
0.12064837905236908,0.00539596825253584,
0.12069825436408978,-0.030997494240940643,
0.12074812967581047,0.014012986518376819,
0.12079800498753117,0.001130518793171844,
0.12084788029925186,-0.0028371214892301683,
0.12089775561097257,-0.0028330062377251823,
0.12094763092269327,-0.015414139166231884,
0.12099750623441397,0.010195704441323906,
0.12104738154613466,-0.014382940157749404,
0.12109725685785536,0.019051286056836057,
0.12114713216957607,0.012781502444028486,
0.12119700748129676,-0.0003857963996146466,
0.12124688279301746,0.0014253574264397758,
0.12129675810473815,0.010727656574078117,
0.12134663341645885,-0.016488011800639118,
0.12139650872817954,0.00034522141611412985,
0.12144638403990025,-0.010892620090674866,
0.12149625935162095,0.001948268527979185,
0.12154613466334165,-0.01538465046262964,
0.12159600997506234,-0.011482531301604024,
0.12164588528678304,0.007632572858572086,
0.12169576059850375,0.01178015529794192,
0.12174563591022444,0.007207000241538081,
0.12179551122194514,-0.029600235972900735,
0.12184538653366583,-0.008067270739902651,
0.12189526184538653,0.00659589648413232,
0.12194513715710723,-0.0022833800501700047,
0.12199501246882793,-0.008396502089393191,
0.12204488778054863,0.0034523798630917476,
0.12209476309226933,0.01254095205055695,
0.12214463840399002,-0.0128028097374502,
0.12219451371571072,0.011049946759239917,
0.12224438902743143,-0.013952270804002659,
0.12229426433915212,0.006932140257742537,
0.12234413965087282,0.010231253745484288,
0.12239401496259351,-0.0009161618259416202,
0.12244389027431421,-0.006090918595463811,
0.12249376558603492,0.001534494129422045,
0.12254364089775562,0.004504289898550853,
0.12259351620947631,0.00033739426437061175,
0.122643391521197,-0.020936575993210797,
0.1226932668329177,-0.006109063822535454,
0.1227431421446384,0.0012428292025067067,
0.12279301745635911,-0.024030661336427554,
0.1228428927680798,-0.03066038511529709,
0.1228927680798005,-0.02389047968785836,
0.1229426433915212,-0.007573854827828917,
0.12299251870324189,-0.010860300999639798,
0.1230423940149626,-0.022947124037258064,
0.1230922693266833,-0.015805692906482323,
0.12314214463840399,-0.004146159711085375,
0.12319201995012469,-0.0005302923929999918,
0.12324189526184538,0.0017592434706518705,
0.12329177057356608,-0.016199044649005907,
0.12334164588528679,-0.021950049545577686,
0.12339152119700748,-0.014140889746507134,
0.12344139650872818,-0.014295437724238039,
0.12349127182044888,-0.009009324405437946,
0.12354114713216957,0.0017221080006014286,
0.12359102244389028,-0.009306466992080936,
0.12364089775561098,-0.005156563540545781,
0.12369077306733167,-0.03496798765343141,
0.12374064837905237,-0.002994881560451937,
0.12379052369077306,-0.023516497343591,
0.12384039900249376,-0.020906197127511895,
0.12389027431421447,-0.0261964438470629,
0.12394014962593516,-0.01769910075722999,
0.12399002493765586,-0.03161622088423678,
0.12403990024937656,-0.02545272233154299,
0.12408977556109725,0.006518298163201869,
0.12413965087281796,0.007081460243080316,
0.12418952618453866,-0.013552139798780182,
0.12423940149625935,-0.02337643434054095,
0.12428927680798005,-0.015724565901124817,
0.12433915211970074,-0.009519625237992796,
0.12438902743142144,-0.016145381903799896,
0.12443890274314215,-0.010529979146188126,
0.12448877805486284,-0.01063742501764018,
0.12453865336658354,0.02214063330191674,
0.12458852867830424,0.0037938941676917207,
0.12463840399002493,-0.009300640739506273,
0.12468827930174564,-0.03350286645970847,
0.12473815461346634,-0.012708025565084042,
0.12478802992518703,-0.0005673006169749726,
0.12483790523690773,-0.012515656648276832,
0.12488778054862842,-0.008540925395503223,
0.12493765586034913,-0.028995275588127603,
0.12498753117206983,-0.016905650140463965,
0.12503740648379053,-0.003167370722912552,
0.12508728179551123,0.016335465544123906,
0.12513715710723192,-0.020294555355423,
0.12518703241895263,-0.0045498769510556505,
0.1252369077306733,-0.025697065022582014,
0.12528678304239402,-0.02250038427063708,
0.1253366583541147,0.01869750907010568,
0.1253865336658354,-0.014173603043966176,
0.12543640897755612,-0.007165444469529892,
0.1254862842892768,-0.0007748050382939426,
0.1255361596009975,-0.010650338318543425,
0.1255860349127182,-0.03798372093218533,
0.1256359102244389,-0.004933788539069981,
0.1256857855361596,-0.01351974881069113,
0.1257356608478803,-0.011600840801960992,
0.125785536159601,-0.0024111474154498054,
0.12583541147132168,-0.01697131852892879,
0.1258852867830424,-0.001330968912901363,
0.1259351620947631,0.002717645041319522,
0.12598503740648379,-0.03148799212223743,
0.1260349127182045,-0.021879607376370045,
0.12608478802992518,-0.0014629092586114101,
0.1261346633416459,-0.005917313472958999,
0.1261845386533666,0.01725267377548176,
0.12623441396508728,-0.011608499445247555,
0.126284289276808,-0.018524602342563104,
0.12633416458852867,-0.032791815934402224,
0.12638403990024938,-0.022013588719046552,
0.1264339152119701,0.006032847942399408,
0.12648379052369077,-0.025965285958534985,
0.12653366583541148,0.004213377317147838,
0.12658354114713216,0.001251634830214416,
0.12663341645885287,-0.009629793680667638,
0.12668329177057355,0.005423736303853887,
0.12673316708229426,-0.024295015270596382,
0.12678304239401497,-0.009234568458120833,
0.12683291770573565,0.020210714894145727,
0.12688279301745636,-0.0060076129927646585,
0.12693266832917705,-0.004472509525072152,
0.12698254364089775,-0.013821768701810346,
0.12703241895261846,-0.008088662029247753,
0.12708229426433915,-0.003009097928652304,
0.12713216957605986,-0.03177088475767297,
0.12718204488778054,-0.016818977588364682,
0.12723192019950125,0.0022687232690955274,
0.12728179551122196,-0.018478705039080986,
0.12733167082294264,0.008937482091592133,
0.12738154613466335,0.00039782945593793513,
0.12743142144638403,-0.03763449394834259,
0.12748129675810474,-0.0016264168164572587,
0.12753117206982545,0.019842941439346513,
0.12758104738154613,0.014632992474263402,
0.12763092269326684,0.003140087035917599,
0.12768079800498752,0.010986703169600705,
0.12773067331670823,-0.007899056814146058,
0.1277805486284289,0.03269370382828599,
0.12783042394014962,-0.01662224037640251,
0.12788029925187033,0.02026124258570835,
0.12793017456359101,-0.004501529670441002,
0.12798004987531172,-0.001548113669183818,
0.1280299251870324,-0.027375159980653138,
0.12807980049875312,0.006209427072611882,
0.12812967581047383,0.020851391492472386,
0.1281795511221945,0.011156559148120575,
0.12822942643391522,-0.022362095527053833,
0.1282793017456359,0.0071134670936256065,
0.1283291770573566,0.004381473906414687,
0.12837905236907732,0.008476089235972845,
0.128428927680798,0.0025931622079429094,
0.1284788029925187,0.01816207531840902,
0.1285286783042394,0.0003281454209831834,
0.1285785536159601,0.0015658748071879047,
0.1286284289276808,0.0017473286812460377,
0.1286783042394015,0.010373362248667656,
0.1287281795511222,0.015560005334406405,
0.12877805486284288,0.0007819128750111435,
0.1288279301745636,-0.003926874882043378,
0.1288778054862843,0.01047348721080571,
0.12892768079800498,0.0022233115856148834,
0.1289775561097257,0.012461810781423322,
0.12902743142144638,0.024650510673214377,
0.12907730673316709,0.0005262123229600423,
0.12912718204488777,0.01115978068826418,
0.12917705735660848,0.011330510678980775,
0.1292269326683292,0.0325045150357894,
0.12927680798004987,0.012188025383680547,
0.12932668329177058,0.008875198850565742,
0.12937655860349126,-0.015195593831690933,
0.12942643391521197,-0.018993675865888834,
0.12947630922693268,-0.0058489124456025075,
0.12952618453865336,0.01944738139710406,
0.12957605985037407,0.012218311475288422,
0.12962593516209475,0.010877376910372896,
0.12967581047381546,0.03013674531666459,
0.12972568578553617,-0.0023282591303206944,
0.12977556109725685,0.004656545496528013,
0.12982543640897756,0.014653361092724335,
0.12987531172069824,-0.003169800900556425,
0.12992518703241895,0.02131384486984611,
0.12997506234413966,0.012780483588036635,
0.13002493765586035,0.016396920615317744,
0.13007481296758105,0.007116262864840399,
0.13012468827930174,0.012502318911614987,
0.13017456359102245,0.00878659686643115,
0.13022443890274316,0.02494424406305142,
0.13027431421446384,0.015565908646403054,
0.13032418952618455,0.00852273175625361,
0.13037406483790523,0.012516299443989532,
0.13042394014962594,0.02916421788035005,
0.13047381546134662,0.013217723881001625,
0.13052369077306733,0.03455822971917972,
0.13057356608478804,0.03169536304731506,
0.13062344139650872,0.003027991398650995,
0.13067331670822943,0.004739327990170775,
0.1307231920199501,0.039770192472098106,
0.13077306733167082,0.05519251851706714,
0.13082294264339153,-0.00515371212140886,
0.13087281795511221,-0.003239431776803997,
0.13092269326683292,0.009299076423205568,
0.1309725685785536,0.025745832127687926,
0.13102244389027431,0.03965257159659679,
0.13107231920199502,0.03074145435013798,
0.1311221945137157,-0.01404311689167052,
0.13117206982543642,0.025161212506046304,
0.1312219451371571,0.03798428661796419,
0.1312718204488778,0.017004518123027088,
0.13132169576059852,0.018542643956507447,
0.1313715710723192,0.022321069020120664,
0.1314214463840399,0.04200393579926889,
0.1314713216957606,0.04570762794083659,
0.1315211970074813,0.034812702358466965,
0.13157107231920198,0.023197950104204463,
0.1316209476309227,0.04458064486090572,
0.1316708229426434,0.038887691150023364,
0.13172069825436408,0.019765697944375018,
0.1317705735660848,0.02249555491410761,
0.13182044887780547,0.0237664915766251,
0.13187032418952618,0.019984077751210375,
0.1319201995012469,0.039950238109166085,
0.13197007481296757,0.02445584902864627,
0.13201995012468828,0.00860091611344465,
0.13206982543640897,0.018758645466701383,
0.13211970074812968,0.05397044029541283,
0.13216957605985039,0.053380818008085355,
0.13221945137157107,0.05509245733579175,
0.13226932668329178,0.04139218122319572,
0.13231920199501246,0.022654811121765137,
0.13236907730673317,0.0367157926279681,
0.13241895261845388,0.0315732495753621,
0.13246882793017456,0.025964988642250556,
0.13251870324189527,0.010341570191283296,
0.13256857855361595,0.04355607106214038,
0.13261845386533666,0.031655829614098345,
0.13266832917705737,0.04354807194820512,
0.13271820448877805,0.04555079460367761,
0.13276807980049876,0.022541909029884902,
0.13281795511221944,0.06066280918053729,
0.13286783042394015,0.033463875535992615,
0.13291770573566083,0.036489545840193635,
0.13296758104738154,0.015483801871622481,
0.13301745635910225,0.026195692245377458,
0.13306733167082294,0.014063294691395202,
0.13311720698254365,0.03122485761042067,
0.13316708229426433,0.0017383520683352804,
0.13321695760598504,0.022432731158483828,
0.13326683291770575,0.03856775841206257,
0.13331670822942643,0.03434625876368675,
0.13336658354114714,0.03653064995164232,
0.13341645885286782,0.025667988275736537,
0.13346633416458853,0.020382053481329845,
0.13351620947630924,0.024047842764448935,
0.13356608478802992,-0.0014429053763595386,
0.13361596009975063,0.025994152813268848,
0.1336658354114713,0.03629507011322127,
0.13371571072319202,0.04051218706486196,
0.13376558603491273,0.017052887263771778,
0.1338154613466334,0.007912733195391996,
0.13386533665835412,0.026881624632122583,
0.1339152119700748,0.027043672028440824,
0.13396508728179551,0.03080231870477001,
0.1340149625935162,0.02789055012104846,
0.1340648379052369,0.04778493350134113,
0.13411471321695762,0.04211645377206467,
0.1341645885286783,0.024493079324528516,
0.134214463840399,0.011721177678492328,
0.1342643391521197,0.012468494929779115,
0.1343142144638404,0.0033240328200848344,
0.1343640897755611,0.034780740745746795,
0.1344139650872818,0.012641105809191644,
0.1344638403990025,0.015289772607781178,
0.13451371571072318,0.04246300000670718,
0.1345635910224439,0.03433838793645921,
0.1346134663341646,0.026738149206527402,
0.13466334164588528,0.052929370714490845,
0.134713216957606,0.03422030829793618,
0.13476309226932667,0.04039994909391827,
0.13481296758104738,0.04288813567094718,
0.1348628428927681,0.026195392539661654,
0.13491271820448877,0.007337116977659444,
0.13496259351620948,0.012742184171192113,
0.13501246882793017,0.046951411862973524,
0.13506234413965088,0.013215336400026284,
0.13511221945137158,0.03191542742926629,
0.13516209476309227,0.03771873310669646,
0.13521197007481298,0.031215195986785915,
0.13526184538653366,0.028067623302002236,
0.13531172069825437,0.017907206114185725,
0.13536159600997505,0.047789382536791804,
0.13541147132169576,0.04131861631536657,
0.13546134663341647,0.02763519305167349,
0.13551122194513715,0.023015804699701478,
0.13556109725685786,0.031722508887872335,
0.13561097256857854,0.061563051824780404,
0.13566084788029925,0.018280462396679794,
0.13571072319201996,0.029477395672959133,
0.13576059850374064,0.05020184310045062,
0.13581047381546135,0.032334948657136924,
0.13586034912718203,0.0477212906513164,
0.13591022443890274,-0.007752998874628603,
0.13596009975062345,0.029411090200639034,
0.13600997506234414,0.023353461433871386,
0.13605985037406484,0.01254395032085967,
0.13610972568578553,0.008278352878084014,
0.13615960099750624,0.015315886992846719,
0.13620947630922695,0.0027856624339592205,
0.13625935162094763,0.03750066265237345,
0.13630922693266834,0.024950014507555202,
0.13635910224438902,0.02192598187285063,
0.13640897755610973,0.04840338425741549,
0.1364588528678304,0.010899326312224893,
0.13650872817955112,0.030466544553182685,
0.13655860349127183,0.04273615719549176,
0.1366084788029925,0.013476925373274775,
0.13665835411471322,0.016621865118424246,
0.1367082294264339,0.0009275470527693973,
0.1367581047381546,0.0441427817972688,
0.13680798004987532,0.017126096105736514,
0.136857855361596,0.023081389847491807,
0.1369077306733167,0.019137351610432063,
0.1369576059850374,0.03781037601232577,
0.1370074812967581,0.02978395407964444,
0.13705735660847881,0.01346591260234716,
0.1371072319201995,0.027061688850717004,
0.1371571072319202,0.032779986317952654,
0.1372069825436409,0.002885321244216626,
0.1372568578553616,0.01377380226588628,
0.1373067331670823,0.006950053935731356,
0.137356608478803,0.004729737080054246,
0.1374064837905237,0.03468027305703397,
0.13745635910224438,0.02322316465874907,
0.1375062344139651,0.03938186789320124,
0.1375561097256858,0.025990029128736408,
0.13760598503740648,0.009201634831544566,
0.1376558603491272,0.019878292179893987,
0.13770573566084787,0.03488624094667184,
0.13775561097256858,0.018899271065110447,
0.13780548628428926,0.02909182270151221,
0.13785536159600997,0.00986907309320751,
0.13790523690773068,0.0013709267580097016,
0.13795511221945136,0.03236410169906686,
0.13800498753117207,0.0580839670862366,
0.13805486284289276,0.025139115850933952,
0.13810473815461347,0.029744244195402496,
0.13815461346633418,0.017474150390683677,
0.13820448877805486,0.013273453011176679,
0.13825436408977557,0.03794994313086799,
0.13830423940149625,0.025126744788376953,
0.13835411471321696,0.026410119879421906,
0.13840399002493767,-0.00839253611916422,
0.13845386533665835,0.023399738199272192,
0.13850374064837906,0.009439552461653854,
0.13855361596009974,0.011052563332128007,
0.13860349127182045,0.007173386494028867,
0.13865336658354116,-0.0036565470515999843,
0.13870324189526184,0.014484880971397458,
0.13875311720698255,0.0009294248564102464,
0.13880299251870323,0.029590265321686113,
0.13885286783042394,0.0190217954331933,
0.13890274314214462,0.01784337881261827,
0.13895261845386533,0.011400410788779267,
0.13900249376558604,-0.004213897850168204,
0.13905236907730673,0.014933674002639534,
0.13910224438902744,0.042110198584436334,
0.13915211970074812,0.002677263110997757,
0.13920199501246883,0.014511263704789132,
0.13925187032418954,0.008633924326383713,
0.13930174563591022,-0.00947068722580621,
0.13935162094763093,0.014792126979406165,
0.1394014962593516,-0.00162492220335614,
0.13945137157107232,0.004300291524118227,
0.13950124688279303,0.0003581435367570208,
0.1395511221945137,0.008749471293445485,
0.13960099750623442,-0.011693246860788294,
0.1396508728179551,0.01860518797406066,
0.1397007481296758,-0.013131845066256554,
0.13975062344139652,-0.0071669685083419685,
0.1398004987531172,0.028169889183228644,
0.1398503740648379,0.007361600678442183,
0.1399002493765586,0.03281722596952329,
0.1399501246882793,0.004389856497553071,
0.14,0.0168856802669038,
0.1400498753117207,-0.030772825631382474,
0.1400997506234414,0.0030398940059378665,
0.1401496259351621,-0.03153734481520116,
0.1401995012468828,0.011506692856135266,
0.14024937655860348,0.00463895356535493,
0.1402992518703242,-0.007792232825607142,
0.1403491271820449,0.0017383127636744497,
0.14039900249376558,-0.004534408465537481,
0.1404488778054863,0.010912166113499905,
0.14049875311720697,-0.010656080201810268,
0.14054862842892768,-0.033475394201906365,
0.1405985037406484,0.020872329541982166,
0.14064837905236907,-0.011661166391304557,
0.14069825436408978,0.027228509100904297,
0.14074812967581046,-0.009717646452396022,
0.14079800498753117,-0.01100466277459243,
0.14084788029925188,0.009317614807408444,
0.14089775561097256,0.01677343421791993,
0.14094763092269327,0.007958426812114207,
0.14099750623441396,-0.007331263553733262,
0.14104738154613466,-0.01355821841969049,
0.14109725685785537,-0.017705994261738155,
0.14114713216957606,0.025536520006937607,
0.14119700748129677,-0.019071447240432568,
0.14124688279301745,-0.018108301832039615,
0.14129675810473816,-0.014283588445925673,
0.14134663341645887,0.01962840057937932,
0.14139650872817955,-0.0132122675016261,
