time,amplitude,label
0.0,0.0005985374321725071,
4.987531172069826e-05,-0.013032724155334331,
9.975062344139652e-05,-0.006241754496988654,
0.00014962593516209475,-0.008173841974299089,
0.00019950124688279303,0.005571599855333248,
0.00024937655860349125,0.0057883495928457976,
0.0002992518703241895,-0.011471425823241989,
0.00034912718204488776,-0.007562687638184401,
0.00039900249376558606,-0.014585990688815883,
0.0004488778054862843,0.007367130207746657,
0.0004987531172069825,-0.02038117486886174,
0.0005486284289276808,-0.02449130721266289,
0.000598503740648379,-0.04316979101738334,
0.0006483790523690773,-0.011674979260100589,
0.0006982543640897755,-0.03221278797138216,
0.0007481296758104738,-0.004380088523229669,
0.0007980049875311721,-0.038569388733703844,
0.0008478802992518703,0.009039794223588082,
0.0008977556109725686,0.002291165638332539,
0.0009476309226932668,-0.004402626743607438,
0.000997506234413965,-0.02606259851289858,
0.0010473815461346633,0.0030741485422659774,
0.0010972568578553616,-0.01355388605590312,
0.00114713216957606,0.010055441841998372,
0.001197007481296758,-0.011397952648577124,
0.0012468827930174563,0.013379864204256022,
0.0012967581047381546,-0.03103524056560081,
0.001346633416458853,-0.004131228540718303,
0.001396508728179551,-0.018930362394807304,
0.0014463840399002493,-0.006384747323236888,
0.0014962593516209476,-0.014514952230814615,
0.001546134663341646,-0.04139405212785684,
0.0015960099750623442,0.020321902855847767,
0.0016458852867830423,-0.012037017044195445,
0.0016957605985037406,-0.017310342352359048,
0.001745635910224439,-0.005785305725534953,
0.0017955112219451373,-0.013109638665514295,
0.0018453865336658353,-0.02281066497771106,
0.0018952618453865336,-0.004600654347785846,
0.001945137157107232,-0.036923237587167396,
0.00199501246882793,-0.007286070625908066,
0.0020448877805486283,-0.0036279854911525286,
0.0020947630922693266,-0.002305157031635599,
0.002144638403990025,-0.02426196931929984,
0.0021945137157107233,-0.02579967730242301,
0.0022443890274314216,-0.040313460576309953,
0.00229426433915212,0.0011837841617429838,
0.0023441396508728177,-0.017296415375521866,
0.002394014962593516,5.653325918080279e-06,
0.0024438902743142144,-0.02675234806097327,
0.0024937655860349127,0.014381214987313217,
0.002543640897755611,-0.038547716735134324,
0.0025935162094763093,-0.022061291909456448,
0.0026433915211970076,-0.030636308640032722,
0.002693266832917706,-0.009414218929122392,
0.002743142144638404,0.0019491916242114077,
0.002793017456359102,-0.014926612221367661,
0.0028428927680798004,-0.006238576619896567,
0.0028927680798004987,0.0004268810101023812,
0.002942643391521197,-0.03381269329431997,
0.0029925187032418953,-0.013767394481824857,
0.0030423940149625936,-0.005907321894350141,
0.003092269326683292,0.007377093438816925,
0.00314214463840399,-0.02229150246514313,
0.0031920199501246885,-0.016136131090598516,
0.0032418952618453864,-0.035089681709418015,
0.0032917705735660847,-0.030813435714072798,
0.003341645885286783,-0.011717186617356656,
0.0033915211970074813,-0.009644822616341371,
0.0034413965087281796,-0.01968437153003346,
0.003491271820448878,-0.03475950737283258,
0.003541147132169576,-0.0047541686115905694,
0.0035910224438902745,-0.011263110220217917,
0.0036408977556109724,-0.0009284947678345964,
0.0036907730673316707,-0.023896814711187226,
0.003740648379052369,0.006942020843468379,
0.0037905236907730673,-0.013817254562382399,
0.0038403990024937656,-0.024401233954823784,
0.003890274314214464,-0.029215241278828054,
0.003940149625935162,-0.043887008562358096,
0.00399002493765586,-0.03223664859475362,
0.004039900249376558,-0.0010961016407129744,
0.004089775561097257,-0.02375887584778004,
0.004139650872817955,-0.011849982573093401,
0.004189526184538653,-0.02696926261195933,
0.004239401496259352,-0.006562391012807157,
0.00428927680798005,-0.019857090863502097,
0.004339152119700748,-0.019183066285424735,
0.0043890274314214465,-0.03188934754187743,
0.004438902743142145,0.007825641149187539,
0.004488778054862843,-0.014362427803923343,
0.004538653366583541,-0.022572650182352366,
0.00458852867830424,-0.010427405272105597,
0.004638403990024938,-0.04306066124923426,
0.0046882793017456355,-0.020627469676705455,
0.004738154613466334,-0.017213643308892655,
0.004788029925187032,-0.005375113436525532,
0.00483790523690773,-0.00023692460676737193,
0.004887780548628429,-0.030180372774493838,
0.004937655860349127,-0.020738263342324568,
0.004987531172069825,-0.006464308005079427,
0.005037406483790524,-0.003262480434242737,
0.005087281795511222,-0.018079414820449828,
0.00513715710723192,-0.029199793787301885,
0.0051870324189526185,-0.013608048737155546,
0.005236907730673317,-0.0284595918559975,
0.005286783042394015,-0.0390839104642377,
0.0053366583541147134,-0.020581477684021233,
0.005386533665835412,-0.029658463082122215,
0.00543640897755611,-0.0272887580739175,
0.005486284289276808,-0.01627054031786485,
0.005536159600997507,-0.014017725215090258,
0.005586034912718204,-0.004229670017829902,
0.005635910224438902,0.0019438705478288833,
0.005685785536159601,0.005840966601342434,
0.005735660847880299,-0.029915331494449204,
0.005785536159600997,-0.014856198680477635,
0.005835411471321696,0.0008845584307297233,
0.005885286783042394,-0.0005459279557074211,
0.005935162094763092,-0.0393908788870328,
0.0059850374064837905,-0.01973888274342849,
0.006034912718204489,-0.008003891589105116,
0.006084788029925187,-0.022152438970256927,
0.0061346633416458855,-0.0054180069710126535,
0.006184538653366584,0.028376981813333348,
0.006234413965087282,-0.004704342118478691,
0.00628428927680798,-0.017457805634434734,
0.006334164588528679,-0.011607056810795727,
0.006384039900249377,-0.020121776854335912,
0.006433915211970074,-0.00741540712096668,
0.006483790523690773,-0.05023089720017243,
0.006533665835411471,-0.012038070013865995,
0.006583541147132169,0.00796668528691757,
0.006633416458852868,-0.02189602877942262,
0.006683291770573566,-0.022480566710797904,
0.006733167082294264,-0.012153600572890269,
0.0067830423940149626,-0.02575394038270233,
0.006832917705735661,-0.01371873143262854,
0.006882793017456359,0.008296742235913224,
0.0069326683291770575,-0.006628722290701306,
0.006982543640897756,-0.031201439043075825,
0.007032418952618454,-0.003761761426780313,
0.007082294264339152,0.00880327261099893,
0.007132169576059851,-0.012189774505132003,
0.007182044887780549,-0.033700667026191525,
0.007231920199501247,-0.005377963598487146,
0.007281795511221945,0.013337726446515655,
0.007331670822942643,0.0008308754932425822,
0.007381546134663341,-0.007940719131490512,
0.00743142144638404,-0.028769106199910265,
0.007481296758104738,-0.03261233461919777,
0.007531172069825436,-0.019484547219709245,
0.007581047381546135,-0.012198963115255744,
0.007630922693266833,-0.007452188001910148,
0.007680798004987531,-0.033928584605545015,
0.0077306733167082295,-0.010320368474607293,
0.007780548628428928,0.00205317243820281,
0.007830423940149626,-0.0008538268556366781,
0.007880299251870324,-0.021980890755171456,
0.007930174563591023,-0.017429528695784142,
0.00798004987531172,-0.005452995629578079,
0.00802992518703242,-0.02885072193549757,
0.008079800498753117,-0.019933423974187688,
0.008129675810473816,-0.009931126970900064,
0.008179551122194513,-0.006109983045133513,
0.008229426433915213,-0.029967307734720817,
0.00827930174563591,-0.002187034142250354,
0.00832917705735661,-0.026343003819239517,
0.008379052369077307,-0.007460987828489703,
0.008428927680798006,-0.03246271893654833,
0.008478802992518703,-0.00015720709839756996,
0.0085286783042394,0.0015911000327190694,
0.0085785536159601,-0.011947428537814242,
0.008628428927680797,0.0025152324419582574,
0.008678304239401496,-0.013039723347288439,
0.008728179551122194,0.0014909214757843,
0.008778054862842893,-0.01287715281869201,
0.00882793017456359,-0.0174899261906987,
0.00887780548628429,-0.013277563068080776,
0.008927680798004987,-0.018355606416891136,
0.008977556109725686,-0.004529880740954989,
0.009027431421446384,-0.0179696835115109,
0.009077306733167083,-0.009833981491986025,
0.00912718204488778,-0.003861456642609129,
0.00917705735660848,-0.00560494708887546,
0.009226932668329177,0.017176661888318616,
0.009276807980049876,0.004492317213085763,
0.009326683291770574,0.016648243314813564,
0.009376558603491271,0.008160317581744741,
0.00942643391521197,0.023160926508639684,
0.009476309226932668,0.014940536007374765,
0.009526184538653367,-0.012452329436933985,
0.009576059850374064,-0.0027202959853584695,
0.009625935162094763,0.03637069400884898,
0.00967581047381546,0.021999353344558253,
0.00972568578553616,0.0060192769541144615,
0.009775561097256857,-0.0008779038031923024,
0.009825436408977557,-0.023243108388234613,
0.009875311720698254,0.0008358481871369398,
0.009925187032418953,0.0021259165769715997,
0.00997506234413965,0.003831659009088657,
0.01002493765586035,0.014513241327770975,
0.010074812967581047,0.005654056780200388,
0.010124688279301746,-0.004867576343205372,
0.010174563591022444,0.02774136739533767,
0.010224438902743141,0.0017961058089049384,
0.01027431421446384,-0.0008921394418995119,
0.010324189526184538,-0.0045943422059705205,
0.010374064837905237,0.00234869275463756,
0.010423940149625935,0.042821879619258846,
0.010473815461346634,-0.031534006516959326,
0.010523690773067331,0.015096086058547646,
0.01057356608478803,-0.002691736103887444,
0.010623441396508728,-0.01197829527091494,
0.010673316708229427,0.03718490612872175,
0.010723192019950124,-0.004272362901051048,
0.010773067331670824,0.016156617728647224,
0.010822942643391521,0.01390495566402756,
0.01087281795511222,-0.006955415483035949,
0.010922693266832918,0.030043096711430232,
0.010972568578553617,-0.014876108883304585,
0.011022443890274314,0.04982978541494518,
0.011072319201995013,0.01117387205616694,
0.01112219451371571,0.014147024954608543,
0.011172069825436408,0.024344430644480622,
0.011221945137157107,0.027566831362779792,
0.011271820448877805,0.014930342443440684,
0.011321695760598504,0.0004974345272477192,
0.011371571072319201,0.0237293289635359,
0.0114214463840399,0.009099451412754055,
0.011471321695760598,0.003417069575020547,
0.011521197007481297,0.013060793858603289,
0.011571072319201995,0.0008545051837295179,
0.011620947630922694,0.010316104902013727,
0.011670822942643391,0.021998353867560612,
0.01172069825436409,0.012190648151711742,
0.011770573566084788,-0.015065562581136883,
0.011820448877805487,0.00242053817310906,
0.011870324189526184,0.03234376084082218,
0.011920199501246884,0.013571740125640943,
0.011970074812967581,0.02400457730591772,
0.012019950124688279,0.009549594310196436,
0.012069825436408978,0.021157089959788232,
0.012119700748129675,-0.009330303311790317,
0.012169576059850374,0.005732824864821415,
0.012219451371571072,0.04797051297165905,
0.012269326683291771,0.020816003480771055,
0.012319201995012468,0.006050954660782074,
0.012369077306733168,0.021192902468991866,
0.012418952618453865,0.0028668355798447467,
0.012468827930174564,0.021030566460250547,
0.012518703241895262,0.027456996444491136,
0.01256857855361596,0.01626500280513221,
0.012618453865336658,0.020463876089830243,
0.012668329177057357,0.02899815298912834,
0.012718204488778055,0.031159474555508365,
0.012768079800498754,0.003569059506371687,
0.012817955112219451,0.01500510274262806,
0.012867830423940149,0.0030121157516813536,
0.012917705735660848,0.013909060687938572,
0.012967581047381545,0.007927878597775303,
0.013017456359102245,7.013199834277756e-06,
0.013067331670822942,0.011843964229076845,
0.013117206982543641,0.014208598151787027,
0.013167082294264339,0.01660931688902144,
0.013216957605985038,0.030930623618092835,
0.013266832917705735,0.03949793189981139,
0.013316708229426434,0.017538419589752805,
0.013366583541147132,0.03923958396593966,
0.013416458852867831,0.02324765956609856,
0.013466334164588529,0.012046210695534906,
0.013516209476309228,0.0421033008337381,
0.013566084788029925,0.0023942389106091262,
0.013615960099750624,0.01669542114792087,
0.013665835411471322,0.015036248761071708,
0.01371571072319202,0.008993310870445434,
0.013765586034912718,0.006527323017620811,
0.013815461346633416,0.026588778715384925,
0.013865336658354115,0.0410520697796803,
0.013915211970074812,0.019679365419234048,
0.013965087281795512,0.017006909672367784,
0.014014962593516209,-0.008894144761055395,
0.014064837905236908,0.006635836445145144,
0.014114713216957606,0.035559694750842114,
0.014164588528678305,0.026648122684693226,
0.014214463840399002,0.03099456667396404,
0.014264339152119701,0.06386432734427022,
0.014314214463840399,0.03029383051989604,
0.014364089775561098,0.029383023608206982,
0.014413965087281795,0.019239325053586626,
0.014463840399002495,0.024117227439718506,
0.014513715710723192,0.011235448999223623,
0.01456359102244389,0.007398369716310527,
0.014613466334164589,0.050272773349799765,
0.014663341645885286,0.010214050457635168,
0.014713216957605985,0.019735601412564367,
0.014763092269326683,0.022301134899817058,
0.014812967581047382,-0.023118116691721535,
0.01486284289276808,0.035593617419628326,
0.014912718204488778,0.05640588977857694,
0.014962593516209476,0.049594052855793894,
0.015012468827930175,0.01211550297851545,
0.015062344139650873,0.00986210077356016,
0.015112219451371572,0.013213383647402651,
0.01516209476309227,0.01182993716198206,
0.015211970074812968,0.023749359615623175,
0.015261845386533666,0.021322031909013665,
0.015311720698254365,0.03349147251977097,
0.015361596009975062,0.0042876088696663164,
0.01541147132169576,0.020966832567343177,
0.015461346633416459,0.015989107128671732,
0.015511221945137156,0.02608982712204328,
0.015561097256857856,0.032077791792098034,
0.015610972568578553,0.0416461760746149,
0.015660847880299252,0.02343641272211048,
0.01571072319201995,0.053117738528699644,
0.015760598503740647,0.013453952783493752,
0.015810473815461346,0.03255633293766775,
0.015860349127182045,0.029247664590337535,
0.015910224438902745,0.020390153053190703,
0.01596009975062344,0.026774830465062023,
0.01600997506234414,0.007239355065143194,
0.01605985037406484,0.006367996460685248,
0.016109725685785538,0.05419481342592103,
0.016159600997506234,0.04495718193340728,
0.016209476309226933,0.020002166733160458,
0.016259351620947632,0.019127953683677888,
0.016309226932668328,0.003415852317813224,
0.016359102244389027,-0.006656064664627551,
0.016408977556109726,0.03244672257520277,
0.016458852867830425,0.017307851270320147,
0.01650872817955112,-0.0034140443897979246,
0.01655860349127182,0.021801749957840656,
0.01660847880299252,-0.007433365315747755,
0.01665835411471322,0.017889786213525077,
0.016708229426433914,0.051124280367155134,
0.016758104738154613,0.006666535524693228,
0.016807980049875312,0.03734690731521512,
0.01685785536159601,-0.03023652431017259,
0.016907730673316707,0.024512438403593934,
0.016957605985037406,0.002137697696054576,
0.017007481296758106,0.029493511360642675,
0.0170573566084788,0.02953242796096213,
0.0171072319201995,0.00808562266290462,
0.0171571072319202,0.014447531563587418,
0.0172069825436409,0.028792974718138856,
0.017256857855361595,0.003971119573071816,
0.017306733167082294,0.016973187117261944,
0.017356608478802993,-0.009184969046302303,
0.017406483790523692,0.011399689626480854,
0.017456359102244388,0.014035855542221509,
0.017506234413965087,0.026337406040573004,
0.017556109725685786,-0.002991274387635672,
0.017605985037406485,0.01870713905785906,
0.01765586034912718,0.004223146128912027,
0.01770573566084788,0.015407458146987211,
0.01775561097256858,-0.0034888629326253005,
0.01780548628428928,0.023721593915209765,
0.017855361596009974,0.02901607524642828,
0.017905236907730673,0.012817064416870692,
0.017955112219451373,0.005042446845046143,
0.018004987531172068,0.011029771381588307,
0.018054862842892767,-0.002210067860565025,
0.018104738154613467,0.0009450878699465634,
0.018154613466334166,-0.0035895655219310776,
0.01820448877805486,0.03963300263836413,
0.01825436408977556,0.0026850389436109488,
0.01830423940149626,-0.011205538287399572,
0.01835411471321696,0.009150052656263398,
0.018403990024937655,0.0005530415812447717,
0.018453865336658354,0.0003083596441872871,
0.018503740648379053,0.01340960701761365,
0.018553615960099752,0.016593212004201312,
0.018603491271820448,-0.011744398079293367,
0.018653366583541147,0.001974051880394577,
0.018703241895261846,-0.003928288287758654,
0.018753117206982542,0.029290715027706728,
0.01880299251870324,0.017269072696929635,
0.01885286783042394,0.03737016990634775,
0.01890274314214464,0.02204295862072244,
0.018952618453865335,-0.014933266333179948,
0.019002493765586034,0.03883369813747483,
0.019052369077306733,0.01561517626083166,
0.019102244389027433,0.017097003918615808,
0.01915211970074813,0.0015682774163149138,
0.019201995012468828,0.010361792947311573,
0.019251870324189527,0.0076798806266179945,
0.019301745635910226,0.013544092312604755,
0.01935162094763092,0.02583980006024085,
0.01940149625935162,0.0025917796827906506,
0.01945137157107232,0.02594607057968548,
0.01950124688279302,-0.00034902876775431686,
0.019551122194513715,0.01641604254007236,
0.019600997506234414,0.005319835832217257,
0.019650872817955113,0.021830943217481184,
0.01970074812967581,-0.003945592265402985,
0.019750623441396508,0.015795121101306257,
0.019800498753117207,0.004386163793355058,
0.019850374064837906,-0.025979610235126887,
0.019900249376558602,-0.001346693374650001,
0.0199501246882793,-0.010673636297603262,
0.02,0.018316640939223652,
0.0200498753117207,-0.014545040119098282,
0.020099750623441395,-0.014698675441348256,
0.020149625935162094,-0.008809715902347737,
0.020199501246882794,0.01170984131271915,
0.020249376558603493,-0.020325189041296664,
0.02029925187032419,-0.00027740794831848355,
0.020349127182044888,0.012389187904094236,
0.020399002493765587,-0.017980826725121624,
0.020448877805486283,-0.006531269819222972,
0.02049875311720698,0.01331469194257472,
0.02054862842892768,0.006859757809071137,
0.02059850374064838,0.006413921187594663,
0.020648379052369076,0.017535120881126243,
0.020698254364089775,0.006871554717600601,
0.020748129675810474,-0.016545966842068643,
0.020798004987531173,-0.004494633778884326,
0.02084788029925187,0.0032003975050598566,
0.020897755610972568,0.0044796509607690806,
0.020947630922693267,0.01013763610616243,
0.020997506234413967,-0.005043755614047625,
0.021047381546134662,0.0062629977880726715,
0.02109725685785536,-0.04737757200287585,
0.02114713216957606,0.0014923775599554046,
0.02119700748129676,-0.024384049862863726,
0.021246882793017455,0.00525459197179068,
0.021296758104738155,-0.01290729644695661,
0.021346633416458854,0.0032330797080132607,
0.02139650872817955,-0.021731262861405653,
0.02144638403990025,0.002725561778240102,
0.021496259351620948,-0.023092216128361237,
0.021546134663341647,-0.029302167473842636,
0.021596009975062343,0.010974981416114134,
0.021645885286783042,-0.014981069883139101,
0.02169576059850374,-0.007644032282493347,
0.02174563591022444,-0.008061356395085156,
0.021795511221945136,-0.03360745384044597,
0.021845386533665835,-0.02715206202761262,
0.021895261845386534,0.012241555665853941,
0.021945137157107233,0.012150428921318897,
0.02199501246882793,-0.026972501330058837,
0.02204488778054863,-0.014318404763168539,
0.022094763092269327,-0.02050664914057603,
0.022144638403990027,-0.041451518953331906,
0.022194513715710722,-0.03222217043851422,
0.02224438902743142,-0.028216654528680045,
0.02229426433915212,-0.03739611375935751,
0.022344139650872816,-0.009749860464864996,
0.022394014962593516,-0.0005255138490417102,
0.022443890274314215,-0.002779428470442529,
0.022493765586034914,-0.029024597469760285,
0.02254364089775561,-0.035987922647585116,
0.02259351620947631,-0.027984842240466698,
0.022643391521197008,0.0013154766039090628,
0.022693266832917707,-0.03925581097331423,
0.022743142144638403,-0.020078742728885733,
0.022793017456359102,-0.0105355062400697,
0.0228428927680798,-0.003319643379280573,
0.0228927680798005,0.010528234243468892,
0.022942643391521196,-0.01669938841777512,
0.022992518703241895,0.02964557112036384,
0.023042394014962594,-0.035674727265856715,
0.02309226932668329,-0.008530647532088381,
0.02314214463840399,-0.007535319846264073,
0.02319201995012469,-0.012458502269831091,
0.023241895261845388,-0.030066873410910938,
0.023291770573566083,-0.02713437679590231,
0.023341645885286783,-0.04768639110591347,
0.02339152119700748,-0.039571915652830914,
0.02344139650872818,-0.022608364675459083,
0.023491271820448877,-0.02762808921597816,
0.023541147132169576,-0.052531618739441455,
0.023591022443890275,-0.025834260212210306,
0.023640897755610974,-0.0237725625976236,
0.02369077306733167,-0.00639951890274193,
0.02374064837905237,-0.03637797885593386,
0.023790523690773068,-0.06258452658470094,
0.023840399002493767,-0.045529657237936505,
0.023890274314214463,-0.04974493789886754,
0.023940149625935162,-0.026956578049597883,
0.02399002493765586,-0.04151466385266548,
0.024039900249376557,-0.045839335317209476,
0.024089775561097256,-0.014262338008622585,
0.024139650872817955,-0.020854904399037942,
0.024189526184538655,-0.03740890134741541,
0.02423940149625935,-0.009256018536634549,
0.02428927680798005,-0.025426614666509743,
0.02433915211970075,-0.02523455516343161,
0.024389027431421448,-0.013761909384738886,
0.024438902743142144,-0.00579824025997778,
0.024488778054862843,-0.013965477941331725,
0.024538653366583542,-0.03712408558164927,
0.02458852867830424,-0.004651475312688114,
0.024638403990024937,-0.009649319851936717,
0.024688279301745636,0.005024786174036025,
0.024738154613466335,-0.025408973019642137,
0.02478802992518703,-0.025162038778903925,
0.02483790523690773,-0.01598209992252007,
0.02488778054862843,-0.05127037577521805,
0.02493765586034913,-0.022634106283911125,
0.024987531172069824,-0.022622807474134705,
0.025037406483790523,-0.043894311649107086,
0.025087281795511222,-0.03301539853344015,
0.02513715710723192,-0.03319976867447246,
0.025187032418952617,-0.02146993442815324,
0.025236907730673316,-0.014495735606690503,
0.025286783042394016,-0.022493067411726343,
0.025336658354114715,-0.031281824647227105,
0.02538653366583541,-0.03238330536253558,
0.02543640897755611,-0.027402537786318574,
0.02548628428927681,-0.025393835741584533,
0.025536159600997508,-0.027511438878795633,
0.025586034912718204,-0.02566955996131142,
0.025635910224438903,-0.02038058919510658,
0.025685785536159602,-1.4011071007818954e-05,
0.025735660847880298,0.006931113481025351,
0.025785536159600997,-0.022268392054893588,
0.025835411471321696,-0.02481548959938039,
0.025885286783042395,-0.02226639423847414,
0.02593516209476309,-0.008559697477710963,
0.02598503740648379,-0.03411252597520985,
0.02603491271820449,-0.012687091352977053,
0.02608478802992519,-0.020661351338872393,
0.026134663341645884,-0.010157377211813153,
0.026184538653366583,-0.017978230632338176,
0.026234413965087282,-0.011280601689531475,
0.02628428927680798,-0.018929325222627275,
0.026334164588528677,-0.025780012622534085,
0.026384039900249377,-0.010455509117430865,
0.026433915211970076,-0.021491993404671447,
0.02648379052369077,-0.030954944152670673,
0.02653366583541147,-0.024058974002968924,
0.02658354114713217,0.009056647771010055,
0.02663341645885287,-0.03316011245998324,
0.026683291770573565,-0.021742530717018035,
0.026733167082294264,-0.02136272952549273,
0.026783042394014963,0.0007566523959020924,
0.026832917705735662,-0.014884179572219432,
0.026882793017456358,-0.006010787650825086,
0.026932668329177057,-0.0059067717284908205,
0.026982543640897756,-0.04242193008863189,
0.027032418952618455,-0.029345853040420034,
0.02708229426433915,-0.002791006101050132,
0.02713216957605985,-0.011235043493202647,
0.02718204488778055,-0.04223769767363085,
0.02723192019950125,0.010121198446889003,
0.027281795511221944,-0.022921963573366413,
0.027331670822942643,-0.03773880612792047,
0.027381546134663343,0.0012382019773239522,
0.02743142144638404,-0.014210355620775767,
0.027481296758104738,-0.002788832427130408,
0.027531172069825437,0.013204650202226708,
0.027581047381546136,-0.009771113743651399,
0.02763092269326683,0.007605756598572162,
0.02768079800498753,-0.007916808780471737,
0.02773067331670823,-0.01774901098431559,
0.02778054862842893,0.016014580244271215,
0.027830423940149625,-0.03293813752006167,
0.027880299251870324,-0.010237097691511982,
0.027930174563591023,-0.0010698392425354357,
0.027980049875311722,0.016360266685582242,
0.028029925187032418,-0.011264539886446122,
0.028079800498753117,-0.008265212711617134,
0.028129675810473816,0.003574416069024881,
0.028179551122194512,-0.0017546540873480789,
0.02822942643391521,0.02670878354175472,
0.02827930174563591,0.00855230983586744,
0.02832917705735661,-0.0026963932512338645,
0.028379052369077305,-0.023317919124385134,
0.028428927680798004,-0.006623029567274509,
0.028478802992518704,-0.020977851596073845,
0.028528678304239403,-0.010681321678485352,
0.0285785536159601,-0.0305896991785641,
0.028628428927680798,-0.0172998368798716,
0.028678304239401497,-0.0025166733084722305,
0.028728179551122196,0.028578132234447884,
0.02877805486284289,-0.007081777942491398,
0.02882793017456359,0.014488134523726949,
0.02887780548628429,-0.009903452417547379,
0.02892768079800499,0.009050092337001641,
0.028977556109725685,0.004591997044543954,
0.029027431421446384,-0.03930756536195435,
0.029077306733167083,0.04972276305530399,
0.02912718204488778,-0.0015311171046803462,
0.029177057356608478,0.02252186503340465,
0.029226932668329177,-0.008239380116295176,
0.029276807980049877,-0.02608680112846164,
0.029326683291770572,-0.012600241842049484,
0.02937655860349127,0.012298642317109806,
0.02942643391521197,-0.013447742132711493,
0.02947630922693267,0.02388895817013849,
0.029526184538653365,0.005940806293260403,
0.029576059850374065,0.014069951174544371,
0.029625935162094764,0.0003570441163070603,
0.029675810473815463,0.03278836486019882,
0.02972568578553616,0.0010860919680801434,
0.029775561097256858,0.0325724693664429,
0.029825436408977557,-0.001994298314826535,
0.029875311720698253,0.02339067182768522,
0.029925187032418952,0.010314055601548716,
0.02997506234413965,-0.006698361135217025,
0.03002493765586035,-0.009959710210315633,
0.030074812967581046,0.024686524388813195,
0.030124688279301745,0.0008711274916672861,
0.030174563591022444,0.004476152254148828,
0.030224438902743143,0.015450877377404255,
0.03027431421446384,0.00252649716177941,
0.03032418952618454,0.03198483900266224,
0.030374064837905237,0.010193226264123782,
0.030423940149625937,-0.0014957471390633983,
0.030473815461346632,0.0162554462100766,
0.03052369077306733,0.020889683740337846,
0.03057356608478803,-0.0060343779918546735,
0.03062344139650873,0.0033899202272346367,
0.030673316708229426,0.019573625808308143,
0.030723192019950125,0.029783577362146478,
0.030773067331670824,-0.010609049393502382,
0.03082294264339152,0.022872910670470037,
0.03087281795511222,0.030230639964760123,
0.030922693266832918,0.014126284872791727,
0.030972568578553617,0.008052115551385325,
0.031022443890274313,0.012113069144002212,
0.031072319201995012,0.0075386935529157635,
0.03112219451371571,0.030723656805718966,
0.03117206982543641,0.005710696326102722,
0.031221945137157106,0.031654429458661135,
0.03127182044887781,-0.006680766523454057,
0.031321695760598504,0.00180764717595463,
0.0313715710723192,0.0061081633524215605,
0.0314214463840399,0.017519773824481714,
0.0314713216957606,-0.004920600058159667,
0.031521197007481294,0.00781853125809729,
0.031571072319202,0.027728528850402896,
0.03162094763092269,0.014802194723137565,
0.03167082294264339,0.024363336849459828,
0.03172069825436409,0.024183930411669344,
0.03177057356608479,0.02068794045289339,
0.03182044887780549,0.012212610615807985,
0.031870324189526185,0.037420798688870036,
0.03192019950124688,0.01747195799555714,
0.03197007481296758,0.028287414904185383,
0.03201995012468828,0.013224253223405645,
0.032069825436408975,-0.0034538599373320662,
0.03211970074812968,-0.0079768188788149,
0.03216957605985037,0.016462916266202644,
0.032219451371571076,0.011373888257003657,
0.03226932668329177,0.012109071383065717,
0.03231920199501247,0.026022976757389668,
0.03236907730673317,0.0254467331793865,
0.032418952618453865,0.007330846962496843,
0.03246882793017456,0.011764773177337769,
0.032518703241895264,0.011270903369527182,
0.03256857855361596,0.029109057733312058,
0.032618453865336655,0.005943664364020558,
0.03266832917705736,0.009119801762469041,
0.032718204488778053,0.018234384289977593,
0.032768079800498756,0.0199875182359512,
0.03281795511221945,0.013692503185244754,
0.03286783042394015,-0.01711790632049117,
0.03291770573566085,-0.0018902411097419525,
0.032967581047381546,0.020219960401159538,
0.03301745635910224,0.0158109994588043,
0.033067331670822944,0.03438918723593665,
0.03311720698254364,0.009286722614992048,
0.03316708229426434,0.027758800893437532,
0.03321695760598504,0.02240204624940433,
0.033266832917705734,0.013894439113438,
0.03331670822942644,0.020207309692037066,
0.03336658354114713,-0.004879405267213175,
0.03341645885286783,0.014462287951238741,
0.03346633416458853,0.020116611372396676,
0.033516209476309226,0.013095994902623236,
0.03356608478802992,0.008171628988167829,
0.033615960099750625,0.022017508075196382,
0.03366583541147132,0.02043229345677087,
0.03371571072319202,0.004379839032699624,
0.03376558603491272,0.011186463319246989,
0.033815461346633414,0.013724782493147826,
0.03386533665835412,-0.004643756856694412,
0.03391521197007481,0.004019434185367422,
0.03396508728179551,-0.007368122294466598,
0.03401496259351621,0.031087315368365613,
0.03406483790523691,0.02448288912508946,
0.0341147132169576,0.022510353964496414,
0.034164588528678305,0.016279167318078776,
0.034214463840399,0.059497594291055056,
0.034264339152119704,0.03261136328152818,
0.0343142144638404,0.013173043561874652,
0.034364089775561095,-0.0006733605591635883,
0.0344139650872818,0.02680367023025611,
0.03446384039900249,0.0026351797532968083,
0.03451371571072319,0.004901590998276445,
0.03456359102244389,0.01897719840692111,
0.03461346633416459,0.049423718719549176,
0.03466334164588529,0.026206895453751426,
0.034713216957605986,0.014408990257553572,
0.03476309226932668,0.033132763228848165,
0.034812967581047384,0.019985216244129387,
0.03486284289276808,0.007737497364680206,
0.034912718204488775,0.04003192567143145,
0.03496259351620948,0.03644864012921729,
0.035012468827930174,0.013146672530648155,
0.03506234413965087,0.037246972284936196,
0.03511221945137157,0.02287351012022891,
0.03516209476309227,0.009587436251230175,
0.03521197007481297,0.010349807193952416,
0.035261845386533666,0.03799414346081179,
0.03531172069825436,0.033346321923435715,
0.035361596009975065,0.030397490230730382,
0.03541147132169576,0.031020800745246636,
0.035461346633416456,0.03219758024339155,
0.03551122194513716,0.0019463598002378742,
0.035561097256857854,0.04893605148924266,
0.03561097256857856,0.01761280207305402,
0.03566084788029925,0.04674040115407681,
0.03571072319201995,0.03743349523933251,
0.03576059850374065,-0.005994428066643475,
0.03581047381546135,0.033318283483972255,
0.03586034912718204,0.002069898071312637,
0.035910224438902745,0.006853024623376298,
0.03596009975062344,0.054657520750671214,
0.036009975062344136,0.04332170220386085,
0.03605985037406484,0.03874774085433234,
0.036109725685785535,0.015119493919317988,
0.03615960099750624,0.01912564108228826,
0.03620947630922693,0.014575181584535794,
0.03625935162094763,0.017422887993344176,
0.03630922693266833,0.030285170632275864,
0.03635910224438903,0.02132511725184003,
0.03640897755610972,0.017772703224765752,
0.036458852867830426,-0.01014698911685194,
0.03650872817955112,0.02606656953316594,
0.036558603491271824,0.035020925398502684,
0.03660847880299252,-0.0015723514818592986,
0.036658354114713215,0.023016446309083765,
0.03670822942643392,0.037879259208305774,
0.036758104738154614,0.02279518526745406,
0.03680798004987531,0.013699466163373163,
0.03685785536159601,0.012364019230338464,
0.03690773067331671,0.0011602003115921827,
0.0369576059850374,0.010442501190956553,
0.037007481296758106,0.02037602854729187,
0.0370573566084788,0.034517397425776426,
0.037107231920199504,0.027713968723009564,
0.0371571072319202,0.006389047237206751,
0.037206982543640896,0.009436085618168465,
0.0372568578553616,0.04608731155463819,
0.037306733167082294,0.03282867467898512,
0.03735660847880299,0.00488380064323184,
0.03740648379052369,0.025379191529276535,
0.03745635910224439,0.014710704942924379,
0.037506234413965084,0.005084079600548512,
0.037556109725685786,0.015388710122614743,
0.03760598503740648,0.03313019576475368,
0.037655860349127185,0.0015936073151621866,
0.03770573566084788,-0.007656558874506092,
0.037755610972568576,0.01421442386023982,
0.03780548628428928,-0.0018034077383524746,
0.037855361596009975,0.012676138917952523,
0.03790523690773067,0.009005658463641396,
0.03795511221945137,0.016652720228740866,
0.03800498753117207,0.0260538381757423,
0.03805486284289277,0.005566241375968534,
0.03810473815461347,0.019213458930960024,
0.03815461346633416,-0.004435011615956639,
0.038204488778054865,0.012237886628970449,
0.03825436408977556,-0.0036399065658304815,
0.03830423940149626,0.024889893442783154,
0.03835411471321696,-0.0018974544800770335,
0.038403990024937655,0.023324182076874457,
0.03845386533665835,0.012776330464996736,
0.03850374064837905,0.008257336959852698,
0.03855361596009975,0.013563828815559315,
0.03860349127182045,0.009331112171706863,
0.03865336658354115,0.006698666550613011,
0.03870324189526184,0.012446474232742057,
0.038753117206982546,0.022551340860268734,
0.03880299251870324,0.017300184806711763,
0.03885286783042394,0.01807678073603089,
0.03890274314214464,0.030392238949108787,
0.038952618453865336,0.001701380149686878,
0.03900249376558604,0.0020380596653612982,
0.039052369077306734,0.007102838044576723,
0.03910224438902743,0.016754558799216734,
0.03915211970074813,0.035916577783237445,
0.03920199501246883,-0.018216592275828968,
0.039251870324189524,0.018395862125131442,
0.039301745635910226,0.011365119404405107,
0.03935162094763092,-0.0015065545554343454,
0.03940149625935162,-0.0318123092784458,
0.03945137157107232,-0.0010886526767825066,
0.039501246882793016,0.004174237845845835,
0.03955112219451372,0.03941910069490189,
0.039600997506234414,-0.010640622692147902,
0.03965087281795511,-0.008589969882910999,
0.03970074812967581,0.022332437331324315,
0.03975062344139651,-0.006100292210104235,
0.039800498753117204,-0.01964855761593656,
0.03985037406483791,-0.0029863847188151904,
0.0399002493765586,0.022996117978802685,
0.039950124688279305,-0.0012519677449933184,
0.04,0.004434018636758385,
0.0400498753117207,-0.006900007023925759,
0.0400997506234414,-0.009447217442897598,
0.040149625935162095,0.004899109583900569,
0.04019950124688279,0.0009545308742613125,
0.04024937655860349,-0.0009943409605457107,
0.04029925187032419,-0.01208081795679627,
0.040349127182044885,0.006729400094861825,
0.04039900249376559,-0.013342506993282672,
0.04044887780548628,0.017791291694020286,
0.040498753117206986,-0.024056699729713263,
0.04054862842892768,-0.02920639324423605,
0.04059850374064838,0.002970582171664183,
0.04064837905236908,-0.011071477056314918,
0.040698254364089775,-0.0011270207623532672,
0.04074812967581047,0.005433885274911987,
0.040798004987531174,-0.008860635197524315,
0.04084788029925187,-0.014692555195910355,
0.040897755610972565,0.021150792449977435,
0.04094763092269327,-0.010958199172721507,
0.04099750623441396,0.006112886456889731,
0.041047381546134666,0.0021117376997916073,
0.04109725685785536,-0.023430588547365468,
0.04114713216957606,-0.008245819371913599,
0.04119700748129676,-0.01591398195709652,
0.041246882793017456,-0.02290683574024139,
0.04129675810473815,0.006302417187723853,
0.041346633416458854,-0.01405724850336375,
0.04139650872817955,-0.021097618904313078,
0.04144638403990025,-0.009344577135776957,
0.04149625935162095,0.004772174133472916,
0.041546134663341644,-0.012812267313219642,
0.04159600997506235,0.012261618477054764,
0.04164588528678304,-0.015413293196075558,
0.04169576059850374,-0.010620373825707066,
0.04174563591022444,-0.02322798620293126,
0.041795511221945136,-0.010302676742319212,
0.04184538653366583,-0.012305531573025004,
0.041895261845386535,-0.022800018693686218,
0.04194513715710723,0.008207269837814926,
0.04199501246882793,0.003875196040754772,
0.04204488778054863,-0.04103338153690025,
0.042094763092269324,-0.014405015752660148,
0.04214463840399003,-0.012074429350939522,
0.04219451371571072,0.0077362915943576215,
0.04224438902743142,-0.007001933812767335,
0.04229426433915212,-0.005726386915458719,
0.04234413965087282,-0.0408876878798778,
0.04239401496259352,-0.0038810887674178406,
0.042443890274314215,0.0007163040736762917,
0.04249376558603491,-0.032675001830029485,
0.042543640897755614,-0.036756038179311584,
0.04259351620947631,-0.009527897380341526,
0.042643391521197005,-0.021714245576775024,
0.04269326683291771,-0.034922088941228294,
0.0427431421446384,-0.029616834713542064,
0.0427930174563591,0.006160344866174882,
0.0428428927680798,-0.009342726149708498,
0.0428927680798005,-0.01471993910559616,
0.0429426433915212,0.013717437642780732,
0.042992518703241896,-0.0030219569531680646,
0.04304239401496259,-0.021320800163702004,
0.043092269326683294,-0.02708188203481593,
0.04314214463840399,-0.022988863993106012,
0.043192019950124685,-0.016567803922140783,
0.04324189526184539,-0.028624241737031382,
0.043291770573566084,-0.037870590396095014,
0.043341645885286786,-0.02097816156668767,
0.04339152119700748,-0.018743299488542184,
0.04344139650872818,-0.016012364829496757,
0.04349127182044888,-0.03358071718173522,
0.043541147132169576,-0.03270933027304536,
0.04359102244389027,-0.03338379229794813,
0.043640897755610975,-0.015565905876397064,
0.04369077306733167,-0.01347329578433133,
0.043740648379052366,-0.012009367367648478,
0.04379052369077307,-0.015317869237845025,
0.043840399002493764,-0.021151108996689982,
0.04389027431421447,0.017158117732664006,
0.04394014962593516,-0.011553139833749011,
0.04399002493765586,-0.025625140325760094,
0.04403990024937656,-0.011421078062067613,
0.04408977556109726,-0.02673943178831108,
0.04413965087281795,-0.006281443626916402,
0.044189526184538655,-0.009783587099883268,
0.04423940149625935,-0.00568790273959561,
0.04428927680798005,-0.020750627143037832,
0.04433915211970075,-0.009528043914558042,
0.044389027431421445,-0.02235714481190184,
0.04443890274314215,-0.014245899953977756,
0.04448877805486284,-0.02120821485515975,
0.04453865336658354,-0.020991789594130204,
0.04458852867830424,-0.021078309580615885,
0.04463840399002494,0.0017248918881878246,
0.04468827930174563,-0.02352279438560087,
0.044738154613466335,-0.0007347909897952865,
0.04478802992518703,-0.020614048601259333,
0.044837905236907734,-0.01664399273968881,
0.04488778054862843,-0.03843209750855596,
0.044937655860349125,-0.013538599669406496,
0.04498753117206983,0.0010057866550248103,
0.045037406483790524,-0.018670244957703436,
0.04508728179551122,0.002579123866553089,
0.04513715710723192,0.016099276242290284,
0.04518703241895262,-0.005111990207140616,
0.04523690773067331,-0.032035659297759395,
0.045286783042394016,-0.015257200559348554,
0.04533665835411471,-0.009137671777531494,
0.045386533665835414,-0.012639580455841369,
0.04543640897755611,-0.01284143287204667,
0.045486284289276806,-0.0311981173980853,
0.04553615960099751,-0.01865763917915528,
0.045586034912718204,-0.01748279907879229,
0.0456359102244389,-0.023123466029635945,
0.0456857855361596,-0.028636566585944104,
0.0457356608478803,0.009307747847139496,
0.045785536159601,-0.014628335860728689,
0.045835411471321696,0.012275200895251635,
0.04588528678304239,-0.011132129245065788,
0.045935162094763095,-0.03234867042779858,
0.04598503740648379,-0.0035643319860948434,
0.046034912718204486,-0.025804365158262062,
0.04608478802992519,-0.017648594024797716,
0.046134663341645885,-0.021467950055345502,
0.04618453865336658,0.015364618061433473,
0.04623441396508728,-0.011355609816000317,
0.04628428927680798,0.0005349002207410067,
0.04633416458852868,-0.009433674952974092,
0.04638403990024938,-0.005715626123025595,
0.04643391521197007,-0.03002714507198472,
0.046483790523690775,-0.014831228008180593,
0.04653366583541147,-0.01090567882632007,
0.04658354114713217,0.011382991201511256,
0.04663341645885287,-0.005703810483414637,
0.046683291770573565,-0.012988110255843326,
0.04673316708229427,-0.031028272766536538,
0.04678304239401496,4.239606473100711e-05,
0.04683291770573566,-0.03565898598422046,
0.04688279301745636,-0.006721443677987277,
0.04693266832917706,-0.016712143185749984,
0.04698254364089775,0.005020098926068252,
0.047032418952618456,-0.0022778421864878325,
0.04708229426433915,-0.036362783842321895,
0.04713216957605985,0.015303876566573777,
0.04718204488778055,-0.014916631767536246,
0.047231920199501246,-0.01391116086806905,
0.04728179551122195,-0.021476824755707627,
0.047331670822942644,-0.01611643450769707,
0.04738154613466334,-0.007604341921898437,
0.04743142144638404,-0.014836890544799081,
0.04748129675810474,0.005939873505063541,
0.047531172069825434,-0.006480933350450299,
0.047581047381546136,0.009858355541280162,
0.04763092269326683,-0.0026842380481228063,
0.047680798004987535,-0.007328264928899913,
0.04773067331670823,-0.01645926672613671,
0.047780548628428926,-0.013306963535127607,
0.04783042394014963,-0.013428568406793517,
0.047880299251870324,0.0004651278933196015,
0.04793017456359102,0.016050227712350613,
0.04798004987531172,0.004589831177452147,
0.04802992518703242,0.014559899626519159,
0.048079800498753114,0.010387577942031406,
0.04812967581047382,-0.015895456897227732,
0.04817955112219451,0.00026094126756811414,
0.048229426433915215,-0.0031660902125366652,
0.04827930174563591,-0.018027455508761135,
0.048329177057356607,-0.021314018553774128,
0.04837905236907731,0.02270769672807375,
0.048428927680798005,9.055035447517925e-05,
0.0484788029925187,-0.004148698110080453,
0.0485286783042394,-0.01842761647877923,
0.0485785536159601,-0.012752860567938402,
0.048628428927680795,-0.017502334589009867,
0.0486783042394015,0.01823154126901964,
0.04872817955112219,-0.016193312025569215,
0.048778054862842896,0.006078879165392235,
0.04882793017456359,-0.0007090099641498361,
0.04887780548628429,-0.010839509516531325,
0.04892768079800499,0.005630598136582603,
0.048977556109725685,-0.0196159430974705,
0.04902743142144638,-0.000319058878938549,
0.049077306733167084,-0.006490751838010267,
0.04912718204488778,0.01786760943930655,
0.04917705735660848,-0.009842201550440398,
0.04922693266832918,-0.0029735737473064157,
0.04927680798004987,0.006551843980692914,
0.049326683291770576,0.020424952207983894,
0.04937655860349127,-0.010458749745289639,
0.04942643391521197,-0.005559575571745935,
0.04947630922693267,-0.0030993164310047713,
0.049526184538653366,0.006869569577918057,
0.04957605985037406,0.022594636462473776,
0.049625935162094764,0.004970038709909498,
0.04967581047381546,0.005263030894798917,
0.04972568578553616,0.004417113819147813,
0.04977556109725686,0.007143011067567118,
0.049825436408977554,-0.008728605029503827,
0.04987531172069826,-0.00011054322463284558,
0.04992518703241895,0.010096432998014736,
0.04997506234413965,0.032303293843535155,
0.05002493765586035,0.026969277824201544,
0.050074812967581046,0.02416913976787919,
0.05012468827930175,0.015258751478904185,
0.050174563591022445,0.03593324500872011,
0.05022443890274314,0.013577911898830725,
0.05027431421446384,-3.610901235401483e-05,
0.05032418952618454,0.028022985310805396,
0.050374064837905234,-0.011814452022866503,
0.05042394014962594,0.016119070749755594,
0.05047381546134663,0.012219609878559249,
0.05052369077306733,0.024825798120370265,
0.05057356608478803,-0.02648028863546042,
0.05062344139650873,0.011250146797094645,
0.05067331670822943,0.010272416438692021,
0.050723192019950125,-0.0074940928681001655,
0.05077306733167082,0.002664836974318881,
0.050822942643391524,0.0071438511650559955,
0.05087281795511222,0.0314889686729249,
0.050922693266832915,0.004781019683961827,
0.05097256857855362,0.01920341661576259,
0.05102244389027431,-0.011552151177623473,
0.051072319201995016,0.02953888307432172,
0.05112219451371571,0.027100670115891227,
0.05117206982543641,0.01385265934937733,
0.05122194513715711,0.0017514872430497309,
0.051271820448877806,0.005886499027406384,
0.0513216957605985,-0.026631402575331437,
0.051371571072319204,-0.0010728139210343553,
0.0514214463840399,0.020088693757068024,
0.051471321695760595,0.01899669874795776,
0.0515211970074813,0.01293285639130249,
0.051571072319201994,0.03980057186628544,
0.051620947630922696,0.024443416256806946,
0.05167082294264339,0.031085419281230375,
0.05172069825436409,0.03710673328260715,
0.05177057356608479,0.03710109476445128,
0.051820448877805486,0.0011515350017613814,
0.05187032418952618,0.017800555067100786,
0.051920199501246884,0.021538303122916755,
0.05197007481296758,0.04576691327867594,
0.052019950124688276,0.03964826280795983,
0.05206982543640898,0.04175647959438199,
0.052119700748129674,0.024170823456889194,
0.05216957605985038,0.02504995942002717,
0.05221945137157107,-0.013772520008243319,
0.05226932668329177,-0.013580879113191939,
0.05231920199501247,0.015862909197102964,
0.05236907730673317,0.010036135236188853,
0.05241895261845386,-0.0036610020610711967,
0.052468827930174565,0.01585428649161385,
0.05251870324189526,0.025657150065571312,
0.05256857855361596,0.006299804835069528,
0.05261845386533666,0.020894994677381217,
0.052668329177057355,0.039084632551415706,
0.05271820448877806,0.024184131483662778,
0.05276807980049875,0.004190439002215173,
0.05281795511221945,0.027216481327928095,
0.05286783042394015,0.03644714393588684,
0.05291770573566085,0.01712897727825384,
0.05296758104738154,0.026290800548596567,
0.053017456359102245,0.023747737653462546,
0.05306733167082294,0.00034318579663594057,
0.053117206982543644,0.031214746207059635,
0.05316708229426434,0.023501333447146482,
0.053216957605985035,0.029360818405259077,
0.05326683291770574,0.052839209071447846,
0.053316708229426434,0.03468944426142172,
0.05336658354114713,0.045699822943724475,
0.05341645885286783,0.025022887221368414,
0.05346633416458853,0.027858313569842388,
0.05351620947630923,0.024225115505891837,
0.053566084788029926,0.00508912586255186,
0.05361596009975062,0.04078058098273114,
0.053665835411471324,0.02675787017365994,
0.05371571072319202,0.014794704741089225,
0.053765586034912716,0.03511641774527905,
0.05381546134663342,0.026228698099531156,
0.053865336658354114,0.02466597620865842,
0.05391521197007481,0.048184348242048744,
0.05396508728179551,0.03622748046396364,
0.05401496259351621,0.029226801540188512,
0.05406483790523691,-0.002884696560622721,
0.054114713216957606,0.03407063347478328,
0.0541645885286783,0.023492920769922605,
0.054214463840399005,0.010834454817614301,
0.0542643391521197,0.03751111598045688,
0.054314214463840396,0.03350298332819045,
0.0543640897755611,0.004775894789758279,
0.054413965087281795,0.01678310053771194,
0.0544638403990025,0.014489644480964776,
0.05451371571072319,0.034885378708782465,
0.05456359102244389,0.02285196899045287,
0.05461346633416459,0.03674623421761743,
0.05466334164588529,0.009495492770699627,
0.05471321695760598,0.010046870809176085,
0.054763092269326685,0.047463235341402475,
0.05481296758104738,0.011447975237465666,
0.05486284289276808,0.013835338203355614,
0.05491271820448878,0.02957316231611557,
0.054962593516209475,0.03059715901204202,
0.05501246882793018,0.030715505914748364,
0.05506234413965087,0.021888622846706316,
0.05511221945137157,0.020304991362177727,
0.05516209476309227,0.0024576296623628723,
0.05521197007481297,0.018893901659527472,
0.05526184538653366,0.027216246941302834,
0.055311720698254366,0.01900963941544072,
0.05536159600997506,0.06213719443235252,
0.05541147132169576,0.00107763654168027,
0.05546134663341646,0.028979768781927776,
0.055511221945137156,0.008520290365704345,
0.05556109725685786,0.0227121310166929,
0.055610972568578554,0.0038708925087654923,
0.05566084788029925,0.029070498360304172,
0.05571072319201995,0.026039114320126337,
0.05576059850374065,0.03386147754569502,
0.055810473815461344,0.028605962510271976,
0.055860349127182046,0.020534454901179524,
0.05591022443890274,0.017571238739882925,
0.055960099750623445,0.01327017600376721,
0.05600997506234414,0.03394708144098439,
0.056059850374064836,0.021855633376055037,
0.05610972568578554,0.02113998019220406,
0.056159600997506234,0.029703344399439585,
0.05620947630922693,0.03374879792386386,
0.05625935162094763,0.03537527401190527,
0.05630922693266833,0.02325025955066156,
0.056359102244389024,0.016116405003129913,
0.05640897755610973,0.022273991652051038,
0.05645885286783042,0.025484011663235856,
0.056508728179551125,0.003408974978415167,
0.05655860349127182,-0.01355496508921707,
0.056608478802992516,0.02388577232942837,
0.05665835411471322,0.025881230202147727,
0.056708229426433915,0.010328535843318797,
0.05675810473815461,-0.010744869280848491,
0.05680798004987531,0.018589796924000587,
0.05685785536159601,0.01759807870865115,
0.05690773067331671,0.05033970618610695,
0.05695760598503741,0.012352002929431241,
0.0570074812967581,0.022775399286538413,
0.057057356608478806,0.02567973441256572,
0.0571072319201995,0.025406697035130675,
0.0571571072319202,0.013325232588912106,
0.0572069825436409,0.025980140211468036,
0.057256857855361595,0.016098973030186464,
0.05730673316708229,0.00980411241488828,
0.057356608478802994,0.02011529347372185,
0.05740648379052369,0.01693519884665944,
0.05745635910224439,0.02801518497914416,
0.05750623441396509,0.011319767610687752,
0.05755610972568578,0.011666201407860089,
0.057605985037406486,0.03855168152500468,
0.05765586034912718,0.0340796208894175,
0.05770573566084788,-0.02609076216496325,
0.05775561097256858,0.030601934140211232,
0.057805486284289276,-0.005808182435842052,
0.05785536159600998,0.02772118534712182,
0.057905236907730674,-0.014098062917366736,
0.05795511221945137,0.02804770586143097,
0.05800498753117207,0.0125253594077405,
0.05805486284289277,0.013717606631048398,
0.058104738154613464,0.003259597907405612,
0.05815461346633417,0.014806266088684879,
0.05820448877805486,0.024219289450367124,
0.05825436408977556,0.016442742890041134,
0.05830423940149626,0.014741332993171376,
0.058354114713216956,0.017651955958525433,
0.05840399002493766,0.030846015932153647,
0.058453865336658355,0.02457436217419804,
0.05850374064837905,0.0014806724671712242,
0.05855361596009975,0.00837258488710545,
0.05860349127182045,0.01673312741586912,
0.058653366583541144,0.006088313208082351,
0.05870324189526185,-0.005671195461308716,
0.05875311720698254,-0.025082833619910355,
0.05880299251870324,-0.0008186774666180188,
0.05885286783042394,0.01696561055658704,
0.05890274314214464,0.012923296285418977,
0.05895261845386534,0.02012111212479764,
0.059002493765586035,0.0027649266837547265,
0.05905236907730673,0.005639274204749729,
0.059102244389027433,0.008836430908450078,
0.05915211970074813,0.003031058330530547,
0.059201995012468825,-0.030891840308141023,
0.05925187032418953,0.012938828843752043,
0.05930174563591022,0.0013762970345161385,
0.059351620947630926,0.016246037469762074,
0.05940149625935162,0.0034517044575490792,
0.05945137157107232,-0.014564304978104469,
0.05950124688279302,0.004511274878065245,
0.059551122194513716,-0.014770970200679544,
0.05960099750623441,0.015208771706570492,
0.059650872817955114,0.012158431478037628,
0.05970074812967581,-0.006223690604961764,
0.059750623441396505,0.006530674899916936,
0.05980049875311721,0.013236496656280855,
0.059850374064837904,0.0035942987573749823,
0.059900249376558606,-0.007362964328790607,
0.0599501246882793,0.024322017915649495,
0.06,-0.0073165582633723065,
0.0600498753117207,0.013004640340204435,
0.060099750623441396,-0.003917899036757549,
0.06014962593516209,-0.009515802990229513,
0.060199501246882794,0.016081144682881084,
0.06024937655860349,0.006646527509562446,
0.06029925187032419,-0.008666738210913771,
0.06034912718204489,0.021291846458157973,
0.060399002493765584,0.0014003783949726911,
0.06044887780548629,-0.029053773494762212,
0.06049875311720698,0.005873437086902387,
0.06054862842892768,-0.0005179722201220937,
0.06059850374064838,-0.0004683956020215558,
0.06064837905236908,0.009418476144714548,
0.06069825436408977,-0.007883649432961222,
0.060748129675810475,-0.01610577282592595,
0.06079800498753117,0.02506164225488841,
0.06084788029925187,-0.010802458174601987,
0.06089775561097257,-0.015447402420594,
0.060947630922693265,0.0076573902632507285,
0.06099750623441397,0.013943409316283554,
0.06104738154613466,-0.013809082087155504,
0.06109725685785536,-0.0042322922748759175,
0.06114713216957606,-0.014954303484516023,
0.06119700748129676,-0.03125714609522905,
0.06124688279301746,-0.01961845155896346,
0.061296758104738155,0.026775066117252545,
0.06134663341645885,-0.011117954930454326,
0.061396508728179554,-0.049032998024993286,
0.06144638403990025,0.0023384512547392827,
0.061496259351620945,-0.03455335745964524,
0.06154613466334165,-0.0028377121831564787,
0.061596009975062344,-0.037171925491731386,
0.06164588528678304,-0.021753819996944194,
0.06169576059850374,-0.0003347750391303455,
0.06174563591022444,0.005089314466684555,
0.06179551122194514,-0.0006870667873499223,
0.061845386533665836,0.009211581335395114,
0.06189526184538653,-0.015090434564335644,
0.061945137157107234,0.0002756874333457258,
0.06199501246882793,0.008079590517877395,
0.062044887780548626,-0.02004633252426365,
0.06209476309226933,-0.02776161119711114,
0.062144638403990024,-0.033285519799726285,
0.06219451371571072,-0.027274718049580933,
0.06224438902743142,0.0051655503582310625,
0.06229426433915212,-0.009184863592243808,
0.06234413965087282,-0.024165613782770337,
0.062394014962593516,-0.0272992758935205,
0.06244389027431421,-0.027875521797812587,
0.062493765586034915,-0.026464178576480767,
0.06254364089775562,-0.00629996796279453,
0.06259351620947631,0.00535656287379699,
0.06264339152119701,-0.0052446047624038926,
0.0626932668329177,-0.016332672131142496,
0.0627431421446384,-0.015451686406543333,
0.0627930174563591,-0.0063544557039644945,
0.0628428927680798,-0.01973313130589513,
0.0628927680798005,-0.056566558599441166,
0.0629426433915212,-0.017769393993885677,
0.06299251870324189,-0.007013047597968699,
0.06304239401496259,-0.02292238113754627,
0.0630922693266833,-0.01843845132196102,
0.063142144638404,-0.02204120038881098,
0.06319201995012469,-0.00469680493398765,
0.06324189526184539,-0.0010898558970711698,
0.06329177057356608,-0.033828253762236984,
0.06334164588528678,-0.00777976671612985,
0.06339152119700749,-0.00424759204162598,
0.06344139650872818,0.002237153191801535,
0.06349127182044888,-0.018886602198724428,
0.06354114713216957,-0.009693370154993372,
0.06359102244389027,-0.0001571834976702366,
0.06364089775561098,-0.010849447592552706,
0.06369077306733167,-0.024267202407034002,
0.06374064837905237,-0.011477401008421442,
0.06379052369077307,-0.007090383908888313,
0.06384039900249376,-0.022201704134120814,
0.06389027431421446,-0.0024976182734385687,
0.06394014962593517,-0.03238719571794467,
0.06399002493765586,-0.02482755879530875,
0.06403990024937656,-0.0194846647616356,
0.06408977556109725,-0.008618267217429644,
0.06413965087281795,-0.026139602821967454,
0.06418952618453866,-0.028015025969442102,
0.06423940149625935,0.0031638825630466594,
0.06428927680798005,-0.008423673005943034,
0.06433915211970075,0.0036541692522141823,
0.06438902743142144,-0.04159801432877496,
0.06443890274314215,-0.0316709142330531,
0.06448877805486285,-0.008805185446839009,
0.06453865336658354,-0.008549844004751932,
0.06458852867830424,-0.010697758415559854,
0.06463840399002493,-0.022721342440043577,
0.06468827930174563,-0.010973851039016524,
0.06473815461346634,-0.020632723110227624,
0.06478802992518704,-0.055341725142848866,
0.06483790523690773,-0.019243100037559368,
0.06488778054862843,-0.01479773077462721,
0.06493765586034912,-0.0065326957080372745,
0.06498753117206983,-0.0015458051227078187,
0.06503740648379053,-0.019950420050604177,
0.06508728179551122,0.0032987028296236204,
0.06513715710723192,0.014738000703138288,
0.06518703241895261,-0.011100356372389495,
0.06523690773067331,-0.03192169195740514,
0.06528678304239402,-0.016776036926619366,
0.06533665835411472,-0.0033506838941011266,
0.06538653366583541,-0.009480870807536554,
0.06543640897755611,0.011020966914799212,
0.0654862842892768,-0.03199561459443665,
0.06553615960099751,-0.014786344437455329,
0.06558603491271821,-0.015786351491622132,
0.0656359102244389,-0.017794085591119932,
0.0656857855361596,-0.025150605131077204,
0.0657356608478803,-0.0017099814386038609,
0.06578553615960099,-0.030011594386368072,
0.0658354114713217,-0.027031565314207185,
0.0658852867830424,-0.013842089444817414,
0.06593516209476309,-0.018566899817212892,
0.06598503740648379,-0.02760747653296128,
0.06603491271820448,-0.020699142823122185,
0.06608478802992519,-0.005014064767945159,
0.06613466334164589,-0.024523540576205594,
0.06618453865336658,-0.011467104656719185,
0.06623441396508728,0.003943054569596255,
0.06628428927680798,-0.04787002699666729,
0.06633416458852869,0.004567505124968323,
0.06638403990024938,-0.003454307279295762,
0.06643391521197008,-0.031032412097906838,
0.06648379052369077,0.011690875382471861,
0.06653366583541147,0.008565171311624879,
0.06658354114713216,-0.017501090394724365,
0.06663341645885287,-0.019343334055101656,
0.06668329177057357,0.0025661080354906166,
0.06673316708229426,-0.008088780818106068,
0.06678304239401496,-0.008367952719414092,
0.06683291770573566,-0.02091540898951991,
0.06688279301745637,0.012127092290277537,
0.06693266832917706,0.0025712172154907197,
0.06698254364089776,-0.03232530860722614,
0.06703241895261845,-0.008853893019784193,
0.06708229426433915,-0.02651929585832697,
0.06713216957605984,0.004456247384345857,
0.06718204488778055,-0.0346766541031268,
0.06723192019950125,-0.004804937679293925,
0.06728179551122195,-0.016043277591900156,
0.06733167082294264,-0.02606202345756243,
0.06738154613466334,-0.0001432128018104828,
0.06743142144638405,-0.010179546003915168,
0.06748129675810474,-0.018397135459481243,
0.06753117206982544,-0.008668552552836694,
0.06758104738154613,0.00194508385346308,
0.06763092269326683,0.008095570048838447,
0.06768079800498752,-0.0003909319510740344,
0.06773067331670823,-0.000987110686141079,
0.06778054862842893,-0.013183369014110408,
0.06783042394014963,0.002293557346688263,
0.06788029925187032,0.013818590661012889,
0.06793017456359102,-0.018487103871922615,
0.06798004987531173,-0.02840608714033072,
0.06802992518703242,-0.0020697558241069922,
0.06807980049875312,0.00480570574935135,
0.06812967581047381,-0.00710076392618563,
0.06817955112219451,0.012597941434381088,
0.0682294264339152,0.006188492069048242,
0.06827930174563591,-0.004318317938300582,
0.06832917705735661,0.005569492627956362,
0.0683790523690773,0.00013787100905621966,
0.068428927680798,-0.017590707209091547,
0.0684788029925187,0.0018177251555045759,
0.06852867830423941,0.012790743637034814,
0.0685785536159601,-0.00014345220846656397,
0.0686284289276808,0.0014151020079922565,
0.0686783042394015,-0.018824935878358373,
0.06872817955112219,-0.0031364986818389466,
0.0687780548628429,-0.01308658618287388,
0.0688279301745636,0.003720859850228019,
0.06887780548628429,-0.0010656889542748258,
0.06892768079800499,-0.011235892667244816,
0.06897755610972568,0.025023578048737075,
0.06902743142144638,0.00252202619354997,
0.06907730673316709,0.0031096527915780636,
0.06912718204488778,0.028553223469493204,
0.06917705735660848,-0.029060356600301245,
0.06922693266832917,0.00011787688702480934,
0.06927680798004987,0.015115090266743268,
0.06932668329177058,-0.020585796469667923,
0.06937655860349128,-0.005477629876618732,
0.06942643391521197,0.007092575088748146,
0.06947630922693267,0.014400064940130068,
0.06952618453865336,0.027790659390665266,
0.06957605985037406,0.022268149550560827,
0.06962593516209477,0.0016740299494292102,
0.06967581047381546,0.014618830081263377,
0.06972568578553616,0.03842426479790965,
0.06977556109725686,-0.03335524625063447,
0.06982543640897755,0.000241995205274681,
0.06987531172069826,-0.0015313508468746302,
0.06992518703241896,0.004483326831157319,
0.06997506234413965,0.027211249243096265,
0.07002493765586035,0.02821652341537447,
0.07007481296758104,0.012136806054414027,
0.07012468827930174,0.025407957483482384,
0.07017456359102245,0.0205425932329479,
0.07022443890274314,0.014958441638711746,
0.07027431421446384,0.007109197460425153,
0.07032418952618454,0.011226938116263793,
0.07037406483790523,-0.010889738086251587,
0.07042394014962594,-0.007417620402984845,
0.07047381546134664,0.013600116927050094,
0.07052369077306733,0.005979374423714113,
0.07057356608478803,0.008815971137933653,
0.07062344139650872,0.03143561397210325,
0.07067331670822943,0.004812427809619087,
0.07072319201995013,-0.000516745222571096,
0.07077306733167082,0.0347072805485675,
0.07082294264339152,0.026328601899993167,
0.07087281795511222,0.009275373734368219,
0.07092269326683291,0.007315801658564803,
0.07097256857855362,0.0318048307146432,
0.07102244389027432,0.02386422703163428,
0.07107231920199501,0.025544272796963304,
0.07112219451371571,0.03026635017918583,
0.0711720698254364,-0.00968986204049981,
0.07122194513715711,0.021184250834179515,
0.07127182044887781,-0.0011193791179040513,
0.0713216957605985,0.010895134939722665,
0.0713715710723192,-0.00039723655323142815,
0.0714214463840399,0.02526142712999918,
0.07147132169576059,0.016567064869073597,
0.0715211970074813,0.01546686399031993,
0.071571072319202,0.015532751204993598,
0.0716209476309227,0.022093780975787985,
0.07167082294264339,0.006361324741670017,
0.07172069825436408,0.020965811021683486,
0.0717705735660848,-0.00619896878193274,
0.07182044887780549,0.02240593594342148,
0.07187032418952619,0.022584016996570925,
0.07192019950124688,0.00922788470831428,
0.07197007481296758,0.006237281174592255,
0.07201995012468827,0.008487723559451313,
0.07206982543640898,0.04546921857501964,
0.07211970074812968,0.007096047547321835,
0.07216957605985037,-0.002791480598699863,
0.07221945137157107,0.03373564316357889,
0.07226932668329177,0.018701643322359417,
0.07231920199501247,0.015581163638947158,
0.07236907730673317,0.039279656835985326,
0.07241895261845387,0.01407491930408457,
0.07246882793017456,0.022257100117234713,
0.07251870324189526,0.01881577478859741,
0.07256857855361595,0.019958790059663483,
0.07261845386533666,0.008818205021731241,
0.07266832917705736,0.021156957150268184,
0.07271820448877805,0.01867110531478501,
0.07276807980049875,0.021026466256770616,
0.07281795511221945,0.02543196444326413,
0.07286783042394016,0.030730386329716374,
0.07291770573566085,0.02914035206054056,
0.07296758104738155,0.039640669631983025,
0.07301745635910224,0.008359782500275005,
0.07306733167082294,0.01724855530454059,
0.07311720698254365,0.028543011201587754,
0.07316708229426434,0.043692161686242376,
0.07321695760598504,0.022132360356979283,
0.07326683291770573,0.04356888717447652,
0.07331670822942643,0.017150498288185063,
0.07336658354114713,0.024626422076204583,
0.07341645885286784,0.021664574499274586,
0.07346633416458853,0.014829813762111321,
0.07351620947630923,0.017844295650597627,
0.07356608478802992,0.04990034301115545,
0.07361596009975062,0.033864909781995606,
0.07366583541147133,0.030951984940441584,
0.07371571072319202,0.008871619544455672,
0.07376558603491272,0.05441745698717031,
0.07381546134663342,0.025021944038209593,
0.07386533665835411,0.02679591147043639,
0.0739152119700748,0.024126339715603944,
0.07396508728179552,0.01478468628945136,
0.07401496259351621,0.033822273766629635,
0.07406483790523691,0.020984633687288513,
0.0741147132169576,0.0326640857992576,
0.0741645885286783,0.03030753674260231,
0.07421446384039901,0.03708203788383039,
0.0742643391521197,0.021109528628119635,
0.0743142144638404,0.021772531557088762,
0.0743640897755611,0.03297841221969754,
0.07441396508728179,0.011428322641700333,
0.07446384039900249,0.028365858110538673,
0.0745137157107232,0.02173769972449789,
0.07456359102244389,0.038109591283008455,
0.07461346633416459,-0.006349711209936208,
0.07466334164588528,0.012895187112636554,
0.07471321695760598,0.02713095693440738,
0.07476309226932669,0.028904941635104854,
0.07481296758104738,0.033204386272928044,
0.07486284289276808,0.02796210594639081,
0.07491271820448878,0.025350551881799403,
0.07496259351620947,0.01518327585204604,
0.07501246882793017,0.02487138810469512,
0.07506234413965088,0.038566759215138344,
0.07511221945137157,0.022074495385745935,
0.07516209476309227,0.0439946105920877,
0.07521197007481296,0.03723347359123548,
0.07526184538653366,0.012460308533016098,
0.07531172069825437,0.008407812227644852,
0.07536159600997507,0.03376387138607265,
0.07541147132169576,0.03294297585422522,
0.07546134663341646,0.0448370555880353,
0.07551122194513715,0.007021315337674625,
0.07556109725685786,0.02249320047004961,
0.07561097256857856,0.01570445435575895,
0.07566084788029925,0.005688009558314919,
0.07571072319201995,0.020255758931833505,
0.07576059850374064,0.05134281612674177,
0.07581047381546134,0.021504509129728545,
0.07586034912718205,-0.012159568004960479,
0.07591022443890275,0.02661614441956779,
0.07596009975062344,0.015437680703161545,
0.07600997506234414,0.032776552452616785,
0.07605985037406483,0.04032311963599747,
0.07610972568578554,0.024901921150257494,
0.07615960099750624,0.01095290068822778,
0.07620947630922693,0.06993289576783557,
0.07625935162094763,0.011185225321424032,
0.07630922693266833,0.06221750460730867,
0.07635910224438902,0.016481951671654914,
0.07640897755610973,0.017525921315598846,
0.07645885286783043,0.047150244538859756,
0.07650872817955112,0.02819814250037363,
0.07655860349127182,0.02852421206666768,
0.07660847880299251,-0.008159155961948591,
0.07665835411471322,0.022051276508883746,
0.07670822942643392,0.011461441783983506,
0.07675810473815461,0.04933437249579295,
0.07680798004987531,0.026342550527411565,
0.076857855361596,0.022473351747594027,
0.0769077306733167,0.025368074929137605,
0.07695760598503741,-0.0026631782525419027,
0.0770074812967581,0.01833828528554212,
0.0770573566084788,0.01081728051256487,
0.0771072319201995,0.031151326596329985,
0.0771571072319202,0.010019255570508265,
0.0772069825436409,0.004851057940250116,
0.0772568578553616,0.017875961886445652,
0.0773067331670823,0.006599783511408117,
0.07735660847880299,0.028902452192680853,
0.07740648379052369,0.022021911513426546,
0.0774563591022444,0.027125029437201253,
0.07750623441396509,0.045710003225073806,
0.07755610972568579,0.034232866934822755,
0.07760598503740648,0.03444161167822374,
0.07765586034912718,0.02036152267065891,
0.07770573566084787,0.013156440098357097,
0.07775561097256858,0.01798116121658816,
0.07780548628428928,0.021679397722706467,
0.07785536159600998,0.02758685704396621,
0.07790523690773067,0.033312910156562126,
0.07795511221945137,0.032595366896115405,
0.07800498753117208,0.009333810367501045,
0.07805486284289277,0.02282448343557758,
0.07810473815461347,0.0002904214454870161,
0.07815461346633416,0.030027204192263762,
0.07820448877805486,0.03359967522682612,
0.07825436408977555,0.02829492719844812,
0.07830423940149626,0.028396166688176006,
0.07835411471321696,0.009424743956951125,
0.07840399002493766,0.022897748922907663,
0.07845386533665835,0.011962679299284061,
0.07850374064837905,0.026415081814018686,
0.07855361596009976,0.007571820914210165,
0.07860349127182045,-0.0066333773904493545,
0.07865336658354115,0.022407631155028085,
0.07870324189526184,0.018382232331570103,
0.07875311720698254,0.01254590613980153,
0.07880299251870324,0.023274787366255996,
0.07885286783042394,-0.013143770666655416,
0.07890274314214464,0.0009885256323590476,
0.07895261845386534,0.020372213139578366,
0.07900249376558603,-0.020635001016750268,
0.07905236907730673,-0.009105753192852095,
0.07910224438902744,-0.0034200376707949186,
0.07915211970074813,0.0185601358524937,
0.07920199501246883,0.021132638283474395,
0.07925187032418952,-0.004141971942140357,
0.07930174563591022,0.008995702157508868,
0.07935162094763092,0.00874522554857854,
0.07940149625935163,-0.004431804474322737,
0.07945137157107232,-0.013155813512538765,
0.07950124688279302,0.014271705823982421,
0.07955112219451371,0.014490440757052983,
0.07960099750623441,0.0021497523301344263,
0.07965087281795512,0.005464548870821171,
0.07970074812967581,0.014433142118819138,
0.07975062344139651,0.020535088330670637,
0.0798004987531172,-0.0029508341904948675,
0.0798503740648379,-1.1232036048149617e-05,
0.07990024937655861,-0.003978907905844181,
0.0799501246882793,0.02518525257711962,
0.08,0.01133088241295401,
0.0800498753117207,-0.00717979040639031,
0.0800997506234414,0.02302733577711362,
0.08014962593516209,0.023015721493805843,
0.0801995012468828,-0.026786491932906144,
0.0802493765586035,0.006316843597294503,
0.08029925187032419,-0.02343683595133888,
0.08034912718204489,-0.006068275306224847,
0.08039900249376558,-0.018910298846298877,
0.08044887780548629,-0.004594741410101129,
0.08049875311720699,0.01144546832782233,
0.08054862842892768,-0.005699083333066315,
0.08059850374064838,-0.008298905619396757,
0.08064837905236907,-0.021967295224435933,
0.08069825436408977,0.013410982327349582,
0.08074812967581048,0.0038327453311383115,
0.08079800498753117,-0.023421793916444462,
0.08084788029925187,0.014143744378366662,
0.08089775561097257,-0.009047374073751094,
0.08094763092269326,-0.009017638120683708,
0.08099750623441397,-0.030427939396027576,
0.08104738154613467,0.003970658990896417,
0.08109725685785536,0.0010558202170142996,
0.08114713216957606,0.0009547320818334114,
0.08119700748129675,-0.02135808041580159,
0.08124688279301745,0.010751161441603102,
0.08129675810473816,-0.007498773686245019,
0.08134663341645886,-0.01983201628715983,
0.08139650872817955,0.009092629384566064,
0.08144638403990025,-0.012689643572855205,
0.08149625935162094,0.013355772731009605,
0.08154613466334165,-0.03293483868614232,
0.08159600997506235,-0.017329187163011628,
0.08164588528678304,-0.015454920443574563,
0.08169576059850374,-0.018402009887438335,
0.08174563591022443,0.0122839342425356,
0.08179551122194513,-0.02073844769324298,
0.08184538653366584,-0.007360217160294558,
0.08189526184538654,0.013324603144776535,
0.08194513715710723,-0.019853709735108308,
0.08199501246882793,0.0074773944230226074,
0.08204488778054862,0.015449517127185588,
0.08209476309226933,0.006515764491705295,
0.08214463840399003,-0.01808130352365186,
0.08219451371571072,-0.016146749194957486,
0.08224438902743142,-0.014437477981416256,
0.08229426433915212,-5.7622789670490684e-05,
0.08234413965087282,0.01103098554685873,
0.08239401496259352,-0.0069238359064953715,
0.08244389027431422,-0.01116462924876694,
0.08249376558603491,-0.026239483790291764,
0.08254364089775561,-0.009613477290307305,
0.0825935162094763,-0.017717647689443942,
0.08264339152119701,-0.014685728734386706,
0.08269326683291771,-0.017548817689671946,
0.0827431421446384,0.0011364162983797752,
0.0827930174563591,-0.023313410453314455,
0.0828428927680798,-0.00683412045549916,
0.0828927680798005,-0.002490265325255689,
0.0829426433915212,-0.005581317018700987,
0.0829925187032419,-0.005970145954166866,
0.08304239401496259,-0.01175373992641416,
0.08309226932668329,-0.01335002927887396,
0.08314214463840398,-0.008707786755275388,
0.0831920199501247,-0.03229253288674355,
0.08324189526184539,-0.018982531647761376,
0.08329177057356608,-0.0020864527734694924,
0.08334164588528678,-0.022480833628992728,
0.08339152119700748,-0.024795480532985265,
0.08344139650872819,-0.027713856520191038,
0.08349127182044888,-0.035141427242714345,
0.08354114713216958,0.02272873435560989,
0.08359102244389027,-0.049241698672887545,
0.08364089775561097,-0.0147904473633106,
0.08369077306733166,-0.006805663480116763,
0.08374064837905237,-0.022454908766965473,
0.08379052369077307,-0.010401618890173402,
0.08384039900249377,-0.004936415714200941,
0.08389027431421446,-0.015123057078466891,
0.08394014962593516,-0.01654586889496316,
0.08399002493765587,-0.01893133255225077,
0.08403990024937656,0.009873936854749833,
0.08408977556109726,-0.004821682536960718,
0.08413965087281795,-0.02182868910945688,
0.08418952618453865,-0.02860126354681134,
0.08423940149625936,-0.00861709862289365,
0.08428927680798005,-0.006912277596901242,
0.08433915211970075,-0.005987584889656271,
0.08438902743142145,-0.01902065020753972,
0.08443890274314214,0.0001684473954359101,
0.08448877805486284,-0.036956724482998,
0.08453865336658355,-0.01354369866198761,
0.08458852867830424,-0.047327628440444185,
0.08463840399002494,-0.05054909098218927,
0.08468827930174563,-0.0028310675921859405,
0.08473815461346633,-0.007463575358200651,
0.08478802992518704,-0.033106586341947866,
0.08483790523690773,-0.033726626288865996,
0.08488778054862843,0.009962819321714162,
0.08493765586034913,-0.006700480018712598,
0.08498753117206982,-0.008900820639045789,
0.08503740648379052,-0.016429443598815,
0.08508728179551123,0.00981659275775438,
0.08513715710723192,0.021891202910447126,
0.08518703241895262,-0.02337880257009279,
0.08523690773067331,-0.009665660867611711,
0.08528678304239401,-0.009528967378131718,
0.08533665835411472,-0.029333595101940436,
0.08538653366583542,-0.01833158379416503,
0.08543640897755611,-0.005911293158418855,
0.0854862842892768,-0.0017272750868047443,
0.0855361596009975,0.016873922422428307,
0.0855860349127182,0.0070087876584879055,
0.08563591022443891,-0.04402965334877845,
0.0856857855361596,-0.01802983897444293,
0.0857356608478803,-0.025149536439284435,
0.085785536159601,-0.008893721217041368,
0.08583541147132169,-0.010111344456901528,
0.0858852867830424,-0.02697133716302472,
0.0859351620947631,-0.012942516532077451,
0.08598503740648379,0.0013997467222791622,
0.08603491271820449,-0.06945971001976724,
0.08608478802992518,-0.0255937380899931,
0.08613466334164588,0.022943067729955236,
0.08618453865336659,-0.03747124502670575,
0.08623441396508728,-0.04040323263403611,
0.08628428927680798,-0.011483277920487705,
0.08633416458852868,-0.005545922281065091,
0.08638403990024937,0.0017572193382141138,
0.08643391521197008,0.0002695252022297742,
0.08648379052369078,0.014208221148774392,
0.08653366583541147,0.003967833341927433,
0.08658354114713217,0.01784352684428964,
0.08663341645885286,0.001722524135995199,
0.08668329177057357,0.00520555005511171,
0.08673316708229427,0.011012618569279802,
0.08678304239401496,-0.019322385092541316,
0.08683291770573566,0.030304088723454498,
0.08688279301745636,-0.013854228603472907,
0.08693266832917705,0.02718599783975604,
0.08698254364089776,-0.04558969807132169,
0.08703241895261846,-0.012235291879726868,
0.08708229426433915,-0.02141772017299906,
0.08713216957605985,-0.023022738720640968,
0.08718204488778054,0.0011084384688240878,
0.08723192019950125,0.006303432334728314,
0.08728179551122195,0.002014072107022997,
0.08733167082294264,-0.018856613182896418,
0.08738154613466334,0.010600261511970245,
0.08743142144638404,0.012120167067188029,
0.08748129675810473,-0.01710236966288728,
0.08753117206982544,-0.001536293971405563,
0.08758104738154614,0.007135226634612698,
0.08763092269326683,-0.01705460606526621,
0.08768079800498753,0.0027315201599926063,
0.08773067331670822,-0.029302420791704517,
0.08778054862842893,0.0037079494354307603,
0.08783042394014963,-0.02720642050867641,
0.08788029925187033,-0.011171397538562139,
0.08793017456359102,0.011887296202519075,
0.08798004987531172,0.018847450232230372,
0.08802992518703241,-0.03538761994437796,
0.08807980049875312,-0.006617938616592341,
0.08812967581047382,0.02140943037580345,
0.08817955112219451,0.010370550179703373,
0.08822942643391521,0.0035960311050023666,
0.0882793017456359,-0.014301057299922688,
0.08832917705735661,-0.006757661954155787,
0.08837905236907731,-0.0018942486404982624,
0.088428927680798,-0.02869513313834199,
0.0884788029925187,-0.014239469332798804,
0.0885286783042394,0.00781906321614172,
0.0885785536159601,0.011402608246183183,
0.0886284289276808,0.022190699707985526,
0.0886783042394015,-0.0025371383917366496,
0.0887281795511222,0.019027815907764575,
0.08877805486284289,-0.018660732323804545,
0.08882793017456359,-0.022669349013955998,
0.0888778054862843,0.0038207120200220504,
0.08892768079800499,-0.004342867966734137,
0.08897755610972569,-0.00010020727378512754,
0.08902743142144638,-0.005062749335015741,
0.08907730673316708,0.008212316977020209,
0.08912718204488779,-0.013237582766571741,
0.08917705735660848,-0.003601772361129926,
0.08922693266832918,0.00045416515794484674,
0.08927680798004987,-0.0169949298526232,
0.08932668329177057,-0.019551020552809724,
0.08937655860349127,0.009940930429827105,
0.08942643391521198,0.005059784840612129,
0.08947630922693267,-0.00701300949358195,
0.08952618453865337,0.0009504776146922736,
0.08957605985037406,0.007142552588225243,
0.08962593516209476,-0.004152324418000942,
0.08967581047381547,0.039645739012150495,
0.08972568578553616,-0.005864922080480934,
0.08977556109725686,0.0025786930908615656,
0.08982543640897755,-0.006343521155897909,
0.08987531172069825,0.01115080596184552,
0.08992518703241895,0.019068432732638408,
0.08997506234413966,0.010107983255763064,
0.09002493765586035,0.01368439906273641,
0.09007481296758105,-0.018289295438341617,
0.09012468827930174,0.02387029720638633,
0.09017456359102244,0.014264599865059716,
0.09022443890274315,-0.01505966409060436,
0.09027431421446384,0.03969940039890058,
0.09032418952618454,0.03228056064276873,
0.09037406483790524,0.020524185903874545,
0.09042394014962593,0.0005296117019252949,
0.09047381546134663,0.01668896769400128,
0.09052369077306734,0.001116020401006423,
0.09057356608478803,-0.006130248295106479,
0.09062344139650873,0.008160261150303154,
0.09067331670822942,0.0040569436532686045,
0.09072319201995012,0.008631045315552501,
0.09077306733167083,0.020974408911960743,
0.09082294264339152,0.02167192778316513,
0.09087281795511222,0.0346638344593499,
0.09092269326683292,0.013325754594315502,
0.09097256857855361,-0.0028852741196483504,
0.09102244389027432,0.009536958418497148,
0.09107231920199502,0.0062916070419261425,
0.09112219451371571,-0.005399658182795402,
0.09117206982543641,-0.004167040740876045,
0.0912219451371571,0.012099893795259276,
0.0912718204488778,0.015163451080640955,
0.09132169576059851,0.023036215412733534,
0.0913715710723192,0.032317619519161414,
0.0914214463840399,0.01903422841454809,
0.0914713216957606,0.019785025263285353,
0.09152119700748129,-0.010693926055131552,
0.091571072319202,0.018680531818041038,
0.0916209476309227,0.05943636028703859,
0.09167082294264339,0.026933921055390584,
0.09172069825436409,0.026798237471952237,
0.09177057356608478,0.026447254004603696,
0.09182044887780548,0.0037931962054806416,
0.09187032418952619,0.040493216965245465,
0.09192019950124689,0.020364375373929725,
0.09197007481296758,0.03215021077838982,
0.09201995012468828,0.01679777703982588,
0.09206982543640897,0.04592470670786057,
0.09211970074812968,0.01139016828053833,
0.09216957605985038,0.01603669804348739,
0.09221945137157107,0.010674520845925448,
0.09226932668329177,0.009335054962502748,
0.09231920199501246,0.04055036177750743,
0.09236907730673316,0.03600319651799508,
0.09241895261845387,0.023392827093114396,
0.09246882793017457,0.038609146918849244,
0.09251870324189526,0.03236044574953409,
0.09256857855361596,0.026369068785478823,
0.09261845386533665,0.032661304403527595,
0.09266832917705736,0.00035594693832784186,
0.09271820448877806,0.036128582960837576,
0.09276807980049875,-0.004440987087942383,
0.09281795511221945,0.013878641758367177,
0.09286783042394015,-0.002836880156583319,
0.09291770573566084,0.02125601368771385,
0.09296758104738155,0.0313505058165589,
0.09301745635910225,0.03827461709968832,
0.09306733167082294,0.013502042460513376,
0.09311720698254364,0.004253012377261476,
0.09316708229426433,0.020539800667811428,
0.09321695760598504,0.040613789142778405,
0.09326683291770574,0.006913984732914286,
0.09331670822942643,0.048055336396985615,
0.09336658354114713,0.04883055583094605,
0.09341645885286783,0.008084540008939933,
0.09346633416458854,0.006898162229190555,
0.09351620947630923,0.020622967801042308,
0.09356608478802993,0.04791897171938571,
0.09361596009975062,0.026100935376810623,
0.09366583541147132,0.019786231388677772,
0.09371571072319201,0.004309910144306026,
0.09376558603491272,0.021664242013641817,
0.09381546134663342,0.023444663983573304,
0.09386533665835411,0.038168105468126774,
0.09391521197007481,0.019073564014228044,
0.0939650872817955,0.03321734462897037,
0.09401496259351622,-0.0019655485885353118,
0.09406483790523691,0.021306382083073366,
0.09411471321695761,0.0231619830205633,
0.0941645885286783,0.03378136960629205,
0.094214463840399,0.026237645019366616,
0.0942643391521197,0.041665663077664596,
0.0943142144638404,0.03856194943996323,
0.0943640897755611,0.03584460286045517,
0.0944139650872818,0.011039807833053285,
0.09446384039900249,0.010684259715646995,
0.09451371571072319,0.04686794872372929,
0.0945635910224439,0.006312719720542679,
0.09461346633416459,0.016551092927949464,
0.09466334164588529,0.05186030757597581,
0.09471321695760598,0.04461766031912291,
0.09476309226932668,0.015063354192872755,
0.09481296758104737,0.02376042102568464,
0.09486284289276808,0.02389927033766238,
0.09491271820448878,0.03862349586766589,
0.09496259351620948,0.027628421835787717,
0.09501246882793017,-0.002154928888129931,
0.09506234413965087,0.001380103468966859,
0.09511221945137158,-0.007481997163248377,
0.09516209476309227,0.028751076081801732,
0.09521197007481297,0.03547522701944643,
0.09526184538653366,0.030920099368343855,
0.09531172069825436,0.03806331374859438,
0.09536159600997507,0.004879212722849045,
0.09541147132169576,0.018455916300068455,
0.09546134663341646,0.005918482716362243,
0.09551122194513716,0.009780488489697762,
0.09556109725685785,0.018584722238986683,
0.09561097256857855,0.038816618271084416,
0.09566084788029926,0.01615140734565298,
0.09571072319201995,0.029387328052150007,
0.09576059850374065,0.02187557408557069,
0.09581047381546134,-0.0006664036815049526,
0.09586034912718204,0.017488847642802098,
0.09591022443890275,0.051571994177036076,
0.09596009975062345,0.0031800005166281453,
0.09600997506234414,0.031746252201651184,
0.09605985037406484,0.024980674549474596,
0.09610972568578553,0.062249042664296914,
0.09615960099750623,0.0170461503088354,
0.09620947630922694,0.027157634188441658,
0.09625935162094763,0.034208663175300975,
0.09630922693266833,0.0005558120076977896,
0.09635910224438902,0.05353924294788716,
0.09640897755610972,-0.016593162130454808,
0.09645885286783043,0.016344482522994686,
0.09650872817955113,0.03902229175807813,
0.09655860349127182,-0.008646673653994838,
0.09660847880299252,0.02785068610368707,
0.09665835411471321,0.01710180489866562,
0.09670822942643391,-0.005525980180894983,
0.09675810473815462,0.002146558151094699,
0.09680798004987531,0.02556382804130649,
0.09685785536159601,0.02094455196514236,
0.0969077306733167,0.03132183610977874,
0.0969576059850374,0.013375365365414026,
0.09700748129675811,0.054646780614704835,
0.0970573566084788,0.0101731974797785,
0.0971072319201995,0.01759611895995427,
0.0971571072319202,0.0085781247854989,
0.0972069825436409,0.0167430432234934,
0.09725685785536159,0.03421818509693119,
0.0973067331670823,0.025325510411705016,
0.097356608478803,0.03848326797090498,
0.09740648379052369,0.010446362848177574,
0.09745635910224439,0.024275938229623234,
0.09750623441396508,0.0156138883850962,
0.09755610972568579,0.02101711284425782,
0.09760598503740649,0.03061559304256682,
0.09765586034912718,-0.015564662004402298,
0.09770573566084788,0.055182209701236676,
0.09775561097256857,0.011496783923652835,
0.09780548628428928,0.0015933438786219396,
0.09785536159600998,0.022906756068795935,
0.09790523690773068,0.01647253703200111,
0.09795511221945137,0.011942547052829596,
0.09800498753117207,0.013545694132915752,
0.09805486284289276,0.03251496435037909,
0.09810473815461347,0.008085999919750913,
0.09815461346633417,0.031916965080231285,
0.09820448877805486,0.0025344239732918265,
0.09825436408977556,0.03810028124953507,
0.09830423940149625,0.007888259714014106,
0.09835411471321696,0.024915136080900645,
0.09840399002493766,0.004899581365040052,
0.09845386533665836,0.013898423595514697,
0.09850374064837905,0.021298071199993582,
0.09855361596009975,0.013602362667884936,
0.09860349127182044,0.024741661899347782,
0.09865336658354115,0.027440199068334354,
0.09870324189526185,-0.0038553794852469857,
0.09875311720698254,0.01685294637427176,
0.09880299251870324,0.02962062688623205,
0.09885286783042393,0.03160463504133894,
0.09890274314214464,-0.02594376398253069,
0.09895261845386534,-0.02622599646355372,
0.09900249376558604,0.014253394081935388,
0.09905236907730673,-0.030799246951312698,
0.09910224438902743,0.024087119987805383,
0.09915211970074812,0.026828300928703915,
0.09920199501246883,-0.006308802119950194,
0.09925187032418953,0.012757007324333044,
0.09930174563591022,0.015863904511012376,
0.09935162094763092,-0.012917434438817812,
0.09940149625935162,-0.006441331267754608,
0.09945137157107233,0.001603939056417182,
0.09950124688279302,0.0010503093055333167,
0.09955112219451372,0.0105376802367178,
0.09960099750623441,0.0008190488378493829,
0.09965087281795511,0.03881503008497443,
0.0997007481296758,0.00865053632559052,
0.09975062344139651,-0.0018158510480254927,
0.09980049875311721,0.0267977386194877,
0.0998503740648379,-0.017039902814537603,
0.0999002493765586,0.013195932072267647,
0.0999501246882793,0.01628240340229507,
0.1,0.0384017036029594,
0.1000498753117207,0.01831999620664368,
0.1000997506234414,-0.0004495974631570157,
0.10014962593516209,0.010173172913072633,
0.10019950124688279,0.025628868711312897,
0.1002493765586035,0.0215341850100208,
0.1002992518703242,-0.005064102614490721,
0.10034912718204489,-0.02543476063487749,
0.10039900249376559,0.0033961241710499,
0.10044887780548628,0.055293408719908864,
0.10049875311720698,0.013729676251774202,
0.10054862842892769,0.008723562624235914,
0.10059850374064838,-0.0020227194457811386,
0.10064837905236908,0.018389996823388592,
0.10069825436408977,-0.008742513843077879,
0.10074812967581047,0.004919230907258747,
0.10079800498753118,-0.008072498824104716,
0.10084788029925187,-0.023175715121113334,
0.10089775561097257,-0.008983689007597693,
0.10094763092269327,0.002384357258076637,
0.10099750623441396,0.001900469034901236,
0.10104738154613466,0.023281060066283117,
0.10109725685785537,0.01410927101397259,
0.10114713216957606,-0.011897017743568546,
0.10119700748129676,-0.007232887531836868,
0.10124688279301745,-0.0012097026990146918,
0.10129675810473815,-0.0027034439040312715,
0.10134663341645886,0.007560583251059298,
0.10139650872817955,-0.013956698378017926,
0.10144638403990025,0.01926679310507942,
0.10149625935162095,-0.006699883891529198,
0.10154613466334164,-0.010117900137590861,
0.10159600997506234,0.011809926646894689,
0.10164588528678305,-0.03796715049063276,
0.10169576059850374,0.006316193728115382,
0.10174563591022444,-0.0036590864390247044,
0.10179551122194513,0.006949506587008262,
0.10184538653366583,-0.0007467429370910947,
0.10189526184538654,-0.01877783809145987,
0.10194513715710724,0.004008229978462236,
0.10199501246882793,0.012070687272042852,
0.10204488778054863,-0.017187314612167406,
0.10209476309226932,-0.02393869815591502,
0.10214463840399003,0.010286617870431409,
0.10219451371571073,-0.03416665869388114,
0.10224438902743142,-0.01363206370070683,
0.10229426433915212,0.002621762387281453,
0.10234413965087281,-0.017007595364587683,
0.10239401496259351,-0.007928650813287544,
0.10244389027431422,-0.03364026170810551,
0.10249376558603492,-0.022931276461310934,
0.10254364089775561,-0.0061917213407609506,
0.10259351620947631,-0.0010218977189660082,
0.102643391521197,0.00519494925881947,
0.10269326683291771,0.008022856588598791,
0.10274314214463841,-0.011381298534139725,
0.1027930174563591,-0.0037098604153038266,
0.1028428927680798,-0.014026523266733896,
0.1028927680798005,-0.004034045502828844,
0.10294264339152119,-0.01762457607237733,
0.1029925187032419,-0.008093577396214795,
0.1030423940149626,-0.026519812136371546,
0.10309226932668329,-0.012842538590010596,
0.10314214463840399,0.00265438010437476,
0.10319201995012468,0.0012067611454897962,
0.10324189526184539,-0.007465930306708077,
0.10329177057356609,-0.0281396442121643,
0.10334164588528678,-0.002554371577057884,
0.10339152119700748,-0.01603751946201429,
0.10344139650872818,-0.014154936575195868,
0.10349127182044887,-0.013099471707086915,
0.10354114713216958,-0.02445121747454783,
0.10359102244389028,-0.008682706257724264,
0.10364089775561097,-0.009826335144149979,
0.10369077306733167,-0.007403120858232499,
0.10374064837905236,-0.0053603672453089645,
0.10379052369077307,-0.002796475246313615,
0.10384039900249377,-0.02181838646677188,
0.10389027431421446,-0.0237324355904015,
0.10394014962593516,-0.04334235321129186,
0.10399002493765586,-0.04670045507665058,
0.10403990024937655,-0.010170858296155109,
0.10408977556109726,0.01490733942530376,
0.10413965087281796,-0.007334869244853596,
0.10418952618453865,-0.011581742948401997,
0.10423940149625935,-0.01302389410417633,
0.10428927680798004,-0.018581113014486166,
0.10433915211970075,-0.006476856867810696,
0.10438902743142145,0.004491357827236158,
0.10443890274314215,0.0002404835065192637,
0.10448877805486284,-0.004775484378914807,
0.10453865336658354,0.006061788014864495,
0.10458852867830425,-0.06874336237371262,
0.10463840399002494,-0.017159382403301178,
0.10468827930174564,-0.007147494115189726,
0.10473815461346633,-0.00506950304160184,
0.10478802992518703,-0.012911375022210934,
0.10483790523690772,-9.96668657792521e-05,
0.10488778054862843,-0.0008445252093889841,
0.10493765586034913,-0.032045008293469325,
0.10498753117206983,-0.00827707620267544,
0.10503740648379052,-0.00940682639911583,
0.10508728179551122,-0.015307998785310143,
0.10513715710723193,-0.005240245304362614,
0.10518703241895262,-0.0157467751925063,
0.10523690773067332,-0.01805672415340952,
0.10528678304239401,-0.007096911336683829,
0.10533665835411471,-0.00216853158346653,
0.1053865336658354,-0.012171379419431378,
0.10543640897755611,-0.013950880008661874,
0.10548628428927681,-0.0004685377679803978,
0.1055361596009975,-0.019022226299673466,
0.1055860349127182,-0.027107078686712673,
0.1056359102244389,-0.0036905179583187273,
0.10568578553615961,-0.019872454353031848,
0.1057356608478803,0.007060586116915457,
0.105785536159601,-0.007819342440394733,
0.1058354114713217,-0.03574469420721987,
0.10588528678304239,0.0012951643780748819,
0.10593516209476309,-0.01584718157706873,
0.1059850374064838,-0.007745446680587728,
0.10603491271820449,-0.009536381908537549,
0.10608478802992519,-0.010887189203505399,
0.10613466334164588,-0.0068161599417184875,
0.10618453865336658,-0.02589605610632216,
0.10623441396508729,-0.007130878359962202,
0.10628428927680798,-0.007001416792795737,
0.10633416458852868,-0.01851462249587467,
0.10638403990024937,-0.0015913517985999687,
0.10643391521197007,-0.0141234917853847,
0.10648379052369077,-0.016762405111808272,
0.10653366583541148,-0.011603521603377584,
0.10658354114713217,-0.02016332168945062,
0.10663341645885287,-0.026604768154700212,
0.10668329177057356,-0.03144821316884936,
0.10673316708229426,-0.025445632848993878,
0.10678304239401497,-0.014704185763523985,
0.10683291770573566,0.0059446613950525085,
0.10688279301745636,-0.015705667015585276,
0.10693266832917706,-0.004259785345811702,
0.10698254364089775,0.007139535065405581,
0.10703241895261846,0.01613911056258059,
0.10708229426433916,-0.019076226173983683,
0.10713216957605985,0.0019852354747074566,
0.10718204488778055,-0.000728765078752077,
0.10723192019950124,-0.004825685336042498,
0.10728179551122194,0.0007873304421711557,
0.10733167082294265,-0.002432452276176176,
0.10738154613466334,0.001947001852711825,
0.10743142144638404,0.017361748216992955,
0.10748129675810474,-0.0046601724165165025,
0.10753117206982543,-0.036194634971632424,
0.10758104738154614,-0.026861348763695933,
0.10763092269326684,0.032285187238418576,
0.10768079800498753,0.011104078879110657,
0.10773067331670823,-0.013048995422874987,
0.10778054862842892,-0.02403886946829506,
0.10783042394014962,0.012416636322852241,
0.10788029925187033,0.0015607223950066863,
0.10793017456359102,0.006146200735039521,
0.10798004987531172,-0.0048569164529391655,
0.10802992518703242,0.0198490684789263,
0.10807980049875311,0.010184942504818977,
0.10812967581047382,-0.014590205064985205,
0.10817955112219452,-0.0019313658701377858,
0.10822942643391521,0.0061855277044272254,
0.10827930174563591,0.016783046038096303,
0.1083291770573566,0.03552519003287335,
0.1083790523690773,0.0007145249423362616,
0.10842892768079801,-0.01677935659019338,
0.1084788029925187,0.01162217577907122,
0.1085286783042394,0.011417849496702916,
0.1085785536159601,0.025668470063868645,
0.10862842892768079,-0.023259933341969297,
0.1086783042394015,-0.009761838953838094,
0.1087281795511222,-0.004462458535805569,
0.1087780548628429,0.03192934392276162,
0.10882793017456359,0.006870592444810766,
0.10887780548628428,0.0013251893421211206,
0.108927680798005,-0.005462890800386262,
0.10897755610972569,0.029457690412596632,
0.10902743142144639,-0.009469864678850219,
0.10907730673316708,0.003966242995080131,
0.10912718204488778,0.01826003715092929,
0.10917705735660847,0.03271888406887653,
0.10922693266832918,-0.002119517219273715,
0.10927680798004988,0.03768222305349851,
0.10932668329177057,0.011488020884595836,
0.10937655860349127,0.00956651318487173,
0.10942643391521197,0.005825230575645284,
0.10947630922693267,0.017707380952266056,
0.10952618453865337,0.004234750943016456,
0.10957605985037407,0.02512735232520468,
0.10962593516209476,0.012185054537588186,
0.10967581047381546,0.02950216782049101,
0.10972568578553615,0.03319756796589193,
0.10977556109725686,-0.0035966397280011424,
0.10982543640897756,0.007451150392139469,
0.10987531172069825,0.021778960634284885,
0.10992518703241895,0.010333106014849559,
0.10997506234413965,0.019883756913735874,
0.11002493765586036,0.030013070178265055,
0.11007481296758105,-0.010779109104978764,
0.11012468827930175,0.010820572635607758,
0.11017456359102244,0.0230475865089698,
0.11022443890274314,0.005974336065609446,
0.11027431421446383,-0.00026531401200139554,
0.11032418952618454,0.0027819044563242128,
0.11037406483790524,-0.002903093707976704,
0.11042394014962593,0.013687085851434362,
0.11047381546134663,0.014209069483008813,
0.11052369077306733,-0.0014177443287932481,
0.11057356608478804,0.0008450974166556175,
0.11062344139650873,-0.019709512399731018,
0.11067331670822943,0.0269507661791596,
0.11072319201995012,0.00452296557283673,
0.11077306733167082,0.0073790559739504435,
0.11082294264339151,0.005434369373479223,
0.11087281795511222,0.0034757338024994297,
0.11092269326683292,0.04458094300571717,
0.11097256857855362,0.020022710183295565,
0.11102244389027431,0.04282323092689934,
0.111072319201995,0.03156152679771802,
0.11112219451371572,0.035400012077673806,
0.11117206982543641,0.020556970480721276,
0.11122194513715711,0.022792045012758416,
0.1112718204488778,0.03189184085408393,
0.1113216957605985,0.03436074836460412,
0.11137157107231921,0.04818332990493304,
0.1114214463840399,0.027578631614405758,
0.1114713216957606,0.029632225376987432,
0.1115211970074813,0.014707204398218945,
0.11157107231920199,-0.006882883083082152,
0.11162094763092269,0.024215167425729874,
0.1116708229426434,0.004620096242133661,
0.11172069825436409,0.018201397237151064,
0.11177057356608479,0.034138654802515316,
0.11182044887780548,0.0096387673416135,
0.11187032418952618,0.008950522317707791,
0.11192019950124689,0.014560059558991638,
0.11197007481296758,0.03808244143214115,
0.11201995012468828,0.054959633253365614,
0.11206982543640898,0.04279858553397446,
0.11211970074812967,0.039664134022808425,
0.11216957605985037,0.008889123534533359,
0.11221945137157108,0.018833364659224024,
0.11226932668329177,0.013622227295374403,
0.11231920199501247,0.013408320797957476,
0.11236907730673316,0.03432392846219065,
0.11241895261845386,0.008418829706186171,
0.11246882793017457,0.04589123106250144,
0.11251870324189527,0.01721963197220765,
0.11256857855361596,0.04491551864544276,
0.11261845386533666,0.009228482717152504,
0.11266832917705735,0.01976741573280882,
0.11271820448877805,0.0059692977544865515,
0.11276807980049876,0.03764042753371128,
0.11281795511221945,0.03628699155740825,
0.11286783042394015,0.028951585055203125,
0.11291770573566084,0.040285201241296247,
0.11296758104738154,0.024720042549496203,
0.11301745635910225,0.018733999279233228,
0.11306733167082295,0.021333367304186078,
0.11311720698254364,0.039135859805035686,
0.11316708229426434,0.019864677264566536,
0.11321695760598503,0.00825088627064607,
0.11326683291770574,0.012828145411253846,
0.11331670822942644,0.03200266283297795,
0.11336658354114713,0.03982039057504854,
0.11341645885286783,0.04051869038853806,
0.11346633416458853,0.026015582278424793,
0.11351620947630922,0.033177243824324715,
0.11356608478802993,0.04516245476429866,
0.11361596009975063,0.01678471633153524,
0.11366583541147132,0.047817857607197395,
0.11371571072319202,0.05286448046684601,
0.11376558603491271,0.009547261543403119,
0.11381546134663342,0.027610827722359996,
0.11386533665835412,0.0677725661468622,
0.11391521197007481,0.0092630881002288,
0.11396508728179551,0.0229859981036808,
0.1140149625935162,0.009245279262673288,
0.1140648379052369,0.0263688566380446,
0.11411471321695761,0.022448479879968713,
0.1141645885286783,0.04575206835102685,
0.114214463840399,0.027960388903437248,
0.1142643391521197,0.024672055332378123,
0.1143142144638404,0.06502633981778048,
0.1143640897755611,0.014057413656683563,
0.1144139650872818,0.0046110480853964915,
0.1144638403990025,0.027212486471567026,
0.11451371571072319,0.03303655087327912,
0.11456359102244389,-0.004723062385804177,
0.11461346633416458,0.04438917852384415,
0.11466334164588529,0.020409339483694954,
0.11471321695760599,0.02406505602039126,
0.11476309226932668,0.018578706132586463,
0.11481296758104738,0.030877481153760055,
0.11486284289276807,0.039353532424145354,
0.11491271820448878,0.047859944195215456,
0.11496259351620948,-0.0024929420439928907,
0.11501246882793018,0.05456227650528159,
0.11506234413965087,0.03325243681568641,
0.11511221945137157,0.07168782257309889,
0.11516209476309226,0.049027440409104645,
0.11521197007481297,0.02968620648643204,
0.11526184538653367,0.03478543165527559,
0.11531172069825436,0.04098054360945791,
0.11536159600997506,0.02365519381192311,
0.11541147132169575,0.034346310691916106,
0.11546134663341646,0.0575181566888169,
0.11551122194513716,0.02836143657425306,
0.11556109725685786,0.020039120829287188,
0.11561097256857855,0.006867617076437956,
0.11566084788029925,0.024076952914971618,
0.11571072319201996,0.008333898022358188,
0.11576059850374065,0.007638929695087688,
0.11581047381546135,0.01379471478494468,
0.11586034912718204,0.029919504204152125,
0.11591022443890274,0.016980556205898167,
0.11596009975062344,0.031285546860000596,
0.11600997506234415,0.03940149970929354,
0.11605985037406484,0.022001826641530838,
0.11610972568578554,0.03679937574094114,
0.11615960099750623,0.01533243875504321,
0.11620947630922693,0.01368748149470519,
0.11625935162094764,0.014931461358369643,
0.11630922693266833,0.04019197878883063,
0.11635910224438903,0.030084781823494652,
0.11640897755610972,0.0008531319851417772,
0.11645885286783042,0.03279831656745312,
0.11650872817955112,0.036472947074994454,
0.11655860349127183,0.041694200703681614,
0.11660847880299252,0.03627657756601896,
0.11665835411471322,0.03657864664583417,
0.11670822942643391,0.016412826885508595,
0.11675810473815461,0.004652959154345559,
0.11680798004987532,0.014614513751521563,
0.11685785536159601,0.023874110635819918,
0.11690773067331671,0.012203537904251499,
0.1169576059850374,0.04022032934169261,
0.1170074812967581,0.027971930623627333,
0.1170573566084788,0.039837524235661656,
0.1171072319201995,0.03398134259204979,
0.1171571072319202,0.03285598987213611,
0.1172069825436409,0.005142357834430948,
0.1172568578553616,0.04706384041716393,
0.11730673316708229,0.015536931327687112,
0.117356608478803,0.025358467913366937,
0.1174064837905237,0.02845362375153778,
0.11745635910224439,0.03181811386670211,
0.11750623441396509,0.00944954963187084,
0.11755610972568578,-0.00123134786665317,
0.11760598503740648,0.019820499048744986,
0.11765586034912719,0.012984626379928275,
0.11770573566084788,0.01300191977981198,
0.11775561097256858,0.008151410506070175,
0.11780548628428927,0.00685507331775736,
0.11785536159600997,0.006818762364170932,
0.11790523690773068,0.02080731135077843,
0.11795511221945137,-0.0020858783448256916,
0.11800498753117207,0.02481749013301513,
0.11805486284289277,-9.186144272864752e-05,
0.11810473815461346,0.02960202881701792,
0.11815461346633417,0.02080182165665993,
0.11820448877805487,0.02317374453821742,
0.11825436408977556,0.012758423735180664,
0.11830423940149626,0.03147872808527792,
0.11835411471321695,-0.01475492422980968,
0.11840399002493765,0.007499590209187959,
0.11845386533665836,0.044268286504197514,
0.11850374064837906,0.016822065333044745,
0.11855361596009975,0.04253288677437567,
0.11860349127182045,0.005313594790168474,
0.11865336658354114,0.0010733868769889736,
0.11870324189526185,0.021172827214896692,
0.11875311720698255,0.01365068664109309,
0.11880299251870324,0.012017190720058265,
0.11885286783042394,-0.004414727319992921,
0.11890274314214463,-0.0030418589599865917,
0.11895261845386533,0.021345078023116894,
0.11900249376558604,0.014793537594255356,
0.11905236907730674,-0.0003096319407524112,
0.11910224438902743,0.021721213697379598,
0.11915211970074813,0.0005008570362777139,
0.11920199501246882,0.003538154419900307,
0.11925187032418953,0.012206103893397532,
0.11930174563591023,-0.004199255921745063,
0.11935162094763092,0.0019150735087468014,
0.11940149625935162,-0.015161764347407387,
0.11945137157107232,0.01486608247955561,
0.11950124688279301,0.04775817425694708,
0.11955112219451372,0.029033596936755078,
0.11960099750623442,0.0009058477001208281,
0.11965087281795511,0.013177085022903288,
0.11970074812967581,-0.01390845968971191,
0.1197506234413965,0.009478324804123698,
0.11980049875311721,0.013412745485129954,
0.11985037406483791,-0.00448390140197793,
0.1199002493765586,0.027852564549689162,
0.1199501246882793,0.010519685010309558,
0.12,0.04587176224194504,
0.1200498753117207,-0.001751994549969836,
0.1200997506234414,-0.007137925234603397,
0.1201496259351621,0.013499789129288177,
0.12019950124688279,-0.003993409855765552,
0.12024937655860349,-0.024262654867876803,
0.12029925187032418,-0.004080141733964864,
0.1203491271820449,0.008777096232007375,
0.12039900249376559,0.004664933433364184,
0.12044887780548628,-0.004037658707359768,
0.12049875311720698,0.015523415504242112,
0.12054862842892768,-0.010099910900908952,
0.12059850374064839,0.014899557758962912,
0.12064837905236908,-0.002371762093987503,
0.12069825436408978,-0.010862595902771482,
0.12074812967581047,0.00018211507241127386,
0.12079800498753117,-0.0028299956851582887,
0.12084788029925186,-0.0064227052680304935,
0.12089775561097257,-0.02770737315299266,
0.12094763092269327,0.006166476505825061,
0.12099750623441397,0.03280610705819369,
0.12104738154613466,0.008682977384606974,
0.12109725685785536,0.010472908472523359,
0.12114713216957607,-0.014699038037126369,
0.12119700748129676,-0.008586437823785376,
0.12124688279301746,0.007430462569181834,
0.12129675810473815,-0.01309728615669573,
0.12134663341645885,-0.006939942500601478,
0.12139650872817954,-0.015259382716400096,
0.12144638403990025,0.00974341619439957,
0.12149625935162095,-0.007876196998211356,
0.12154613466334165,-0.008575666194620125,
0.12159600997506234,-0.0002953208575724579,
0.12164588528678304,-0.0008804360328662423,
0.12169576059850375,0.020096477539422036,
0.12174563591022444,-0.0068066320311281694,
0.12179551122194514,-0.030728897785992894,
0.12184538653366583,0.023109039385697652,
0.12189526184538653,-0.005382229781331933,
0.12194513715710723,0.0215529388096895,
0.12199501246882793,-0.015029975524934722,
0.12204488778054863,-0.001980589811888314,
0.12209476309226933,0.0037647553099345345,
0.12214463840399002,0.021557447065728992,
0.12219451371571072,-0.010390596720288858,
0.12224438902743143,0.012163024130475306,
0.12229426433915212,-0.04686701058151581,
0.12234413965087282,0.014616266047013876,
0.12239401496259351,-0.011000241468085405,
0.12244389027431421,-0.011613021247329176,
0.12249376558603492,0.022527749094741138,
0.12254364089775562,0.011635641575654911,
0.12259351620947631,-0.015180390888009055,
0.122643391521197,-0.008139763994578553,
0.1226932668329177,0.01614851013398146,
0.1227431421446384,0.02858990669588539,
0.12279301745635911,0.004865181168264112,
0.1228428927680798,-0.025193704389949795,
0.1228927680798005,-0.01726000267226359,
0.1229426433915212,-0.0008958472495429965,
0.12299251870324189,-0.007540944952746063,
0.1230423940149626,-0.015170546549967323,
0.1230922693266833,-0.01739713032926317,
0.12314214463840399,-0.016651294321348594,
0.12319201995012469,-0.01740336489685363,
0.12324189526184538,0.001954940448821595,
0.12329177057356608,-0.01708701546886341,
0.12334164588528679,-0.033584233644610925,
0.12339152119700748,0.0006453016338598232,
0.12344139650872818,-0.006545184758248732,
0.12349127182044888,0.006633698012515937,
0.12354114713216957,0.0055425039157974195,
0.12359102244389028,-0.03892340930454485,
0.12364089775561098,-0.021299783983147365,
0.12369077306733167,0.02822588528525789,
0.12374064837905237,-0.023857155846489047,
0.12379052369077306,-0.028048592829670052,
0.12384039900249376,-0.017008335551673904,
0.12389027431421447,-0.00615269028801966,
0.12394014962593516,-0.0048784460312693125,
0.12399002493765586,-0.028482367554232856,
0.12403990024937656,0.018485596762115402,
0.12408977556109725,-0.009001325827649115,
0.12413965087281796,-0.010410486689582846,
0.12418952618453866,-0.024896013050417994,
0.12423940149625935,0.010778783922313764,
0.12428927680798005,-0.008723295908999226,
0.12433915211970074,-0.018154502010596825,
0.12438902743142144,-0.016909941319461823,
0.12443890274314215,6.877690917009467e-05,
0.12448877805486284,-0.01757553255652852,
0.12453865336658354,-0.015471489340853021,
0.12458852867830424,0.002988771174909777,
0.12463840399002493,-0.031445249694362694,
0.12468827930174564,-0.01643457565714198,
0.12473815461346634,-0.013838824670881109,
0.12478802992518703,-0.016870879981926337,
0.12483790523690773,-0.037108886314528036,
0.12488778054862842,0.011057543689197402,
0.12493765586034913,-0.014493784515412368,
0.12498753117206983,0.012192563072630622,
0.12503740648379053,-0.02133472409591545,
0.12508728179551123,-0.011741119036721575,
0.12513715710723192,-0.0175708249636188,
0.12518703241895263,-0.02184109182454882,
0.1252369077306733,-0.010031131687552384,
0.12528678304239402,-0.022453158849176105,
0.1253366583541147,0.003544424628213234,
0.1253865336658354,-0.02103166755704688,
0.12543640897755612,0.0032838880790099917,
0.1254862842892768,0.0013487608525885354,
0.1255361596009975,0.007483653976322823,
0.1255860349127182,-0.04470759476171686,
0.1256359102244389,0.009126721718927035,
0.1256857855361596,0.0002444172934583152,
0.1257356608478803,0.02028030253816765,
0.125785536159601,-0.027601058964127463,
0.12583541147132168,-0.016422241099633667,
0.1258852867830424,-0.0033760286205817185,
0.1259351620947631,-0.03205317211744315,
0.12598503740648379,-0.003234889339037859,
0.1260349127182045,0.0014976694613306387,
0.12608478802992518,0.01872789779427745,
0.1261346633416459,-0.0189077162935404,
0.1261845386533666,-0.015408352196844395,
0.12623441396508728,-0.004595188603724145,
0.126284289276808,-0.005740991760010348,
0.12633416458852867,0.0006552068418374576,
0.12638403990024938,0.02073542180559438,
0.1264339152119701,0.019611378199258206,
0.12648379052369077,-0.016573176382747613,
0.12653366583541148,0.009139714712067037,
0.12658354114713216,-0.012210441071767568,
0.12663341645885287,-0.016202122634281522,
0.12668329177057355,-0.01487707622775329,
0.12673316708229426,-0.020628296624310344,
0.12678304239401497,0.006267019636624462,
0.12683291770573565,-0.031073764182303266,
0.12688279301745636,-0.0104654365618202,
0.12693266832917705,-0.010848464511416231,
0.12698254364089775,0.011368841685999196,
0.12703241895261846,-0.010589512758670597,
0.12708229426433915,-0.013532668278719514,
0.12713216957605986,-0.0026003581189307876,
0.12718204488778054,-0.0147369216630073,
0.12723192019950125,-0.003491788555372811,
0.12728179551122196,-0.01923281845711854,
0.12733167082294264,0.0007413914056799177,
0.12738154613466335,-0.015041887828859757,
0.12743142144638403,-0.01629451677517129,
0.12748129675810474,-0.02057100643687985,
0.12753117206982545,-0.008911801636351586,
0.12758104738154613,-0.004766773838464168,
0.12763092269326684,0.026951897587484386,
0.12768079800498752,-0.00953178494398076,
0.12773067331670823,-0.0078085445851652,
0.1277805486284289,0.031354240136016016,
0.12783042394014962,-0.02159629474906049,
0.12788029925187033,0.008458757813225864,
0.12793017456359101,0.009040216184801003,
0.12798004987531172,0.019740601544667908,
0.1280299251870324,-0.0024084388935118623,
0.12807980049875312,0.0056379495827562475,
0.12812967581047383,-0.024468945777817008,
0.1281795511221945,0.00971628399198567,
0.12822942643391522,-0.006814820381199595,
0.1282793017456359,-0.022706704237189127,
0.1283291770573566,0.021604754248422488,
0.12837905236907732,-0.001603955044996148,
0.128428927680798,0.015004794017299374,
0.1284788029925187,0.0077443505019042,
0.1285286783042394,-0.015430901166374696,
0.1285785536159601,0.011847469046945473,
0.1286284289276808,0.004075318246593971,
0.1286783042394015,-0.010947100440133938,
0.1287281795511222,0.0014724254193302232,
0.12877805486284288,-0.019007719893497844,
0.1288279301745636,-0.007702888377586581,
0.1288778054862843,1.6789488707803085e-06,
0.12892768079800498,0.010870459999716092,
0.1289775561097257,-0.024525885867532245,
0.12902743142144638,0.0029447521865936955,
0.12907730673316709,-0.002110870744230966,
0.12912718204488777,0.01774815477940782,
0.12917705735660848,0.012326776457861927,
0.1292269326683292,-0.019712007704175402,
0.12927680798004987,0.0022276584397949778,
0.12932668329177058,0.002407386710541119,
0.12937655860349126,0.021361691272908163,
0.12942643391521197,-0.02889868338001122,
0.12947630922693268,0.007072315113428255,
0.12952618453865336,0.0022590249628869283,
0.12957605985037407,0.004953412186418207,
0.12962593516209475,0.028437700685439563,
0.12967581047381546,0.0030267030142209937,
0.12972568578553617,0.033206801698546215,
0.12977556109725685,0.01882787344607343,
0.12982543640897756,-0.007302932362420061,
0.12987531172069824,-0.0003818870116484019,
0.12992518703241895,0.034688255886225663,
0.12997506234413966,-0.02053037380290384,
0.13002493765586035,0.0031479431285069033,
0.13007481296758105,0.004560744108485117,
0.13012468827930174,-8.011999659648765e-05,
0.13017456359102245,0.034977909909295286,
0.13022443890274316,0.010823772633116627,
0.13027431421446384,0.0029238207774668276,
0.13032418952618455,0.007660715823763573,
0.13037406483790523,0.006312217943098483,
0.13042394014962594,-0.00488617947851392,
0.13047381546134662,-0.006914923212184024,
0.13052369077306733,0.021011066840294662,
0.13057356608478804,0.007409079366656928,
0.13062344139650872,0.018512829435820766,
0.13067331670822943,0.021618300769437826,
0.1307231920199501,0.0017986373828162861,
0.13077306733167082,0.03836733419057445,
0.13082294264339153,0.012551058836443734,
0.13087281795511221,0.04058179233190219,
0.13092269326683292,0.04287498786756214,
0.1309725685785536,0.01672901758084653,
0.13102244389027431,0.0004877945562938406,
0.13107231920199502,0.028324401020357548,
0.1311221945137157,0.0024201756432504634,
0.13117206982543642,0.025346619891781597,
0.1312219451371571,0.008974413947817205,
0.1312718204488778,0.03070248342787477,
0.13132169576059852,0.042249796737954745,
0.1313715710723192,0.01467690364879294,
0.1314214463840399,0.049039489921947205,
0.1314713216957606,-0.006423123258583404,
0.1315211970074813,0.01259967314437539,
0.13157107231920198,0.00777197833620466,
0.1316209476309227,0.029645582954391028,
0.1316708229426434,0.05334029561922704,
0.13172069825436408,0.0367686356444311,
0.1317705735660848,0.022209651486508282,
0.13182044887780547,0.03594683980395008,
0.13187032418952618,-0.0042474078793950515,
0.1319201995012469,0.03214059124138273,
0.13197007481296757,0.025317887858209376,
0.13201995012468828,0.004238629510358399,
0.13206982543640897,0.02948973176703893,
0.13211970074812968,0.04540283457044361,
0.13216957605985039,0.032577245144965926,
0.13221945137157107,0.02923318643904829,
0.13226932668329178,0.030403842602333035,
0.13231920199501246,0.030173573857949696,
0.13236907730673317,0.003813195022412161,
0.13241895261845388,0.03820933996743971,
0.13246882793017456,-0.020470466877880386,
0.13251870324189527,0.019949575683380454,
0.13256857855361595,0.027131743268776015,
0.13261845386533666,0.0273900574058408,
0.13266832917705737,0.002948726769862922,
0.13271820448877805,0.014961984947143351,
0.13276807980049876,0.005188850454247402,
0.13281795511221944,0.02762474947335215,
0.13286783042394015,0.025609013057032677,
0.13291770573566083,0.043133807349998804,
0.13296758104738154,0.02536494993864544,
0.13301745635910225,0.030000481052625573,
0.13306733167082294,0.047222630599199775,
0.13311720698254365,0.012955143429563004,
0.13316708229426433,0.02825138831788689,
0.13321695760598504,0.03453683198679961,
0.13326683291770575,0.002105654524472228,
0.13331670822942643,0.01324537539497036,
0.13336658354114714,0.028400193800121393,
0.13341645885286782,0.023385502537094732,
0.13346633416458853,0.04133732350089163,
0.13351620947630924,0.02166650482713477,
0.13356608478802992,0.031675209797103344,
0.13361596009975063,0.03293078872823242,
0.1336658354114713,0.05068314516658706,
0.13371571072319202,0.015781360539531247,
0.13376558603491273,-0.0003379844857982449,
0.1338154613466334,0.030155976814285182,
0.13386533665835412,0.03239906544055783,
0.1339152119700748,0.03184338466430163,
0.13396508728179551,0.027812337634486727,
0.1340149625935162,0.04087755656518192,
0.1340648379052369,0.02001326856765647,
0.13411471321695762,0.029312031995096424,
0.1341645885286783,0.03066410962730047,
0.134214463840399,0.031927566242882774,
0.1342643391521197,0.07744298633612987,
0.1343142144638404,0.034525142881895385,
0.1343640897755611,0.022892204300344967,
0.1344139650872818,0.03162399141212353,
0.1344638403990025,0.024604780218468188,
0.13451371571072318,0.030020023685968254,
0.1345635910224439,0.03834997028017867,
0.1346134663341646,0.04396345308133628,
0.13466334164588528,0.04461996838862129,
0.134713216957606,0.051119983634146784,
0.13476309226932667,0.02600499463062698,
0.13481296758104738,0.027264621622395246,
0.1348628428927681,0.04711549799818131,
0.13491271820448877,0.019786305401118105,
0.13496259351620948,0.03199698471001417,
0.13501246882793017,0.04970430438376704,
0.13506234413965088,0.024524221007236183,
0.13511221945137158,0.022686012765251097,
0.13516209476309227,0.0024143340312174945,
0.13521197007481298,0.036189414712575634,
0.13526184538653366,0.042517747594372636,
0.13531172069825437,0.031178257641342595,
0.13536159600997505,0.040899334569253175,
0.13541147132169576,0.04172296827583912,
0.13546134663341647,0.03615072864774818,
0.13551122194513715,0.010847324448200066,
0.13556109725685786,0.006735676669817621,
0.13561097256857854,0.007176209663939486,
0.13566084788029925,0.03475946720912259,
0.13571072319201996,0.009058920606896743,
0.13576059850374064,0.004385281739647657,
0.13581047381546135,0.02456634731753845,
0.13586034912718203,0.028329818888353665,
0.13591022443890274,0.02476006908784362,
0.13596009975062345,0.021824445924246594,
0.13600997506234414,0.03627191433319621,
0.13605985037406484,0.026107235837564753,
0.13610972568578553,0.02095866188243028,
0.13615960099750624,0.025177537501200033,
0.13620947630922695,0.01898497996329041,
0.13625935162094763,0.031976329148514664,
0.13630922693266834,0.02599811394962613,
0.13635910224438902,0.01123792261595193,
0.13640897755610973,0.03065688235357541,
0.1364588528678304,0.04958364235105127,
0.13650872817955112,0.01636861748071397,
0.13655860349127183,0.04708703327314412,
0.1366084788029925,0.03450243125585047,
0.13665835411471322,0.02357210712179244,
0.1367082294264339,0.03339447733938993,
0.1367581047381546,0.029693825891279817,
0.13680798004987532,0.0197752779333761,
0.136857855361596,0.023416237898383013,
0.1369077306733167,0.014962425325456186,
0.1369576059850374,0.01957310278241306,
0.1370074812967581,0.04850937567963397,
0.13705735660847881,0.03465420220912813,
0.1371072319201995,0.029568566219900252,
0.1371571072319202,0.029050652880681326,
0.1372069825436409,0.027430497797182818,
0.1372568578553616,0.01797112874685897,
0.1373067331670823,0.06328136554982233,
0.137356608478803,0.02121089166470035,
0.1374064837905237,0.00709889677390412,
0.13745635910224438,0.014116547417723673,
0.1375062344139651,0.01211952980975225,
0.1375561097256858,-0.006085378614307083,
0.13760598503740648,0.008871585640764864,
0.1376558603491272,0.0348715809747361,
0.13770573566084787,0.009745526426580603,
0.13775561097256858,0.02774132342243524,
0.13780548628428926,0.0025860475643963467,
0.13785536159600997,0.006883115607632046,
0.13790523690773068,0.026822008028778117,
0.13795511221945136,0.023899501174139012,
0.13800498753117207,0.003789350606129928,
0.13805486284289276,0.022914010212983,
0.13810473815461347,0.03383425019262875,
0.13815461346633418,0.02040311716703521,
0.13820448877805486,0.005322253295540619,
0.13825436408977557,0.00974453263845193,
0.13830423940149625,-0.009504792716372987,
0.13835411471321696,0.029442532155927577,
0.13840399002493767,0.017527341487058153,
0.13845386533665835,0.001955849637354193,
0.13850374064837906,0.011240814858990162,
0.13855361596009974,0.014094080995612572,
0.13860349127182045,-0.006397730694193311,
0.13865336658354116,0.005154337869268444,
0.13870324189526184,0.03862910672779842,
0.13875311720698255,0.009589712990185118,
0.13880299251870323,0.030764876527177087,
0.13885286783042394,-0.003885951017909353,
0.13890274314214462,0.0030739182251130447,
0.13895261845386533,0.03990440962777255,
0.13900249376558604,-0.0034496724983626055,
0.13905236907730673,0.039943912888576114,
0.13910224438902744,-0.0056041880572152095,
0.13915211970074812,0.02496720591447498,
0.13920199501246883,0.013036966177671685,
0.13925187032418954,0.010675637208815154,
0.13930174563591022,0.019709489424152564,
0.13935162094763093,0.0056934313273553,
0.1394014962593516,0.0019311588140224212,
0.13945137157107232,0.02237212049375183,
0.13950124688279303,-0.017199542397566922,
0.1395511221945137,0.02444111619782918,
0.13960099750623442,-0.005984834550075502,
0.1396508728179551,0.0501893096119038,
0.1397007481296758,0.009049678920196171,
0.13975062344139652,0.010317319006989366,
0.1398004987531172,0.03020721508587827,
0.1398503740648379,0.017707289121136706,
0.1399002493765586,0.01721834111576729,
0.1399501246882793,0.0164806552631052,
0.14,0.00486441428558298,
0.1400498753117207,0.021695015197117917,
0.1400997506234414,-0.003421321581169306,
0.1401496259351621,0.0014498862514354142,
0.1401995012468828,-0.0024507830042463435,
0.14024937655860348,0.004102105548597315,
0.1402992518703242,0.0216855239906886,
0.1403491271820449,0.002410967750885961,
0.14039900249376558,0.0060178063379965376,
0.1404488778054863,0.024735612554983057,
0.14049875311720697,0.02350916481951342,
0.14054862842892768,0.011533627430586621,
0.1405985037406484,0.016293222443797203,
0.14064837905236907,0.013520194606641913,
0.14069825436408978,0.020683366377674713,
0.14074812967581046,0.020480453672272438,
0.14079800498753117,0.0008123139021568803,
0.14084788029925188,0.01118999577881682,
0.14089775561097256,0.021597040490086497,
0.14094763092269327,0.01828297672363295,
0.14099750623441396,-0.0022946580668449165,
0.14104738154613466,-0.009578896928447315,
0.14109725685785537,0.013689976464929903,
0.14114713216957606,0.02678656843434498,
0.14119700748129677,0.016369888352109285,
0.14124688279301745,-0.0002356751803262437,
0.14129675810473816,-0.0006260237285547393,
0.14134663341645887,0.0069702045340817535,
0.14139650872817955,-0.010366617782269445,
