time,amplitude,label
0.0,-0.004719546620919342,
4.987531172069826e-05,0.024268634749762114,
9.975062344139652e-05,0.037521858047415715,
0.00014962593516209475,0.015738268750363545,
0.00019950124688279303,0.01104274576243524,
0.00024937655860349125,0.011558875623478421,
0.0002992518703241895,0.012598374201757672,
0.00034912718204488776,0.02258100841441315,
0.00039900249376558606,0.03487816399866815,
0.0004488778054862843,0.017046398568770337,
0.0004987531172069825,0.02447395295999873,
0.0005486284289276808,0.022149242818206547,
0.000598503740648379,0.0124722610240573,
0.0006483790523690773,-0.014179386276896157,
0.0006982543640897755,0.015068589607492168,
0.0007481296758104738,0.003136907972670175,
0.0007980049875311721,0.03827936844665015,
0.0008478802992518703,0.0008002861596052464,
0.0008977556109725686,0.02434280067868127,
0.0009476309226932668,0.03896306747650538,
0.000997506234413965,0.018685462976686735,
0.0010473815461346633,0.03116975439267548,
0.0010972568578553616,0.022168559162794782,
0.00114713216957606,0.01451880444705898,
0.001197007481296758,0.03027233794861972,
0.0012468827930174563,0.02920014394762628,
0.0012967581047381546,-0.0026253369370888326,
0.001346633416458853,0.0160469848743407,
0.001396508728179551,0.013421806841186774,
0.0014463840399002493,0.0395449830919494,
0.0014962593516209476,0.02141072540600687,
0.001546134663341646,-0.0006943270440468198,
0.0015960099750623442,0.02170443206870955,
0.0016458852867830423,0.017478897108390956,
0.0016957605985037406,0.026037943830613957,
0.001745635910224439,0.0471047567561559,
0.0017955112219451373,0.023336764746520702,
0.0018453865336658353,0.006391841372783553,
0.0018952618453865336,0.009980623582357625,
0.001945137157107232,0.00536971028456096,
0.00199501246882793,-0.0046118401091807815,
0.0020448877805486283,-0.018755513443749965,
0.0020947630922693266,0.031271536117418605,
0.002144638403990025,0.02000473944721339,
0.0021945137157107233,0.0023926598844264055,
0.0022443890274314216,0.01271426626107377,
0.00229426433915212,0.019190801938790303,
0.0023441396508728177,0.024727928855672057,
0.002394014962593516,0.027215065490024087,
0.0024438902743142144,0.014914784691924527,
0.0024937655860349127,0.017632555098166944,
0.002543640897755611,0.00942684013440423,
0.0025935162094763093,0.028876356530628783,
0.0026433915211970076,-0.003806817457518104,
0.002693266832917706,0.04382130163084541,
0.002743142144638404,0.015535439958667905,
0.002793017456359102,-0.02634410939095404,
0.0028428927680798004,0.023322875211316558,
0.0028927680798004987,0.004695152511589591,
0.002942643391521197,0.010490829999127933,
0.0029925187032418953,0.03248163382467241,
0.0030423940149625936,0.003919626540661253,
0.003092269326683292,0.023383292002453204,
0.00314214463840399,0.0096330457369305,
0.0031920199501246885,-0.008465387491214154,
0.0032418952618453864,0.024050158067407144,
0.0032917705735660847,0.003239065618309717,
0.003341645885286783,0.04720230142398854,
0.0033915211970074813,0.00597178342357005,
0.0034413965087281796,0.008485583794939628,
0.003491271820448878,0.013757376082845857,
0.003541147132169576,0.010262328986385884,
0.0035910224438902745,0.02071911535015207,
0.0036408977556109724,-0.0006644485330243484,
0.0036907730673316707,0.02385897621891541,
0.003740648379052369,0.044137214008078296,
0.0037905236907730673,0.02106313867336636,
0.0038403990024937656,0.0003380664857719363,
0.003890274314214464,0.015271606735344468,
0.003940149625935162,0.002538794373832455,
0.00399002493765586,0.024320520182392877,
0.004039900249376558,-0.00404333092176584,
0.004089775561097257,0.007976570781452298,
0.004139650872817955,0.015041193552125558,
0.004189526184538653,-0.013432988488761876,
0.004239401496259352,0.0076409914105036725,
0.00428927680798005,0.004951590570454039,
0.004339152119700748,0.034079732297755266,
0.0043890274314214465,-0.0065505077655295535,
0.004438902743142145,0.005078305687021728,
0.004488778054862843,0.041723365509308524,
0.004538653366583541,0.03692643632958735,
0.00458852867830424,0.0011439704647432831,
0.004638403990024938,0.0022822425216002893,
0.0046882793017456355,0.009235793555358017,
0.004738154613466334,0.02339198706082756,
0.004788029925187032,0.0010153753071497802,
0.00483790523690773,0.008951507113301104,
0.004887780548628429,0.015130115889938456,
0.004937655860349127,0.027375289679248037,
0.004987531172069825,0.006579475712516416,
0.005037406483790524,-0.007470373572272305,
0.005087281795511222,0.010584622315386798,
0.00513715710723192,-0.006380865708380234,
0.0051870324189526185,0.02750352681949145,
0.005236907730673317,0.0228959767341683,
0.005286783042394015,0.012091197760956565,
0.0053366583541147134,0.03673651919455045,
0.005386533665835412,-0.0027897893878657326,
0.00543640897755611,-0.016343753773206963,
0.005486284289276808,0.00930526373713088,
0.005536159600997507,0.037298646796386205,
0.005586034912718204,0.01434669575104689,
0.005635910224438902,0.014649961038354552,
0.005685785536159601,0.01026059644674241,
0.005735660847880299,0.01347128844848462,
0.005785536159600997,0.006117862298391909,
0.005835411471321696,0.013892613989259504,
0.005885286783042394,-0.004279846701086998,
0.005935162094763092,0.014952428914863026,
0.0059850374064837905,-0.02959439995444077,
0.006034912718204489,-0.003976120700594476,
0.006084788029925187,-0.024560768655748105,
0.0061346633416458855,0.022054348554840727,
0.006184538653366584,0.02774948979328483,
0.006234413965087282,0.006812228429351915,
0.00628428927680798,-0.0027469329586194613,
0.006334164588528679,0.01609466312537265,
0.006384039900249377,0.009841814103677118,
0.006433915211970074,-0.0014926226052644112,
0.006483790523690773,-0.019477266827490774,
0.006533665835411471,-0.01642870102885382,
0.006583541147132169,0.041783553259277205,
0.006633416458852868,-0.000412359208215555,
0.006683291770573566,-0.009793259744792582,
0.006733167082294264,-0.0062617312462792205,
0.0067830423940149626,-0.034416019953707855,
0.006832917705735661,0.011961985958286882,
0.006882793017456359,0.012061194791342078,
0.0069326683291770575,0.006636972271667306,
0.006982543640897756,-0.02127326156915612,
0.007032418952618454,-0.008986963929751079,
0.007082294264339152,-0.010916339844220737,
0.007132169576059851,0.00027011709221761923,
0.007182044887780549,-0.010097880084567759,
0.007231920199501247,0.0027061405098878282,
0.007281795511221945,-0.03416836160621882,
0.007331670822942643,-0.012447836963343412,
0.007381546134663341,0.015624977655885646,
0.00743142144638404,0.01459403943634306,
0.007481296758104738,-0.014515885886449975,
0.007531172069825436,0.0043223003709073025,
0.007581047381546135,-0.0037715704666235997,
0.007630922693266833,0.004635422275563366,
0.007680798004987531,0.0038764430401323708,
0.0077306733167082295,-0.010850766511451157,
0.007780548628428928,-0.0057833738752491246,
0.007830423940149626,-0.026343088969081278,
0.007880299251870324,-0.0015970342943439327,
0.007930174563591023,-0.0071441704178458465,
0.00798004987531172,-0.050083203154662026,
0.00802992518703242,0.002778717868130177,
0.008079800498753117,-0.016874766819169558,
0.008129675810473816,-0.02217614127370386,
0.008179551122194513,-0.013637747898762603,
0.008229426433915213,-0.02599431351465184,
0.00827930174563591,-0.027424154316064146,
0.00832917705735661,-0.019763182834459637,
0.008379052369077307,0.0032564657523971863,
0.008428927680798006,-0.020751917754429132,
0.008478802992518703,-0.001402894182906395,
0.0085286783042394,-0.01508989969416256,
0.0085785536159601,-0.0319863668581394,
0.008628428927680797,0.0006759478857195633,
0.008678304239401496,0.0004572468032790697,
0.008728179551122194,-0.04716366791277769,
0.008778054862842893,-0.0002690457921699571,
0.00882793017456359,-0.042220275947838566,
0.00887780548628429,0.00196950656790326,
0.008927680798004987,-0.012890597464558961,
0.008977556109725686,-0.01736310473122174,
0.009027431421446384,0.006889368567045456,
0.009077306733167083,-0.006130874613055217,
0.00912718204488778,-0.01879854858110169,
0.00917705735660848,-0.002645438272069329,
0.009226932668329177,-0.022376389614884622,
0.009276807980049876,-0.029451921883032126,
0.009326683291770574,-0.005511682929101151,
0.009376558603491271,-0.012294505099713905,
0.00942643391521197,-0.029772399155336172,
0.009476309226932668,0.015805316711395616,
0.009526184538653367,-0.00046195487541296314,
0.009576059850374064,-0.015801123669545197,
0.009625935162094763,-0.025345720195582185,
0.00967581047381546,0.0011354404256348795,
0.00972568578553616,-0.029682776543551156,
0.009775561097256857,-0.015625711997518714,
0.009825436408977557,0.007647169612127261,
0.009875311720698254,-0.03868276645736708,
0.009925187032418953,-0.019707230862913223,
0.00997506234413965,-0.029453690909352154,
0.01002493765586035,-0.005848985081034236,
0.010074812967581047,-0.027110956752604443,
0.010124688279301746,-0.04016033602211122,
0.010174563591022444,-0.04420405403190655,
0.010224438902743141,-0.030042465654607792,
0.01027431421446384,-0.02520588921628075,
0.010324189526184538,-0.006547270910677666,
0.010374064837905237,-0.006760703752342867,
0.010423940149625935,-0.01530934405026409,
0.010473815461346634,-0.00514767709203586,
0.010523690773067331,-0.02834026380408737,
0.01057356608478803,-0.0067219608590736255,
0.010623441396508728,-0.049431650528082446,
0.010673316708229427,-0.016075649519263338,
0.010723192019950124,-0.02875462094365616,
0.010773067331670824,-0.024331943322366663,
0.010822942643391521,-0.012315458016425633,
0.01087281795511222,-0.019499429813630415,
0.010922693266832918,-0.01731146740735522,
0.010972568578553617,-0.007985507818374985,
0.011022443890274314,-0.011731113240934,
0.011072319201995013,-0.014098497277263436,
0.01112219451371571,-0.007164839498739148,
0.011172069825436408,-0.05232859407367587,
0.011221945137157107,-0.03636787844158519,
0.011271820448877805,-0.021736224485263248,
0.011321695760598504,-0.007305746134934251,
0.011371571072319201,-0.016051870612332438,
0.0114214463840399,-0.03188497849053175,
0.011471321695760598,-0.016928180273715874,
0.011521197007481297,-0.01734014447827331,
0.011571072319201995,-0.03180578179679416,
0.011620947630922694,-0.0013517470977115094,
0.011670822942643391,0.010480187664958698,
0.01172069825436409,-0.02412048549923428,
0.011770573566084788,0.004131752838551626,
0.011820448877805487,-0.01462635779205771,
0.011870324189526184,-0.01635026384705059,
0.011920199501246884,-0.049402642507689894,
0.011970074812967581,-0.022162907747297782,
0.012019950124688279,-0.013714656406458376,
0.012069825436408978,0.020061324312504826,
0.012119700748129675,-0.031103282667458276,
0.012169576059850374,-0.02455482454006725,
0.012219451371571072,-0.0315755963590754,
0.012269326683291771,-0.016595788159234355,
0.012319201995012468,-0.015430165997452484,
0.012369077306733168,0.0033864345669382817,
0.012418952618453865,-0.013797609576505353,
0.012468827930174564,-0.025673562230705833,
0.012518703241895262,-0.014076521264944603,
0.01256857855361596,-0.0038575066772733174,
0.012618453865336658,-0.018723518748134264,
0.012668329177057357,-0.05246597555016235,
0.012718204488778055,-0.033631894393257006,
0.012768079800498754,-0.01602744547503196,
0.012817955112219451,-0.030416708783631154,
0.012867830423940149,0.0052146493258795334,
0.012917705735660848,-0.02253357845422516,
0.012967581047381545,-0.025344775557058122,
0.013017456359102245,-0.02326695557485967,
0.013067331670822942,-0.028891207141756733,
0.013117206982543641,0.014636593388752742,
0.013167082294264339,-0.008480960234551038,
0.013216957605985038,-0.006109686734216356,
0.013266832917705735,-0.025422532847312794,
0.013316708229426434,-0.04759405275738084,
0.013366583541147132,-0.0066832154738712315,
0.013416458852867831,-0.00518265300238129,
0.013466334164588529,-0.04307275514168374,
0.013516209476309228,0.0017922776458283163,
0.013566084788029925,-0.021833301292928348,
0.013615960099750624,-0.02181031315943471,
0.013665835411471322,-0.03201117722757851,
0.01371571072319202,-0.032755498161451645,
0.013765586034912718,-0.025293184267362594,
0.013815461346633416,-0.032675137671212204,
0.013865336658354115,-0.03294593452297826,
0.013915211970074812,0.028708151460619884,
0.013965087281795512,-0.02460827354204491,
0.014014962593516209,-0.0157755169404485,
0.014064837905236908,-0.047303454253077824,
0.014114713216957606,-0.03454772073465022,
0.014164588528678305,-0.0030016703777358527,
0.014214463840399002,-0.004387738790939393,
0.014264339152119701,-0.036364393946783424,
0.014314214463840399,-0.04161109105982666,
0.014364089775561098,-0.021268745660410857,
0.014413965087281795,-0.005343448559700161,
0.014463840399002495,-0.0066808963402406295,
0.014513715710723192,0.013136823220684633,
0.01456359102244389,0.018720353291893636,
0.014613466334164589,0.0005031782928276423,
0.014663341645885286,-0.01788225011678394,
0.014713216957605985,-0.012787239997024968,
0.014763092269326683,-0.0007350166390972211,
0.014812967581047382,0.0010372499634406073,
0.01486284289276808,0.009094016682926868,
0.014912718204488778,-0.02526037842583326,
0.014962593516209476,-0.028639894518593303,
0.015012468827930175,-0.006929699754051291,
0.015062344139650873,-0.02183499150515343,
0.015112219451371572,-0.006533644348011858,
0.01516209476309227,-0.04281394326046476,
0.015211970074812968,0.006665795300252676,
0.015261845386533666,-0.003177241609678999,
0.015311720698254365,-0.03263396972453915,
0.015361596009975062,-0.019824409153143062,
0.01541147132169576,-0.0009020127265251983,
0.015461346633416459,-0.0109664732872722,
0.015511221945137156,-0.004459660496189946,
0.015561097256857856,-0.015462086752049728,
0.015610972568578553,0.002650107661038064,
0.015660847880299252,0.010188778932226816,
0.01571072319201995,-0.005855085647212265,
0.015760598503740647,-0.011184953037433172,
0.015810473815461346,-0.006734053418478635,
0.015860349127182045,-0.0031978325119596863,
0.015910224438902745,0.0061863889409800475,
0.01596009975062344,-0.04109569090342285,
0.01600997506234414,-0.008650378343290896,
0.01605985037406484,-0.0017258453370754857,
0.016109725685785538,-0.02481865696383103,
0.016159600997506234,-0.003559798684000716,
0.016209476309226933,-0.0042685723125918855,
0.016259351620947632,-0.011576070513999726,
0.016309226932668328,0.03016449036715088,
0.016359102244389027,0.0015063102878627803,
0.016408977556109726,0.005195474154406894,
0.016458852867830425,0.007597610150243067,
0.01650872817955112,-0.002504140150779625,
0.01655860349127182,0.006369980287892017,
0.01660847880299252,-0.0004382385243193567,
0.01665835411471322,-0.0004945286356456699,
0.016708229426433914,0.0062315250342473184,
0.016758104738154613,0.015168375681340898,
0.016807980049875312,-0.007091045632902922,
0.01685785536159601,-0.0005110776220863425,
0.016907730673316707,-0.008937248929508958,
0.016957605985037406,-0.035232276712915525,
0.017007481296758106,-0.009464794033938495,
0.0170573566084788,0.004289177434763224,
0.0171072319201995,-0.012911533047191939,
0.0171571072319202,-0.0060893680778053225,
0.0172069825436409,-0.0021936614827402345,
0.017256857855361595,0.011991050245243407,
0.017306733167082294,0.007322861413721789,
0.017356608478802993,0.043706873494535815,
0.017406483790523692,0.01807488688328758,
0.017456359102244388,0.007018496151877583,
0.017506234413965087,-0.013160344761183456,
0.017556109725685786,-0.0013557018259959773,
0.017605985037406485,0.003706763090538037,
0.01765586034912718,0.005805247183061932,
0.01770573566084788,0.011430897760702902,
0.01775561097256858,0.0061265408182722535,
0.01780548628428928,0.022906551981369098,
0.017855361596009974,-0.003301205684158197,
0.017905236907730673,-0.01221519406840607,
0.017955112219451373,0.023929515488556985,
0.018004987531172068,0.02725959623250713,
0.018054862842892767,0.03099851681823053,
0.018104738154613467,0.013649646196243065,
0.018154613466334166,0.006236105020180267,
0.01820448877805486,0.030358135453820753,
0.01825436408977556,0.031283438563732724,
0.01830423940149626,0.0030083267199417733,
0.01835411471321696,0.020413089827410996,
0.018403990024937655,0.022928042417503985,
0.018453865336658354,0.025584165867481728,
0.018503740648379053,0.01325138793115939,
0.018553615960099752,0.035936877498384825,
0.018603491271820448,0.02576726133937909,
0.018653366583541147,0.007998114681485206,
0.018703241895261846,0.004725592132844261,
0.018753117206982542,0.02828174078937693,
0.01880299251870324,0.010682677580447797,
0.01885286783042394,0.01084532916500272,
0.01890274314214464,0.03410808660201882,
0.018952618453865335,0.026718244092964152,
0.019002493765586034,0.02515698774179663,
0.019052369077306733,0.014817017159046857,
0.019102244389027433,0.015737671880804976,
0.01915211970074813,0.027072156081215087,
0.019201995012468828,0.0019256247019680053,
0.019251870324189527,0.01700191813264316,
0.019301745635910226,-0.016499338690688026,
0.01935162094763092,0.017920284839328726,
0.01940149625935162,0.014854777383910481,
0.01945137157107232,0.01787329008383385,
0.01950124688279302,0.004520893112224039,
0.019551122194513715,0.013017351424328387,
0.019600997506234414,0.022905471518995718,
0.019650872817955113,0.029804110097361104,
0.01970074812967581,0.007398988956560933,
0.019750623441396508,0.021267536382940776,
0.019800498753117207,0.021296500470846948,
0.019850374064837906,0.01538387445890745,
0.019900249376558602,0.03386681502359267,
0.0199501246882793,0.007933479710634518,
0.02,0.010924677452449641,
0.0200498753117207,0.03588858232990208,
0.020099750623441395,0.001565223049631661,
0.020149625935162094,0.016560009364287982,
0.020199501246882794,0.022506243181940517,
0.020249376558603493,0.03755449362541912,
0.02029925187032419,0.006173935793246554,
0.020349127182044888,0.036820632298806624,
0.020399002493765587,0.023137132502690373,
0.020448877805486283,0.02677682180873596,
0.02049875311720698,-0.03382831735784967,
0.02054862842892768,0.011824839494248413,
0.02059850374064838,0.050004393338656326,
0.020648379052369076,0.020081305733518295,
0.020698254364089775,0.011357823558218148,
0.020748129675810474,0.028902748993523145,
0.020798004987531173,0.01477281953713486,
0.02084788029925187,-0.005238527896253151,
0.020897755610972568,0.030009147493870264,
0.020947630922693267,0.006383022922336846,
0.020997506234413967,0.01746914355281385,
0.021047381546134662,0.0366515592848098,
0.02109725685785536,0.021465036436720725,
0.02114713216957606,0.029124650929243535,
0.02119700748129676,-0.015149439665979387,
0.021246882793017455,0.061828065684813686,
0.021296758104738155,0.010352748627935086,
0.021346633416458854,0.0459596806642628,
0.02139650872817955,0.03484761381072322,
0.02144638403990025,0.022173726258325043,
0.021496259351620948,0.015598226166827217,
0.021546134663341647,0.03456177704583152,
0.021596009975062343,0.03564195210560603,
0.021645885286783042,0.03955872508612247,
0.02169576059850374,0.008907491404043635,
0.02174563591022444,0.012097689594791785,
0.021795511221945136,0.03494726300760473,
0.021845386533665835,0.04607608863494564,
0.021895261845386534,0.008606419486082808,
0.021945137157107233,0.05162824726462639,
0.02199501246882793,0.007107025474819199,
0.02204488778054863,-0.0081667866145664,
0.022094763092269327,0.017784588059981527,
0.022144638403990027,0.020462877596647267,
0.022194513715710722,0.012269889244037477,
0.02224438902743142,0.017597627608614146,
0.02229426433915212,0.024799764205197902,
0.022344139650872816,0.0036881065088174743,
0.022394014962593516,0.05461669216880867,
0.022443890274314215,0.028544418004103386,
0.022493765586034914,0.009813586504983955,
0.02254364089775561,-0.013720744879243931,
0.02259351620947631,0.005090177327704386,
0.022643391521197008,0.01643369804272698,
0.022693266832917707,0.024779340130325372,
0.022743142144638403,0.018664492837393087,
0.022793017456359102,0.02541136898907136,
0.0228428927680798,0.016754428131205507,
0.0228927680798005,-0.0024953777700839064,
0.022942643391521196,0.02890833492763494,
0.022992518703241895,0.04656948166963535,
0.023042394014962594,0.03535785344288514,
0.02309226932668329,0.02339124997138885,
0.02314214463840399,0.02696209876138881,
0.02319201995012469,0.013857036087702623,
0.023241895261845388,-0.005521292093526312,
0.023291770573566083,0.03292108200279437,
0.023341645885286783,0.009793012261227025,
0.02339152119700748,0.016983280799640205,
0.02344139650872818,0.011251605030756642,
0.023491271820448877,0.007977688077719971,
0.023541147132169576,0.04695213391531619,
0.023591022443890275,0.015805891838832915,
0.023640897755610974,0.030725697023509864,
0.02369077306733167,-0.007853168509857279,
0.02374064837905237,0.004595694415366943,
0.023790523690773068,0.026566030634235994,
0.023840399002493767,0.01004180297041109,
0.023890274314214463,0.04425212219607818,
0.023940149625935162,0.02693914505404292,
0.02399002493765586,-0.008640950247978042,
0.024039900249376557,0.012732280215796317,
0.024089775561097256,0.03574816881023948,
0.024139650872817955,-0.004834063055347457,
0.024189526184538655,0.0030822626393904734,
0.02423940149625935,0.009337459864413502,
0.02428927680798005,0.03176032884424473,
0.02433915211970075,0.001948822795165412,
0.024389027431421448,0.05376621289981568,
0.024438902743142144,0.026488329301878097,
0.024488778054862843,0.02018769136389486,
0.024538653366583542,0.008630373838844154,
0.02458852867830424,0.020034281597296626,
0.024638403990024937,0.03653055494159702,
0.024688279301745636,0.030842577018489484,
0.024738154613466335,-0.009802587796605302,
0.02478802992518703,0.013401535368595402,
0.02483790523690773,0.010251337128853823,
0.02488778054862843,-0.009297484446325895,
0.02493765586034913,4.754050469654193e-05,
0.024987531172069824,0.009178189814171437,
0.025037406483790523,-0.0017027571668456441,
0.025087281795511222,-0.0022716238864512565,
0.02513715710723192,0.00044804480394813537,
0.025187032418952617,0.021337325109419006,
0.025236907730673316,0.009621291612777897,
0.025286783042394016,0.02396426807058366,
0.025336658354114715,0.024184333585826064,
0.02538653366583541,0.03742370898170499,
0.02543640897755611,0.027048813944136864,
0.02548628428927681,0.02901704953821722,
0.025536159600997508,0.013995925895743517,
0.025586034912718204,0.013921938994025397,
0.025635910224438903,0.0034280777386476637,
0.025685785536159602,0.010525354972738018,
0.025735660847880298,-0.010524670939952083,
0.025785536159600997,-0.004756556456035026,
0.025835411471321696,-0.0029347527832914123,
0.025885286783042395,0.005877431616855458,
0.02593516209476309,0.027331111135989516,
0.02598503740648379,-0.025636393645331906,
0.02603491271820449,0.002098565701091364,
0.02608478802992519,-0.009745333751816822,
0.026134663341645884,-0.0023686206498853358,
0.026184538653366583,-0.016254325739870686,
0.026234413965087282,-0.003780648792117791,
0.02628428927680798,-0.006536175851663289,
0.026334164588528677,-0.008274625395990777,
0.026384039900249377,-0.013593000798422178,
0.026433915211970076,0.018275718812415884,
0.02648379052369077,0.023609878204890106,
0.02653366583541147,0.026117273685534015,
0.02658354114713217,0.005594372594674619,
0.02663341645885287,0.009557649377269248,
0.026683291770573565,-0.01685388720534772,
0.026733167082294264,0.013131084226039045,
0.026783042394014963,0.031842516713636165,
0.026832917705735662,-0.00884564477452153,
0.026882793017456358,-0.010870054765017999,
0.026932668329177057,0.013938721620353173,
0.026982543640897756,-0.00448607245378772,
0.027032418952618455,-0.0015512110607179795,
0.02708229426433915,0.010983002176330182,
0.02713216957605985,0.02160215853183659,
0.02718204488778055,-0.011683009027243615,
0.02723192019950125,0.03212949086975903,
0.027281795511221944,0.017555843012941698,
0.027331670822942643,-0.026880666649598726,
0.027381546134663343,-0.0026572826494195186,
0.02743142144638404,0.01907644286986119,
0.027481296758104738,0.026375168537202627,
0.027531172069825437,-0.004100346909318906,
0.027581047381546136,-0.004957504755684073,
0.02763092269326683,-0.024773225439530512,
0.02768079800498753,0.0024984112252603614,
0.02773067331670823,0.006541983311159617,
0.02778054862842893,-0.012840700364218277,
0.027830423940149625,-0.017728734754539236,
0.027880299251870324,-0.030243878420449767,
0.027930174563591023,-0.013107375524241592,
0.027980049875311722,-0.009274733241715587,
0.028029925187032418,-0.005519364759060161,
0.028079800498753117,0.01729828054798349,
0.028129675810473816,-0.010923704049550658,
0.028179551122194512,-0.00039032588684628777,
0.02822942643391521,0.000292230566733713,
0.02827930174563591,-0.0054043726170904735,
0.02832917705735661,-0.01765609872346649,
0.028379052369077305,-0.039374545370685264,
0.028428927680798004,0.011606500377893661,
0.028478802992518704,-0.03766355346113853,
0.028528678304239403,-0.026635274184794205,
0.0285785536159601,0.0009352966392019019,
0.028628428927680798,-0.02603875576582635,
0.028678304239401497,0.01262181118407949,
0.028728179551122196,-0.014002275252824438,
0.02877805486284289,-0.011836240461069536,
0.02882793017456359,-0.01304879501461814,
0.02887780548628429,-0.01213816664770283,
0.02892768079800499,-0.011052156010696937,
0.028977556109725685,-0.002874769025639965,
0.029027431421446384,-0.018152167954974485,
0.029077306733167083,-0.02157845214637811,
0.02912718204488778,-0.027933361247920258,
0.029177057356608478,-0.007537329451803981,
0.029226932668329177,0.0004781697888019184,
0.029276807980049877,0.024508731884941206,
0.029326683291770572,0.003250584151427139,
0.02937655860349127,-0.010153376213721053,
0.02942643391521197,-0.023216894280384724,
0.02947630922693267,-0.04587447906220538,
0.029526184538653365,-0.005501276908791862,
0.029576059850374065,-0.016258727862131492,
0.029625935162094764,-0.010642837571360562,
0.029675810473815463,0.02298857163223983,
0.02972568578553616,-0.0087369114748336,
0.029775561097256858,-0.005593957141830835,
0.029825436408977557,-0.0069528195524019565,
0.029875311720698253,-0.015551056015472605,
0.029925187032418952,0.0013284620153042048,
0.02997506234413965,0.0008429122282795423,
0.03002493765586035,0.01140367472122487,
0.030074812967581046,-0.027616486074881205,
0.030124688279301745,-0.005928181819404733,
0.030174563591022444,-0.036726521669232015,
0.030224438902743143,-0.048402192089733516,
0.03027431421446384,-0.027562849884456155,
0.03032418952618454,-0.010935033728818697,
0.030374064837905237,0.014033392596864858,
0.030423940149625937,-0.012511425448694475,
0.030473815461346632,-0.01622580340695415,
0.03052369077306733,-0.019619028513561218,
0.03057356608478803,-0.00013494025143222926,
0.03062344139650873,0.01636376957991049,
0.030673316708229426,-0.024432256497393525,
0.030723192019950125,-0.023097657291815475,
0.030773067331670824,-0.011605545314842612,
0.03082294264339152,-0.0022310156759546736,
0.03087281795511222,-0.001325403475649533,
0.030922693266832918,-0.019821527593839282,
0.030972568578553617,-0.031100547045828947,
0.031022443890274313,-0.03495893132081857,
0.031072319201995012,-0.007660873539512992,
0.03112219451371571,-0.03594475576215052,
0.03117206982543641,-0.008999873794423347,
0.031221945137157106,-0.00923986827277729,
0.03127182044887781,-0.012475274647999982,
0.031321695760598504,-0.010612189239519641,
0.0313715710723192,-0.02633934005360311,
0.0314214463840399,-0.03038623735741217,
0.0314713216957606,-0.031339951873597366,
0.031521197007481294,-0.02626147885585877,
0.031571072319202,-0.04549994845014574,
0.03162094763092269,-0.03559501270236216,
0.03167082294264339,-0.02027703383893838,
0.03172069825436409,-0.006885154165974109,
0.03177057356608479,-0.01265060146278212,
0.03182044887780549,-0.026795711329284363,
0.031870324189526185,-0.03446073740798211,
0.03192019950124688,-0.04692293284769468,
0.03197007481296758,-0.005113780389375362,
0.03201995012468828,-0.04288889338665158,
0.032069825436408975,-0.014633506193731403,
0.03211970074812968,-0.017192328731915455,
0.03216957605985037,-0.04707686287146808,
0.032219451371571076,-0.002207975206548843,
0.03226932668329177,-0.0015941962654876848,
0.03231920199501247,-0.008662654272161091,
0.03236907730673317,-0.029904729215171462,
0.032418952618453865,-0.016553288390847153,
0.03246882793017456,-0.015141836437343318,
0.032518703241895264,0.016801535718759975,
0.03256857855361596,-0.008629624713046062,
0.032618453865336655,-0.04072738702008066,
0.03266832917705736,0.006239898991728776,
0.032718204488778053,-0.0029277829666415137,
0.032768079800498756,-0.012391870917702174,
0.03281795511221945,-0.03206655975820269,
0.03286783042394015,0.00012127291830784682,
0.03291770573566085,-0.026383262178667467,
0.032967581047381546,0.005275399548304945,
0.03301745635910224,0.004321926797182074,
0.033067331670822944,-0.0058316869708862715,
0.03311720698254364,0.015342578154698628,
0.03316708229426434,0.0064878581628491465,
0.03321695760598504,-0.006740224159785972,
0.033266832917705734,0.001077345664967977,
0.03331670822942644,-0.008465778841797519,
0.03336658354114713,-0.012543553589020316,
0.03341645885286783,0.006744627113177222,
0.03346633416458853,-0.005396429606866,
0.033516209476309226,-0.039480605179548246,
0.03356608478802992,0.028878252582576217,
0.033615960099750625,0.007945217901264763,
0.03366583541147132,0.00796126905685252,
0.03371571072319202,-0.03228604814597509,
0.03376558603491272,0.0026104263009107172,
0.033815461346633414,-0.0327708056085374,
0.03386533665835412,-0.021682416977308265,
0.03391521197007481,-0.012690678815996564,
0.03396508728179551,-0.024684306557749728,
0.03401496259351621,-0.0398502002850369,
0.03406483790523691,0.006882609717802832,
0.0341147132169576,-0.013300434316691019,
0.034164588528678305,0.006378360758632974,
0.034214463840399,-0.031279193364929535,
0.034264339152119704,-0.04042814177060617,
0.0343142144638404,-0.01413640722600465,
0.034364089775561095,-0.0007283306215221629,
0.0344139650872818,-0.02020334696923564,
0.03446384039900249,-0.021195519194059542,
0.03451371571072319,-0.029972163035636122,
0.03456359102244389,-0.018848372723454878,
0.03461346633416459,-0.014006296461971808,
0.03466334164588529,0.004299350928190461,
0.034713216957605986,0.016184730850916797,
0.03476309226932668,0.030810626435826854,
0.034812967581047384,0.016007722862379024,
0.03486284289276808,-0.029504033699975157,
0.034912718204488775,-0.012044810182247987,
0.03496259351620948,0.0007214855712008852,
0.035012468827930174,-0.021937819071280076,
0.03506234413965087,0.020378199252822415,
0.03511221945137157,-0.0012023997625265652,
0.03516209476309227,0.014932843729067441,
0.03521197007481297,-0.008162228903403117,
0.035261845386533666,0.012061633179742206,
0.03531172069825436,-0.012619298432371293,
0.035361596009975065,0.007844492539527455,
0.03541147132169576,0.009684002318768268,
0.035461346633416456,0.009825186779893679,
0.03551122194513716,0.005535341133653181,
0.035561097256857854,-0.006667413358320598,
0.03561097256857856,-0.005563930820666625,
0.03566084788029925,-0.02017592307075377,
0.03571072319201995,-0.002953174287945998,
0.03576059850374065,-0.012174250473707128,
0.03581047381546135,-0.018648394308801556,
0.03586034912718204,0.00876962054499279,
0.035910224438902745,-0.02246603975459292,
0.03596009975062344,0.004687517261486875,
0.036009975062344136,-0.021977407706003767,
0.03605985037406484,-0.01362135753054091,
0.036109725685785535,0.027542570600421493,
0.03615960099750624,-0.022260737746355133,
0.03620947630922693,-0.012980207206982695,
0.03625935162094763,-0.010073938760351845,
0.03630922693266833,0.0021808219532633414,
0.03635910224438903,-0.022012780138733274,
0.03640897755610972,0.01596699059415559,
0.036458852867830426,-0.008550268331733125,
0.03650872817955112,0.02424785888504393,
0.036558603491271824,0.004231101512335662,
0.03660847880299252,-0.005451609810835918,
0.036658354114713215,-0.013330992391817774,
0.03670822942643392,-0.01214542754223959,
0.036758104738154614,0.04554626849488367,
0.03680798004987531,0.01469770078139684,
0.03685785536159601,0.00941816904221054,
0.03690773067331671,0.012831140331961758,
0.0369576059850374,0.005824492624660469,
0.037007481296758106,-0.04254926307280081,
0.0370573566084788,0.0021396929201823673,
0.037107231920199504,-0.003958130020321973,
0.0371571072319202,-0.004215555836506459,
0.037206982543640896,0.002765469190744483,
0.0372568578553616,0.0007328064014470777,
0.037306733167082294,-0.03115876339195037,
0.03735660847880299,0.0054218682000063325,
0.03740648379052369,0.008113881121224775,
0.03745635910224439,0.011299087040218122,
0.037506234413965084,0.015438202103049204,
0.037556109725685786,0.004676016062992815,
0.03760598503740648,0.02893161571324867,
0.037655860349127185,-0.0068148840635255045,
0.03770573566084788,0.02221530127702144,
0.037755610972568576,0.018125506250457685,
0.03780548628428928,0.02797437829202604,
0.037855361596009975,0.024164884682406913,
0.03790523690773067,-0.0004004747207151556,
0.03795511221945137,0.01496437028591482,
0.03800498753117207,0.017115544710690943,
0.03805486284289277,-0.000485134654000895,
0.03810473815461347,0.0037788447677797113,
0.03815461346633416,0.01788529607924504,
0.038204488778054865,0.0045655128431949625,
0.03825436408977556,0.011384906202618835,
0.03830423940149626,0.0032360439643679753,
0.03835411471321696,0.03780552605074898,
0.038403990024937655,0.04107401787114105,
0.03845386533665835,0.005516163497713514,
0.03850374064837905,0.04489758188068912,
0.03855361596009975,0.03613369146238923,
0.03860349127182045,0.02288129030386164,
0.03865336658354115,0.03840289439476095,
0.03870324189526184,0.01703055401570252,
0.038753117206982546,0.014391574864370274,
0.03880299251870324,0.00038733888217308207,
0.03885286783042394,0.016216205083198064,
0.03890274314214464,0.02352948793007723,
0.038952618453865336,0.009566595834778526,
0.03900249376558604,-0.004729154169252507,
0.039052369077306734,-0.0039408782434070845,
0.03910224438902743,0.04385162566238701,
0.03915211970074813,0.05313377727527007,
0.03920199501246883,0.035703369630980364,
0.039251870324189524,0.03263359012549677,
0.039301745635910226,0.0006387908241494815,
0.03935162094763092,0.014809890224781429,
0.03940149625935162,0.03784629155430287,
0.03945137157107232,0.023825369799553523,
0.039501246882793016,0.03155438483415437,
0.03955112219451372,0.017612135121934228,
0.039600997506234414,-0.01597161141333199,
0.03965087281795511,-0.016072680305787523,
0.03970074812967581,0.02125092476058903,
0.03975062344139651,0.0283659506394508,
0.039800498753117204,0.005821226430413395,
0.03985037406483791,0.03337365423723986,
0.0399002493765586,0.04180818814172327,
0.039950124688279305,0.04616613386017869,
0.04,0.014102873990344544,
0.0400498753117207,0.018230957324602705,
0.0400997506234414,0.0403611387245557,
0.040149625935162095,0.015886688782784108,
0.04019950124688279,0.030018841636394157,
0.04024937655860349,0.03309275687702946,
0.04029925187032419,0.0049476250047923095,
0.040349127182044885,0.04206817290534065,
0.04039900249376559,-0.00898744537585629,
0.04044887780548628,-0.011716696600952353,
0.040498753117206986,0.06181144985423012,
0.04054862842892768,0.007774089217857065,
0.04059850374064838,0.019470146814231568,
0.04064837905236908,0.02502855194673261,
0.040698254364089775,0.022061756902780724,
0.04074812967581047,0.045379270044680835,
0.040798004987531174,0.047700604943910985,
0.04084788029925187,-0.0018606773804818802,
0.040897755610972565,0.022849373932205052,
0.04094763092269327,-0.0007520015302233639,
0.04099750623441396,0.015527037433811371,
0.041047381546134666,0.01716313126428133,
0.04109725685785536,0.01730602310907585,
0.04114713216957606,0.0492726887099222,
0.04119700748129676,0.005600505205923655,
0.041246882793017456,0.014440255052725228,
0.04129675810473815,0.007794934615485026,
0.041346633416458854,0.05243279066882648,
0.04139650872817955,0.013595910557650515,
0.04144638403990025,0.02436524816702142,
0.04149625935162095,0.003636785311737837,
0.041546134663341644,0.005933039242602554,
0.04159600997506235,0.04804316689926256,
0.04164588528678304,0.033556626355258024,
0.04169576059850374,0.016204829114770322,
0.04174563591022444,0.026226628162378335,
0.041795511221945136,0.012526594095263792,
0.04184538653366583,0.02380277151333284,
0.041895261845386535,0.004616226429522301,
0.04194513715710723,0.02766089581543245,
0.04199501246882793,0.02734816713518976,
0.04204488778054863,0.003682165086882676,
0.042094763092269324,0.029104878754943577,
0.04214463840399003,0.008462099299845356,
0.04219451371571072,0.025860951865384698,
0.04224438902743142,0.0038159867800710394,
0.04229426433915212,0.00828305289006084,
0.04234413965087282,0.01339643968212914,
0.04239401496259352,0.04260514005439869,
0.042443890274314215,0.02494547656309875,
0.04249376558603491,0.04101664108385207,
0.042543640897755614,0.06352147902163752,
0.04259351620947631,0.015361978630756747,
0.042643391521197005,0.02350467369119356,
0.04269326683291771,0.03569714112594978,
0.0427431421446384,0.010050721401456145,
0.0427930174563591,0.03438863771704525,
0.0428428927680798,0.018422312338678342,
0.0428927680798005,0.007285059360905821,
0.0429426433915212,0.024349693022049194,
0.042992518703241896,0.032576492457477846,
0.04304239401496259,0.014710064041708264,
0.043092269326683294,0.013176089505685032,
0.04314214463840399,0.04531125110211108,
0.043192019950124685,0.016210905377227778,
0.04324189526184539,0.033770737866381205,
0.043291770573566084,-0.009060444281820044,
0.043341645885286786,0.026204195345026077,
0.04339152119700748,0.009648514284521289,
0.04344139650872818,0.019289393242507304,
0.04349127182044888,0.02180130453273906,
0.043541147132169576,0.034353194440329575,
0.04359102244389027,0.038452696938702235,
0.043640897755610975,0.038954974716752466,
0.04369077306733167,0.012648593160909943,
0.043740648379052366,-0.004077183437473545,
0.04379052369077307,0.012285516412912274,
0.043840399002493764,0.016447674986023626,
0.04389027431421447,0.02705585784858848,
0.04394014962593516,-0.0003586080626920979,
0.04399002493765586,0.02067736547713557,
0.04403990024937656,0.025734384625025877,
0.04408977556109726,0.013952079424819732,
0.04413965087281795,0.02833898908233414,
0.044189526184538655,0.00792290003000473,
0.04423940149625935,-0.02804773735213224,
0.04428927680798005,-0.0005012182446129283,
0.04433915211970075,-0.0012706458048098342,
0.044389027431421445,0.01767834205526125,
0.04443890274314215,0.023298464397865103,
0.04448877805486284,0.03209218597014231,
0.04453865336658354,0.021591589420472266,
0.04458852867830424,0.02267409484270392,
0.04463840399002494,0.028547467138322243,
0.04468827930174563,0.0408481572493302,
0.044738154613466335,0.02698162831268648,
0.04478802992518703,0.027819960651977324,
0.044837905236907734,0.02018746734235739,
0.04488778054862843,-0.001951115236000247,
0.044937655860349125,0.024060847874886382,
0.04498753117206983,0.020198284434845216,
0.045037406483790524,0.012948857834556283,
0.04508728179551122,-0.0072506527625423815,
0.04513715710723192,0.02322277918879384,
0.04518703241895262,0.008968567514422487,
0.04523690773067331,0.012715536854132237,
0.045286783042394016,0.0029191515225916367,
0.04533665835411471,0.027872368427044256,
0.045386533665835414,0.015379810562102941,
0.04543640897755611,0.019279102810639742,
0.045486284289276806,-0.01179396526348295,
0.04553615960099751,0.017788632628317015,
0.045586034912718204,0.04332193225861207,
0.0456359102244389,0.0035708488626009097,
0.0456857855361596,0.01243170458107487,
0.0457356608478803,0.018431665491223808,
0.045785536159601,-0.035946134564851774,
0.045835411471321696,0.024567284517987977,
0.04588528678304239,-0.011397815824604817,
0.045935162094763095,0.0043801949311734496,
0.04598503740648379,0.00980644138129976,
0.046034912718204486,0.0014678202668204814,
0.04608478802992519,0.0022272540997663546,
0.046134663341645885,0.009854339088686558,
0.04618453865336658,0.00212744888475914,
0.04623441396508728,0.009456242353216716,
0.04628428927680798,0.025061366876221396,
0.04633416458852868,0.004407659453564589,
0.04638403990024938,-0.016886501337989804,
0.04643391521197007,0.014281355436790304,
0.046483790523690775,0.005746500908192171,
0.04653366583541147,-0.0049275858245546025,
0.04658354114713217,0.03604445777275108,
0.04663341645885287,0.010309834206617475,
0.046683291770573565,0.03618303159346581,
0.04673316708229427,0.012178715979413259,
0.04678304239401496,-0.0038349494009285775,
0.04683291770573566,0.0018774736152295697,
0.04688279301745636,-0.00475869611401605,
0.04693266832917706,-0.0070484653101457765,
0.04698254364089775,1.9590760291173626e-05,
0.047032418952618456,0.009576647944013736,
0.04708229426433915,-0.01875326616286878,
0.04713216957605985,0.017631175275221678,
0.04718204488778055,-0.0038021562255836664,
0.047231920199501246,-0.022248380539035693,
0.04728179551122195,-0.004133697855555157,
0.047331670822942644,-0.007900919187244919,
0.04738154613466334,0.0009429261085495792,
0.04743142144638404,-0.010284453165382358,
0.04748129675810474,-0.024321370447892256,
0.047531172069825434,-0.00413439745782614,
0.047581047381546136,0.018570851034497723,
0.04763092269326683,0.003238865098704643,
0.047680798004987535,-0.00653929214614273,
0.04773067331670823,-0.003407123994016984,
0.047780548628428926,-0.011461747890041007,
0.04783042394014963,0.0025831275208951293,
0.047880299251870324,-0.01448564529940855,
0.04793017456359102,0.010277089497460267,
0.04798004987531172,0.013195866790952575,
0.04802992518703242,-0.004356658701933612,
0.048079800498753114,-0.015797563242410686,
0.04812967581047382,-0.005131408963640345,
0.04817955112219451,-0.008230004559297531,
0.048229426433915215,0.010602248746028435,
0.04827930174563591,-0.0039916321681075,
0.048329177057356607,-0.0025395627340491335,
0.04837905236907731,-0.026153178348934505,
0.048428927680798005,-0.009340689806337767,
0.0484788029925187,0.0005339622976684947,
0.0485286783042394,-0.004180904229370749,
0.0485785536159601,0.0021129818250524134,
0.048628428927680795,0.01713386600956078,
0.0486783042394015,-0.003857068897992889,
0.04872817955112219,-0.008772879148164391,
0.048778054862842896,0.0110341001326278,
0.04882793017456359,0.0031430634864036324,
0.04887780548628429,0.012112389440419289,
0.04892768079800499,-0.008192779539329308,
0.048977556109725685,-0.027631060317193125,
0.04902743142144638,-0.0488106269687434,
0.049077306733167084,-0.006659052798893378,
0.04912718204488778,-0.007005403944336874,
0.04917705735660848,-0.010398439434664874,
0.04922693266832918,-0.031087048211284225,
0.04927680798004987,-0.020235059626700608,
0.049326683291770576,-0.005731065222870958,
0.04937655860349127,-0.030886920958053725,
0.04942643391521197,-0.023846289682122133,
0.04947630922693267,-0.04230769167438099,
0.049526184538653366,-0.028041729885189978,
0.04957605985037406,-0.03691843095536166,
0.049625935162094764,-0.019372305724248064,
0.04967581047381546,-0.0077748174101783035,
0.04972568578553616,-0.010391112570863966,
0.04977556109725686,-0.015264188670189414,
0.049825436408977554,-0.026837603436633304,
0.04987531172069826,-0.018355923928836868,
0.04992518703241895,0.015952076424427745,
0.04997506234413965,-0.018853325423731356,
0.05002493765586035,0.008993992536808266,
0.050074812967581046,-0.05185916263158044,
0.05012468827930175,-0.003520285605378745,
0.050174563591022445,-0.027560284798679224,
0.05022443890274314,-0.0029662187232443963,
0.05027431421446384,-0.03218401905240695,
0.05032418952618454,-0.03387396660266588,
0.050374064837905234,-0.002364575350512349,
0.05042394014962594,-0.009714736495772012,
0.05047381546134663,-0.015487628392672462,
0.05052369077306733,-0.028169560172951677,
0.05057356608478803,-0.0282397036086229,
0.05062344139650873,0.021433171853728283,
0.05067331670822943,0.015133626613204347,
0.050723192019950125,-0.023131486436250587,
0.05077306733167082,0.0034050785051015636,
0.050822942643391524,-0.0131741685922924,
0.05087281795511222,-0.033730467960033386,
0.050922693266832915,0.011299605003230774,
0.05097256857855362,-0.01221722691726329,
0.05102244389027431,-0.01883986346681201,
0.051072319201995016,-0.034165025990762224,
0.05112219451371571,-0.02877131730982943,
0.05117206982543641,-0.0008753979469333269,
0.05122194513715711,-0.016440453440141348,
0.051271820448877806,3.395007581317305e-05,
0.0513216957605985,-0.016228142960233755,
0.051371571072319204,-0.035452511727175146,
0.0514214463840399,-0.012830558306834624,
0.051471321695760595,-0.014592111355734346,
0.0515211970074813,-0.017692646767660476,
0.051571072319201994,-0.003498152368471218,
0.051620947630922696,-0.004208966752620891,
0.05167082294264339,-0.04070768462634565,
0.05172069825436409,-0.04123763976899443,
0.05177057356608479,-0.010699307894554406,
0.051820448877805486,-0.015100122701492507,
0.05187032418952618,-0.012740278265750424,
0.051920199501246884,-0.009022883537448676,
0.05197007481296758,0.006691343363506866,
0.052019950124688276,-0.019307331786102663,
0.05206982543640898,-0.018984247349941565,
0.052119700748129674,-0.01422461142870051,
0.05216957605985038,-0.010713989596726849,
0.05221945137157107,-0.021289460044373567,
0.05226932668329177,-0.0020435851024575118,
0.05231920199501247,-0.02278451896544397,
0.05236907730673317,-0.015596047218556905,
0.05241895261845386,-0.0012851793597348244,
0.052468827930174565,-0.015314778631393175,
0.05251870324189526,-0.04138397062025235,
0.05256857855361596,0.016273735762991282,
0.05261845386533666,0.0018655250504574505,
0.052668329177057355,0.01340728165333493,
0.05271820448877806,-0.026486210929390887,
0.05276807980049875,-0.003378887199364841,
0.05281795511221945,-0.02899834947269518,
0.05286783042394015,-0.024996020918231488,
0.05291770573566085,-0.004909403590349802,
0.05296758104738154,-0.007913461335863584,
0.053017456359102245,0.02641685268183012,
0.05306733167082294,-0.007287003437374446,
0.053117206982543644,-0.022905771592470904,
0.05316708229426434,-0.00430448506750797,
0.053216957605985035,-0.03430794208452037,
0.05326683291770574,-0.03553083643534062,
0.053316708229426434,0.008153920528015337,
0.05336658354114713,-0.019395062054134424,
0.05341645885286783,0.0016442852905550823,
0.05346633416458853,-0.018449966286905237,
0.05351620947630923,-0.017623314562934884,
0.053566084788029926,0.0038440517984470214,
0.05361596009975062,0.008269214085703202,
0.053665835411471324,-0.035192278066266715,
0.05371571072319202,-0.005681928469204616,
0.053765586034912716,-0.03923884846813617,
0.05381546134663342,-0.012871899386151995,
0.053865336658354114,0.010821134839905135,
0.05391521197007481,0.01446398857084806,
0.05396508728179551,-0.030047123739274876,
0.05401496259351621,-0.0057666948846993756,
0.05406483790523691,-0.029201382573323217,
0.054114713216957606,-0.0219881190285297,
0.0541645885286783,-0.012177913400692544,
0.054214463840399005,-0.011522235094767993,
0.0542643391521197,0.010312515336213227,
0.054314214463840396,0.015810182317245847,
0.0543640897755611,-0.0035127607021722936,
0.054413965087281795,-0.014029932707931602,
0.0544638403990025,-4.2054552832710736e-05,
0.05451371571072319,-0.0065542141358779634,
0.05456359102244389,-0.031101681802805814,
0.05461346633416459,-0.00854786370748936,
0.05466334164588529,-0.0043332515897464225,
0.05471321695760598,0.0018599571845748395,
0.054763092269326685,-0.005109501304518459,
0.05481296758104738,-0.023059062619464936,
0.05486284289276808,-0.008973018897667993,
0.05491271820448878,-0.015453750543333894,
0.054962593516209475,-5.5255351823134576e-05,
0.05501246882793018,-0.01191508376737322,
0.05506234413965087,-0.006538459846177151,
0.05511221945137157,0.027082001953067224,
0.05516209476309227,-0.008630178825561774,
0.05521197007481297,0.009059296545457415,
0.05526184538653366,-0.004534373111524288,
0.055311720698254366,-0.016811915474115195,
0.05536159600997506,-0.008370849745676506,
0.05541147132169576,-0.015902489009655758,
0.05546134663341646,-0.00931922675860352,
0.055511221945137156,0.001189225628444483,
0.05556109725685786,-0.009677472847697497,
0.055610972568578554,0.005656118102250176,
0.05566084788029925,-0.0043581495198483314,
0.05571072319201995,-0.016897409052852027,
0.05576059850374065,0.0023153978736902025,
0.055810473815461344,-0.0337549161625052,
0.055860349127182046,-0.013753790624068594,
0.05591022443890274,-0.0166138497598044,
0.055960099750623445,-0.003965242778410054,
0.05600997506234414,-0.006517066357709444,
0.056059850374064836,0.00912559773959951,
0.05610972568578554,0.002676295106292792,
0.056159600997506234,0.029350073833977232,
0.05620947630922693,-0.0033531557731317535,
0.05625935162094763,0.025446612515594935,
0.05630922693266833,0.015646694588092522,
0.056359102244389024,-0.008389061136831306,
0.05640897755610973,-0.0009560962937879237,
0.05645885286783042,0.011598400709960464,
0.056508728179551125,-0.01795929750541404,
0.05655860349127182,0.025480456350069618,
0.056608478802992516,-0.010452648380343495,
0.05665835411471322,-0.0009295740252023279,
0.056708229426433915,0.024957810203822157,
0.05675810473815461,0.01693247844666395,
0.05680798004987531,-0.0037098380052765865,
0.05685785536159601,0.005936935211221092,
0.05690773067331671,-0.00740903771782213,
0.05695760598503741,0.01001297516643489,
0.0570074812967581,0.006351569259458883,
0.057057356608478806,0.009871919409845479,
0.0571072319201995,-0.0038198057076571836,
0.0571571072319202,-0.023142399911551967,
0.0572069825436409,0.03045712034726686,
0.057256857855361595,-0.021949930282531095,
0.05730673316708229,0.027476490579804582,
0.057356608478802994,0.03049557324034012,
0.05740648379052369,0.01267132734345798,
0.05745635910224439,0.004400753837924724,
0.05750623441396509,0.01654507444911703,
0.05755610972568578,0.022216895967117317,
0.057605985037406486,0.005769162071634403,
0.05765586034912718,0.016546995085966177,
0.05770573566084788,0.006094026769255701,
0.05775561097256858,0.0032286631252684845,
0.057805486284289276,0.016227087858221818,
0.05785536159600998,-0.016997394367949014,
0.057905236907730674,0.010898178817730942,
0.05795511221945137,0.018042159085638085,
0.05800498753117207,0.02883422428191057,
0.05805486284289277,0.019051381354856938,
0.058104738154613464,0.011746118430315547,
0.05815461346633417,-0.015974437173723127,
0.05820448877805486,0.011558252329557957,
0.05825436408977556,-0.0034985498843727904,
0.05830423940149626,0.020942363587903832,
0.058354114713216956,0.01648844252383124,
0.05840399002493766,0.033169695216865476,
0.058453865336658355,0.022311161779238566,
0.05850374064837905,-0.008845768135514642,
0.05855361596009975,-0.00527282875939427,
0.05860349127182045,0.010570397777038339,
0.058653366583541144,-0.009526517853966996,
0.05870324189526185,0.02417033524376451,
0.05875311720698254,0.024174806434860828,
0.05880299251870324,0.039629781349629106,
0.05885286783042394,-0.007548138645731027,
0.05890274314214464,0.027368494476635995,
0.05895261845386534,0.03227145247502187,
0.059002493765586035,0.006161357338731877,
0.05905236907730673,0.010711535557865158,
0.059102244389027433,0.035176247113441875,
0.05915211970074813,0.023150629021044467,
0.059201995012468825,0.0120922912832792,
0.05925187032418953,0.018948303539389078,
0.05930174563591022,0.04018486753640165,
0.059351620947630926,0.0304393134142307,
0.05940149625935162,0.034131251558215996,
0.05945137157107232,0.035808643239125665,
0.05950124688279302,0.01596527665013045,
0.059551122194513716,0.007274713011405032,
0.05960099750623441,0.02837711815953376,
0.059650872817955114,0.01715244316037552,
0.05970074812967581,0.03531591552543673,
0.059750623441396505,0.0025866669731138547,
0.05980049875311721,0.0358123007374625,
0.059850374064837904,0.01619417497554782,
0.059900249376558606,0.02426565123041679,
0.0599501246882793,-0.004702306005110197,
0.06,0.038219859584774474,
0.0600498753117207,0.020443901617654088,
0.060099750623441396,0.03100362800991089,
0.06014962593516209,0.020280472753315723,
0.060199501246882794,0.02280678734997037,
0.06024937655860349,0.02340800155978234,
0.06029925187032419,0.026202822145646586,
0.06034912718204489,0.008453012812693304,
0.060399002493765584,0.020945293665353738,
0.06044887780548629,0.04954853812003346,
0.06049875311720698,0.021450640005908003,
0.06054862842892768,0.047556202801154766,
0.06059850374064838,-0.0021782484618634405,
0.06064837905236908,0.020104719619813614,
0.06069825436408977,0.0007124419697715906,
0.060748129675810475,0.026420779197508844,
0.06079800498753117,0.017212416130256532,
0.06084788029925187,0.02634122777272263,
0.06089775561097257,-0.0009905251522672395,
0.060947630922693265,0.03700572393775946,
0.06099750623441397,0.02127688457177221,
0.06104738154613466,0.027425022583161447,
0.06109725685785536,0.029760310195737855,
0.06114713216957606,0.04038691457776679,
0.06119700748129676,0.00838983082934705,
0.06124688279301746,0.017446885576188773,
0.061296758104738155,0.03214244205268919,
0.06134663341645885,0.013522083197422562,
0.061396508728179554,0.055189839727764756,
0.06144638403990025,0.021251864944057258,
0.061496259351620945,0.009802300410695484,
0.06154613466334165,0.06557956186272854,
0.061596009975062344,0.010598955837969085,
0.06164588528678304,-0.011419450707297094,
0.06169576059850374,0.03830032705730382,
0.06174563591022444,0.039623252165969076,
0.06179551122194514,0.047502123981883096,
0.061845386533665836,0.023266644095101197,
0.06189526184538653,0.019748679397457048,
0.061945137157107234,0.02233928038399679,
0.06199501246882793,0.04064469915438741,
0.062044887780548626,0.025429714938473597,
0.06209476309226933,0.030568959865836277,
0.062144638403990024,0.01583670391544087,
0.06219451371571072,0.031843778320449434,
0.06224438902743142,0.011576300754296076,
0.06229426433915212,0.02871613084092928,
0.06234413965087282,0.020029008737111883,
0.062394014962593516,0.025336252007515474,
0.06244389027431421,0.03606664157531138,
0.062493765586034915,0.025073891658281514,
0.06254364089775562,0.027541179240672668,
0.06259351620947631,0.008023222994448829,
0.06264339152119701,0.029604987215234024,
0.0626932668329177,0.018173704103234673,
0.0627431421446384,-0.0050888781106643854,
0.0627930174563591,0.028144384693234076,
0.0628428927680798,0.0006364606468845166,
0.0628927680798005,0.04238998406949264,
0.0629426433915212,0.015102204110038726,
0.06299251870324189,0.02854449178356283,
0.06304239401496259,0.00786421663439243,
0.0630922693266833,0.0032114054194346854,
0.063142144638404,0.02472839816411675,
0.06319201995012469,0.011015768360605372,
0.06324189526184539,0.035042139737280195,
0.06329177057356608,-0.006672899349970656,
0.06334164588528678,-0.0035573741093931285,
0.06339152119700749,0.03868869451129292,
0.06344139650872818,0.01145610674568874,
0.06349127182044888,0.042947737151998684,
0.06354114713216957,0.009944353899026197,
0.06359102244389027,0.02713417182914926,
0.06364089775561098,0.01908804550713952,
0.06369077306733167,0.021784475226453853,
0.06374064837905237,0.018494042830296032,
0.06379052369077307,0.015094202891910768,
0.06384039900249376,0.0015086987667600922,
0.06389027431421446,0.02430857733892859,
0.06394014962593517,-0.0028593402724398816,
0.06399002493765586,0.04986151328393437,
0.06403990024937656,0.03288041544395508,
0.06408977556109725,0.025663755887800607,
0.06413965087281795,0.03419862405680054,
0.06418952618453866,0.010902239259410765,
0.06423940149625935,0.018848173776285868,
0.06428927680798005,0.018455426003021635,
0.06433915211970075,0.008131486778246523,
0.06438902743142144,0.024931994515454727,
0.06443890274314215,0.0016896125667708092,
0.06448877805486285,0.02656477862109901,
0.06453865336658354,0.03820819010722563,
0.06458852867830424,0.0032618319784236526,
0.06463840399002493,0.007348967506929389,
0.06468827930174563,0.015036573212025776,
0.06473815461346634,0.011626270104635496,
0.06478802992518704,0.0049532665572028355,
0.06483790523690773,0.029218461408414463,
0.06488778054862843,0.030489221017769248,
0.06493765586034912,0.030974708191170274,
0.06498753117206983,0.02422901576974085,
0.06503740648379053,-0.0016226591061369727,
0.06508728179551122,0.004300736766770263,
0.06513715710723192,0.02854901965077876,
0.06518703241895261,0.003058365415789268,
0.06523690773067331,0.02804412163844873,
0.06528678304239402,0.02646733728346893,
0.06533665835411472,0.00629898010469915,
0.06538653366583541,0.016766689415872473,
0.06543640897755611,0.015628601869327602,
0.0654862842892768,0.00934553203463237,
0.06553615960099751,-0.03118284959824227,
0.06558603491271821,0.013086918772082132,
0.0656359102244389,0.007745712513389151,
0.0656857855361596,0.03493523677330536,
0.0657356608478803,-0.0025341096320429073,
0.06578553615960099,0.012666651755288603,
0.0658354114713217,-0.0008218321587117779,
0.0658852867830424,0.000709151741735861,
0.06593516209476309,-0.0008712343753450591,
0.06598503740648379,0.008048071979600524,
0.06603491271820448,0.012912467751067814,
0.06608478802992519,-0.010356226127021211,
0.06613466334164589,0.01082476194556235,
0.06618453865336658,0.013226836437186211,
0.06623441396508728,0.0018541783179153361,
0.06628428927680798,-0.004771390346542672,
0.06633416458852869,-0.011515867251492116,
0.06638403990024938,-0.015445524554905233,
0.06643391521197008,0.0183397446093797,
0.06648379052369077,-0.019084452226434945,
0.06653366583541147,0.0036533676704346356,
0.06658354114713216,-0.008572772944908576,
0.06663341645885287,0.0040883150156223805,
0.06668329177057357,0.031356550413122325,
0.06673316708229426,-0.0027154765421375446,
0.06678304239401496,-0.006323091334988054,
0.06683291770573566,0.017152404998548962,
0.06688279301745637,-0.021974696426334876,
0.06693266832917706,0.0003029387793094217,
0.06698254364089776,0.013229594634940611,
0.06703241895261845,0.009830641723198655,
0.06708229426433915,-0.003546388689194953,
0.06713216957605984,0.007996261395813633,
0.06718204488778055,0.016104226279559868,
0.06723192019950125,-0.0033881903462131984,
0.06728179551122195,0.00029750486087766416,
0.06733167082294264,-0.0011699230336750309,
0.06738154613466334,-0.012511169055491331,
0.06743142144638405,-0.004310059090835941,
0.06748129675810474,0.017355377301579794,
0.06753117206982544,0.008170894261213408,
0.06758104738154613,0.0046768640113164905,
0.06763092269326683,0.007041528317345471,
0.06768079800498752,-0.005464528552339356,
0.06773067331670823,0.0007280002711980396,
0.06778054862842893,0.04158167610477533,
0.06783042394014963,0.011271380844256627,
0.06788029925187032,0.018928825957000555,
0.06793017456359102,0.004455143370771494,
0.06798004987531173,0.02974429554952609,
0.06802992518703242,-0.006021765544689804,
0.06807980049875312,-0.02079323590567004,
0.06812967581047381,-0.014680056832157767,
0.06817955112219451,-0.0014710900165303365,
0.0682294264339152,0.01888552159413054,
0.06827930174563591,0.005370004869843144,
0.06832917705735661,-0.01664701871139632,
0.0683790523690773,-0.00024363293587881078,
0.068428927680798,-0.02395563894740902,
0.0684788029925187,-0.020905985749534877,
0.06852867830423941,-0.0047651775230262775,
0.0685785536159601,0.02756158110314698,
0.0686284289276808,0.0033964961824256134,
0.0686783042394015,-0.03511758051401516,
0.06872817955112219,-0.004026429688757383,
0.0687780548628429,-0.03892041237291936,
0.0688279301745636,0.028149893640230593,
0.06887780548628429,-0.01590357672893123,
0.06892768079800499,-0.02153645019344509,
0.06897755610972568,-0.012901039712126361,
0.06902743142144638,-0.020404765924412628,
0.06907730673316709,-0.012337416767654262,
0.06912718204488778,-0.015460298349459495,
0.06917705735660848,-0.01263362972544821,
0.06922693266832917,-0.015550231010864427,
0.06927680798004987,0.021027985699741972,
0.06932668329177058,-0.012606961840066341,
0.06937655860349128,-0.00930093212833457,
0.06942643391521197,-0.03087104823078749,
0.06947630922693267,-0.01335148196495292,
0.06952618453865336,-0.011475198598318312,
0.06957605985037406,0.00010170572604254607,
0.06962593516209477,-0.008302988222761869,
0.06967581047381546,-0.005418531530737611,
0.06972568578553616,-0.00658333091919577,
0.06977556109725686,-0.002839766338755918,
0.06982543640897755,-0.016407690274596223,
0.06987531172069826,-0.027410521043092873,
0.06992518703241896,-0.024982184853683483,
0.06997506234413965,-0.0061739471090248455,
0.07002493765586035,-0.002852304171163096,
0.07007481296758104,-0.04922487887719869,
0.07012468827930174,-0.0038015742194649933,
0.07017456359102245,0.0033379827105104037,
0.07022443890274314,-0.014769147486739208,
0.07027431421446384,0.010458417926567208,
0.07032418952618454,-0.026782885670832937,
0.07037406483790523,0.006542562532644286,
0.07042394014962594,-0.022594678280953476,
0.07047381546134664,0.0036899687694602144,
0.07052369077306733,-0.0139495025991738,
0.07057356608478803,0.008183040418204609,
0.07062344139650872,-0.07093393748985125,
0.07067331670822943,-0.011419961136110261,
0.07072319201995013,-0.0278392058821767,
0.07077306733167082,-0.02527777495193358,
0.07082294264339152,-0.015177883172845455,
0.07087281795511222,-0.017988737013273248,
0.07092269326683291,-0.021732851421045297,
0.07097256857855362,-0.0030973961717218074,
0.07102244389027432,-0.00011725844213713622,
0.07107231920199501,-0.008654798689565518,
0.07112219451371571,-0.015367966067864084,
0.0711720698254364,-0.040857455032063894,
0.07122194513715711,-0.00711354544366283,
0.07127182044887781,-0.025188901031987503,
0.0713216957605985,-0.002734950677388862,
0.0713715710723192,0.010269850482116708,
0.0714214463840399,-0.026369541452343444,
0.07147132169576059,-0.022340885912328537,
0.0715211970074813,0.0177503514241943,
0.071571072319202,-0.00168272907407771,
0.0716209476309227,-0.03151598374185029,
0.07167082294264339,-0.03578989052978468,
0.07172069825436408,-0.022213669966630944,
0.0717705735660848,-0.011502852154609777,
0.07182044887780549,-0.02171302384110385,
0.07187032418952619,-0.01586339873673735,
0.07192019950124688,-0.005755673203586808,
0.07197007481296758,0.006208396041561422,
0.07201995012468827,-0.01996514232808069,
0.07206982543640898,-0.015238702224150415,
0.07211970074812968,-0.0049963914753155154,
0.07216957605985037,-0.015934343565983278,
0.07221945137157107,-0.013624854264284527,
0.07226932668329177,-0.011476444975704053,
0.07231920199501247,-0.029376649021597895,
0.07236907730673317,-0.03068060375061117,
0.07241895261845387,0.0037468689887887666,
0.07246882793017456,0.009570193418642542,
0.07251870324189526,-0.012140857192420387,
0.07256857855361595,-0.0010324910295687918,
0.07261845386533666,-0.01865067872876473,
0.07266832917705736,0.0164128840499745,
0.07271820448877805,-0.014641895320362459,
0.07276807980049875,0.0055200451424072695,
0.07281795511221945,0.018920021220401328,
0.07286783042394016,-0.006123749558913928,
0.07291770573566085,-0.023553421173944378,
0.07296758104738155,0.00929807784495712,
0.07301745635910224,-0.02678979249376033,
0.07306733167082294,-0.018099173427340506,
0.07311720698254365,-0.0033906819690506292,
0.07316708229426434,0.025704211993954965,
0.07321695760598504,0.0004860454524948654,
0.07326683291770573,-0.02013825609477346,
0.07331670822942643,-0.005781259460901018,
0.07336658354114713,0.011673484573115536,
0.07341645885286784,0.0054535660436252145,
0.07346633416458853,-0.008537311791197436,
0.07351620947630923,-0.025714619484912184,
0.07356608478802992,-0.025541273098350355,
0.07361596009975062,-0.018582443013719762,
0.07366583541147133,-0.018594493004918528,
0.07371571072319202,-0.007554904047408313,
0.07376558603491272,0.005685913640323132,
0.07381546134663342,-0.004604215655580272,
0.07386533665835411,-0.0009729629595103505,
0.0739152119700748,-0.0021563624785594804,
0.07396508728179552,-0.013516224094870147,
0.07401496259351621,-0.02153828201463131,
0.07406483790523691,-0.010937563599277436,
0.0741147132169576,0.006135413558358606,
0.0741645885286783,-0.018237664457474025,
0.07421446384039901,0.012538536741000968,
0.0742643391521197,0.004800178171844807,
0.0743142144638404,-0.014860793126876123,
0.0743640897755611,0.012836606636897356,
0.07441396508728179,0.0008168684586933091,
0.07446384039900249,-0.02957656509594283,
0.0745137157107232,-0.007767778629301,
0.07456359102244389,0.017769697453559885,
0.07461346633416459,0.015845620832517587,
0.07466334164588528,0.03313773707271196,
0.07471321695760598,-0.0352507194569829,
0.07476309226932669,0.0008248094678997052,
0.07481296758104738,-0.018308880909933857,
0.07486284289276808,-0.024977254771439274,
0.07491271820448878,-0.011028760820862765,
0.07496259351620947,0.02198356293008527,
0.07501246882793017,0.0017658226321875586,
0.07506234413965088,-0.026355669298997617,
0.07511221945137157,0.015411310036839584,
0.07516209476309227,-0.016394792620248316,
0.07521197007481296,-0.033717645138122275,
0.07526184538653366,-0.004633824965039123,
0.07531172069825437,0.008015220466654933,
0.07536159600997507,0.012400591323047367,
0.07541147132169576,-0.0004263110765214929,
0.07546134663341646,0.022266274449208114,
0.07551122194513715,-0.016504532527396067,
0.07556109725685786,0.005494271507221468,
0.07561097256857856,-0.01865316543286079,
0.07566084788029925,-0.030052476055106046,
0.07571072319201995,-0.005389845693672683,
0.07576059850374064,-0.0004653776753213187,
0.07581047381546134,-0.010651092824350837,
0.07586034912718205,0.014107270142847945,
0.07591022443890275,-0.0262826377334442,
0.07596009975062344,0.008086014808652859,
0.07600997506234414,-0.0092314435692199,
0.07605985037406483,-0.01875907613736481,
0.07610972568578554,0.0013600561181150738,
0.07615960099750624,-0.021865554355867334,
0.07620947630922693,-0.018270248370694873,
0.07625935162094763,-0.012859433123817985,
0.07630922693266833,-0.01563442762126295,
0.07635910224438902,-0.0070191642470209805,
0.07640897755610973,0.00026356106191717174,
0.07645885286783043,0.003634356572571983,
0.07650872817955112,-0.007451489363581585,
0.07655860349127182,0.0014826260448937405,
0.07660847880299251,0.00341144067491228,
0.07665835411471322,0.0019486103313666103,
0.07670822942643392,0.01414324477514993,
0.07675810473815461,0.006939895059776889,
0.07680798004987531,-0.010280172259593589,
0.076857855361596,-0.05057749250953129,
0.0769077306733167,0.0037240437265610733,
0.07695760598503741,0.020412849942212517,
0.0770074812967581,0.00823805796584616,
0.0770573566084788,0.028456571289903625,
0.0771072319201995,0.010516424910488088,
0.0771571072319202,0.03353321652345249,
0.0772069825436409,0.0075626527491421645,
0.0772568578553616,0.026218007009892456,
0.0773067331670823,-0.0008848604254718846,
0.07735660847880299,0.013069219080688277,
0.07740648379052369,0.016931416280773222,
0.0774563591022444,0.013216405977361945,
0.07750623441396509,0.017733593430538375,
0.07755610972568579,0.029324943963086075,
0.07760598503740648,-0.0024385100806174707,
0.07765586034912718,-0.01438872862650354,
0.07770573566084787,-0.016901298749634995,
0.07775561097256858,-0.014759064270980362,
0.07780548628428928,0.01076962504561247,
0.07785536159600998,0.01458639343435429,
0.07790523690773067,0.04315398746169485,
0.07795511221945137,0.020336999670067663,
0.07800498753117208,0.0005404381939468766,
0.07805486284289277,-0.023494985819383075,
0.07810473815461347,0.031998061020883865,
0.07815461346633416,0.03751211853125733,
0.07820448877805486,-0.0009966693832327324,
0.07825436408977555,0.013868838817684253,
0.07830423940149626,0.001830506831529093,
0.07835411471321696,0.033934971365534305,
0.07840399002493766,-0.005006515131823739,
0.07845386533665835,0.01701767300022764,
0.07850374064837905,-0.0012656220524388737,
0.07855361596009976,0.027535707029816066,
0.07860349127182045,0.019199399466169817,
0.07865336658354115,-0.000251629002484894,
0.07870324189526184,0.04996791330821276,
0.07875311720698254,0.014628673866950818,
0.07880299251870324,0.008884849561000134,
0.07885286783042394,0.029715407246999993,
0.07890274314214464,-0.007640439537780274,
0.07895261845386534,0.004826215098516988,
0.07900249376558603,0.01738218120315216,
0.07905236907730673,0.02735671214283091,
0.07910224438902744,0.030577917971323212,
0.07915211970074813,-0.005864960945575138,
0.07920199501246883,0.002178003448957102,
0.07925187032418952,0.04073482580449676,
0.07930174563591022,0.01946916214791676,
0.07935162094763092,0.01695864725078393,
0.07940149625935163,0.027023875020914592,
0.07945137157107232,0.027314244957915377,
0.07950124688279302,0.0320609691057629,
0.07955112219451371,0.015240502142075767,
0.07960099750623441,0.027059546536631007,
0.07965087281795512,0.01846195656221611,
0.07970074812967581,0.01822559244046698,
0.07975062344139651,0.008108818267321573,
0.0798004987531172,0.019831739402791045,
0.0798503740648379,0.01755108697813105,
0.07990024937655861,0.05869931407822516,
0.0799501246882793,-0.00929856372686124,
0.08,0.025604468482614898,
0.0800498753117207,0.0365721316074934,
0.0800997506234414,0.019754546369998516,
0.08014962593516209,0.028348064094547515,
0.0801995012468828,0.035434394724426985,
0.0802493765586035,0.04538551229939681,
0.08029925187032419,0.021192827370886062,
0.08034912718204489,0.030424078834618937,
0.08039900249376558,0.026766526602569576,
0.08044887780548629,0.032567668706026044,
0.08049875311720699,0.04107411749231889,
0.08054862842892768,0.0012485341804625988,
0.08059850374064838,0.0018453471706424973,
0.08064837905236907,0.020743033293154606,
0.08069825436408977,0.03305030725236827,
0.08074812967581048,0.024607566786675885,
0.08079800498753117,0.02255962539441926,
0.08084788029925187,0.02191366846799966,
0.08089775561097257,0.0280562780981187,
0.08094763092269326,0.04505061797254582,
0.08099750623441397,0.030744632713404274,
0.08104738154613467,0.026787790203570847,
0.08109725685785536,0.0343769319094787,
0.08114713216957606,0.03319871353809446,
0.08119700748129675,0.04323992966596556,
0.08124688279301745,0.03918278015030195,
0.08129675810473816,0.031667210378251834,
0.08134663341645886,0.008315014512993074,
0.08139650872817955,0.022444005874786725,
0.08144638403990025,0.0603168242770499,
0.08149625935162094,0.02459863026770051,
0.08154613466334165,0.0014312963545278189,
0.08159600997506235,0.022055637534572375,
0.08164588528678304,0.052571359081725236,
0.08169576059850374,0.030342453074168364,
0.08174563591022443,0.04830552304045604,
0.08179551122194513,0.019579789092353105,
0.08184538653366584,0.024567172295942127,
0.08189526184538654,0.012390096018121122,
0.08194513715710723,0.02407277817850928,
0.08199501246882793,0.007942415000784037,
0.08204488778054862,0.00723219281839162,
0.08209476309226933,0.02275737169419339,
0.08214463840399003,0.006749033169316212,
0.08219451371571072,0.03348112746493033,
0.08224438902743142,0.048229239102566365,
0.08229426433915212,0.01320187417759125,
0.08234413965087282,0.03448211142195676,
0.08239401496259352,0.023390095154975695,
0.08244389027431422,0.013807396434155376,
0.08249376558603491,0.024224244493197766,
0.08254364089775561,-0.0012276928284402112,
0.0825935162094763,0.03472813546456648,
0.08264339152119701,0.02875045688461921,
0.08269326683291771,0.049731533335540715,
0.0827431421446384,0.028979370260045465,
0.0827930174563591,0.023506170413046333,
0.0828428927680798,0.021550737160264732,
0.0828927680798005,0.020814795510914825,
0.0829426433915212,0.05225522017359821,
0.0829925187032419,0.011018528777796468,
0.08304239401496259,0.007148717659404946,
0.08309226932668329,0.044023731976226665,
0.08314214463840398,0.03785927731869555,
0.0831920199501247,0.025094896504739006,
0.08324189526184539,0.0013881724136498332,
0.08329177057356608,0.028539805597077195,
0.08334164588528678,0.027942213818444517,
0.08339152119700748,0.049205022116179664,
0.08344139650872819,0.04953988818989184,
0.08349127182044888,-0.01576174983858277,
0.08354114713216958,0.02560640509387791,
0.08359102244389027,0.023566583459342077,
0.08364089775561097,0.017995322996640105,
0.08369077306733166,0.008629634202447844,
0.08374064837905237,0.016580950356913954,
0.08379052369077307,0.017320305625212244,
0.08384039900249377,0.03272046030959537,
0.08389027431421446,0.020472586572417507,
0.08394014962593516,0.04089300725931756,
0.08399002493765587,0.02800400969938882,
0.08403990024937656,0.021802517200602882,
0.08408977556109726,0.04302355763962337,
0.08413965087281795,0.00017006209414670292,
0.08418952618453865,0.02565922710660416,
0.08423940149625936,0.012553032519536607,
0.08428927680798005,0.030505054974494888,
0.08433915211970075,0.03602358121971006,
0.08438902743142145,-0.006159090624974932,
0.08443890274314214,0.003374438705470356,
0.08448877805486284,0.03176730863096587,
0.08453865336658355,0.01910684688109611,
0.08458852867830424,0.06509725723236284,
0.08463840399002494,0.029797835894646428,
0.08468827930174563,0.042510784716413855,
0.08473815461346633,0.005276238706267467,
0.08478802992518704,-0.003149073527695303,
0.08483790523690773,0.036467898933832316,
0.08488778054862843,0.020547397825594338,
0.08493765586034913,0.014129283117527132,
0.08498753117206982,0.007130419808905294,
0.08503740648379052,0.03719319394584586,
0.08508728179551123,0.025427255842184873,
0.08513715710723192,0.009236521621674744,
0.08518703241895262,0.04578214584970973,
0.08523690773067331,0.006878098546740786,
0.08528678304239401,0.020940018700743447,
0.08533665835411472,0.001280520197171186,
0.08538653366583542,-0.00027564209533081224,
0.08543640897755611,0.025183703901835133,
0.0854862842892768,0.03460700200526385,
0.0855361596009975,0.02154824974696698,
0.0855860349127182,-0.008075397183927881,
0.08563591022443891,-0.007335358145170289,
0.0856857855361596,-0.000358634944993913,
0.0857356608478803,0.014050649002789208,
0.085785536159601,0.013621532929985343,
0.08583541147132169,0.009231466543164004,
0.0858852867830424,-0.007958096009022695,
0.0859351620947631,0.030915872560608303,
0.08598503740648379,0.0006751614448015104,
0.08603491271820449,-0.005743326273445419,
0.08608478802992518,-0.020985192869173788,
0.08613466334164588,0.009060996171389115,
0.08618453865336659,0.029745606932893763,
0.08623441396508728,0.020106741363993954,
0.08628428927680798,0.004341455430547109,
0.08633416458852868,-0.021502301192389352,
0.08638403990024937,0.01481298152526677,
0.08643391521197008,0.009316310778660198,
0.08648379052369078,4.883178277889991e-05,
0.08653366583541147,0.022994510089598807,
0.08658354114713217,-0.0008185502233975959,
0.08663341645885286,-0.023843662222020223,
0.08668329177057357,0.03193905686444071,
0.08673316708229427,0.0007967062619997798,
0.08678304239401496,-0.013290347702030835,
0.08683291770573566,-0.0066292216380116585,
0.08688279301745636,-0.008120570695555284,
0.08693266832917705,0.013305904316175812,
0.08698254364089776,0.015601840893000984,
0.08703241895261846,0.007520979276233533,
0.08708229426433915,0.01173125790616442,
0.08713216957605985,-0.001032315964951072,
0.08718204488778054,0.03954364052388203,
0.08723192019950125,0.020005588744658406,
0.08728179551122195,0.00010461247272497616,
0.08733167082294264,-0.0020516237917705075,
0.08738154613466334,-0.015973153899073927,
0.08743142144638404,0.002320141192870204,
0.08748129675810473,-0.004694446991586797,
0.08753117206982544,0.009755420269976816,
0.08758104738154614,-0.00505934492660911,
0.08763092269326683,0.01857983560804689,
0.08768079800498753,-0.006977120702994852,
0.08773067331670822,-0.02790643801546604,
0.08778054862842893,-4.304638349893501e-05,
0.08783042394014963,-0.02846815040873698,
0.08788029925187033,0.011589477416859102,
0.08793017456359102,0.0244808996886465,
0.08798004987531172,-0.0017805332407975095,
0.08802992518703241,0.0098032408006937,
0.08807980049875312,0.0038111073905278525,
0.08812967581047382,-0.005816683242637576,
0.08817955112219451,-0.009249770896474312,
0.08822942643391521,0.004185910555870125,
0.0882793017456359,-0.001201348429764982,
0.08832917705735661,-0.004001909861499227,
0.08837905236907731,-0.006834470918960818,
0.088428927680798,0.005032701232075236,
0.0884788029925187,-0.02220508967720483,
0.0885286783042394,-0.01672695300359027,
0.0885785536159601,-0.026058688085447524,
0.0886284289276808,-0.014458096031032895,
0.0886783042394015,-0.004577214958252716,
0.0887281795511222,0.000519545392878273,
0.08877805486284289,-0.008159652883901955,
0.08882793017456359,-0.01573558811577262,
0.0888778054862843,-0.02678138828334917,
0.08892768079800499,-0.014182825151045714,
0.08897755610972569,-0.006378512658182216,
0.08902743142144638,-0.02756211887577246,
0.08907730673316708,0.02151490368847232,
0.08912718204488779,-4.6564440112650124e-05,
0.08917705735660848,0.004682712703329456,
0.08922693266832918,-0.017360105646237772,
0.08927680798004987,-0.013244574022712162,
0.08932668329177057,-0.02296573493492489,
0.08937655860349127,-0.015926595264007436,
0.08942643391521198,0.005083343758797756,
0.08947630922693267,-0.02750377180309673,
0.08952618453865337,-0.017966125790817054,
0.08957605985037406,-0.004475741618168756,
0.08962593516209476,0.03269058072307937,
0.08967581047381547,0.021336824697272157,
0.08972568578553616,-0.010916059991681716,
0.08977556109725686,-0.014462664030596414,
0.08982543640897755,-0.008851563658657061,
0.08987531172069825,-0.01040092583013014,
0.08992518703241895,-0.01505060323996213,
0.08997506234413966,-0.006654508246504581,
0.09002493765586035,-0.005655997330691565,
0.09007481296758105,0.002483650858994253,
0.09012468827930174,-0.011730617214034188,
0.09017456359102244,-0.02334127680639284,
0.09022443890274315,-0.017260450922926815,
0.09027431421446384,-0.008924178649494092,
0.09032418952618454,-0.00769498441685594,
0.09037406483790524,-0.026488273745073045,
0.09042394014962593,-0.014477141718847683,
0.09047381546134663,-0.024557229572962254,
0.09052369077306734,-0.042479923053135804,
0.09057356608478803,-0.028233371717086907,
0.09062344139650873,0.009265318919141417,
0.09067331670822942,-0.02911579017544786,
0.09072319201995012,-0.006876980113261145,
0.09077306733167083,-0.033203612497301895,
0.09082294264339152,-0.022198655192909405,
0.09087281795511222,-0.007280724945873824,
0.09092269326683292,-0.007726315955721391,
0.09097256857855361,-0.01800740076818675,
0.09102244389027432,-0.01963982661608446,
0.09107231920199502,-0.03454738997603499,
0.09112219451371571,-0.017563478855865684,
0.09117206982543641,-0.010216343624488564,
0.0912219451371571,-0.003405530624597475,
0.0912718204488778,0.0038836870689639286,
0.09132169576059851,-0.012302918730377602,
0.0913715710723192,-0.0009286077683316844,
0.0914214463840399,-0.01597254814745028,
0.0914713216957606,-0.027234726562358327,
0.09152119700748129,-0.010551951644748989,
0.091571072319202,-0.024825772389474796,
0.0916209476309227,-0.018077454937231924,
0.09167082294264339,-0.02915391591853866,
0.09172069825436409,-0.025373407709993294,
0.09177057356608478,-0.008735373288738116,
0.09182044887780548,-0.022759448040071358,
0.09187032418952619,-0.03324324233776205,
0.09192019950124689,-0.03129343059609151,
0.09197007481296758,-0.03908557999786408,
0.09201995012468828,-0.025350316150303476,
0.09206982543640897,-0.019506137478750796,
0.09211970074812968,-0.03647825679442559,
0.09216957605985038,-0.01649005132659726,
0.09221945137157107,-0.0038598017209939585,
0.09226932668329177,-0.015659433757294148,
0.09231920199501246,-0.02226481578011638,
0.09236907730673316,-0.006226372077333582,
0.09241895261845387,-0.017053998285288113,
0.09246882793017457,-0.027953998041467223,
0.09251870324189526,-0.02488289256920281,
0.09256857855361596,0.0027134967158698644,
0.09261845386533665,0.012976811094651517,
0.09266832917705736,-0.05039187166884338,
0.09271820448877806,-0.029874912128010862,
0.09276807980049875,-0.034444475097337335,
0.09281795511221945,-0.015530443694444507,
0.09286783042394015,-0.016223226673025573,
0.09291770573566084,-0.02452088088961996,
0.09296758104738155,-0.020405097196853773,
0.09301745635910225,-0.013253103881188435,
0.09306733167082294,-0.014348762919313874,
0.09311720698254364,-0.031238226779041235,
0.09316708229426433,-0.03963966331695998,
0.09321695760598504,-0.05089566884959449,
0.09326683291770574,-0.02724740157059201,
0.09331670822942643,0.005162149529703237,
0.09336658354114713,-0.0271845395601682,
0.09341645885286783,-0.0296695428628452,
0.09346633416458854,-0.015611558182641597,
0.09351620947630923,-0.03582760751642862,
0.09356608478802993,-0.021515791798241403,
0.09361596009975062,-0.012724368462600904,
0.09366583541147132,-0.011017207378518057,
0.09371571072319201,-0.015427804496079528,
0.09376558603491272,0.026642077696699004,
0.09381546134663342,0.0025618791783747503,
0.09386533665835411,0.019556475557646554,
0.09391521197007481,-0.00771611170755728,
0.0939650872817955,-0.021143325654087095,
0.09401496259351622,-0.01067163056765041,
0.09406483790523691,-0.01220452311903315,
0.09411471321695761,0.02678488375211381,
0.0941645885286783,0.011971780418394938,
0.094214463840399,0.007611093626093952,
0.0942643391521197,-0.014962222059372532,
0.0943142144638404,-0.026717641318687646,
0.0943640897755611,-0.009439502433789954,
0.0944139650872818,-0.0007694972674279193,
0.09446384039900249,-0.009885900500281618,
0.09451371571072319,0.009483907808823383,
0.0945635910224439,-0.019665555204666296,
0.09461346633416459,0.016046358455759267,
0.09466334164588529,0.007760350077994234,
0.09471321695760598,0.0017696364147679541,
0.09476309226932668,0.011952503286435264,
0.09481296758104737,-0.005395458592890273,
0.09486284289276808,-0.0012400568404931605,
0.09491271820448878,0.018188246823212545,
0.09496259351620948,0.03662449262202245,
0.09501246882793017,-0.008597138746669734,
0.09506234413965087,-0.00710338411625789,
0.09511221945137158,0.010386656014682163,
0.09516209476309227,-0.01401404353543501,
0.09521197007481297,0.008547939781026949,
0.09526184538653366,-0.004417857883951956,
0.09531172069825436,-0.0037380514432121805,
0.09536159600997507,0.003990904448610499,
0.09541147132169576,0.025490637000708145,
0.09546134663341646,0.009404108237121853,
0.09551122194513716,0.006662050038526083,
0.09556109725685785,0.0015134567530378994,
0.09561097256857855,-0.019595105562238258,
0.09566084788029926,-0.00045858850098606536,
0.09571072319201995,0.019546289002655898,
0.09576059850374065,-0.013339035170148276,
0.09581047381546134,0.006439532858109227,
0.09586034912718204,-0.012258852438441324,
0.09591022443890275,0.010833273910764451,
0.09596009975062345,0.005965776208614514,
0.09600997506234414,-0.013290850077152451,
0.09605985037406484,-0.004769529958451898,
0.09610972568578553,0.005133140775171262,
0.09615960099750623,-0.002532937844429781,
0.09620947630922694,-0.0028685357908656475,
0.09625935162094763,0.005099106071872139,
0.09630922693266833,0.009480430806805744,
0.09635910224438902,-0.01863396306270158,
0.09640897755610972,-0.007456712284323668,
0.09645885286783043,0.014263682109764045,
0.09650872817955113,0.02842915438275157,
0.09655860349127182,0.018379582887370537,
0.09660847880299252,-0.00021493150038073838,
0.09665835411471321,0.006083141200242679,
0.09670822942643391,-0.036990068887153296,
0.09675810473815462,0.004323184563814974,
0.09680798004987531,0.011044471083834466,
0.09685785536159601,0.049820165341869914,
0.0969077306733167,-0.0004922541555309745,
0.0969576059850374,0.01955803520780868,
0.09700748129675811,0.0018478393378593347,
0.0970573566084788,0.026449320338995937,
0.0971072319201995,-0.0071710924809701045,
0.0971571072319202,0.03186163855651697,
0.0972069825436409,-0.0024401507222548083,
0.09725685785536159,0.04068794004797013,
0.0973067331670823,0.03240366779582503,
0.097356608478803,-0.004158920178433298,
0.09740648379052369,0.035760220482681515,
0.09745635910224439,0.01994769709580663,
0.09750623441396508,0.007117070931304757,
0.09755610972568579,0.022592585952166573,
0.09760598503740649,0.0010392502412539441,
0.09765586034912718,0.01930980249517776,
0.09770573566084788,0.0037327769362378565,
0.09775561097256857,0.03763806349667885,
0.09780548628428928,0.022833582933841676,
0.09785536159600998,-0.005163195269662177,
0.09790523690773068,0.01930477325471512,
0.09795511221945137,0.007885960079417,
0.09800498753117207,0.020797828644351937,
0.09805486284289276,-0.003928432246812323,
0.09810473815461347,0.0038227870588484775,
0.09815461346633417,0.01103995583559643,
0.09820448877805486,0.008188693929265986,
0.09825436408977556,0.03354843080896461,
0.09830423940149625,-0.013170826212442931,
0.09835411471321696,0.047369356236265786,
0.09840399002493766,0.01760336481196167,
0.09845386533665836,0.011941679293346379,
0.09850374064837905,0.017004519714347972,
0.09855361596009975,0.02881320165180578,
0.09860349127182044,-0.009822370973358772,
0.09865336658354115,0.004677345276894628,
0.09870324189526185,0.016191427810219483,
0.09875311720698254,0.011765441872756735,
0.09880299251870324,0.027950693621762966,
0.09885286783042393,0.006636103557562832,
0.09890274314214464,0.020117992691468852,
0.09895261845386534,0.01931072280935909,
0.09900249376558604,0.02685957400011255,
0.09905236907730673,0.026626594662038178,
0.09910224438902743,0.032715423089865886,
0.09915211970074812,0.048363792881378334,
0.09920199501246883,0.007859344800524297,
0.09925187032418953,0.030952793854929564,
0.09930174563591022,0.0269757746245207,
0.09935162094763092,0.010703396113839801,
0.09940149625935162,0.01888906333793125,
0.09945137157107233,0.020281716813240345,
0.09950124688279302,0.03380988813051069,
0.09955112219451372,0.02614498307137661,
0.09960099750623441,0.03750956427150864,
0.09965087281795511,-0.005018202779439047,
0.0997007481296758,0.006158112146801013,
0.09975062344139651,0.02967136277237665,
0.09980049875311721,0.015729482478093013,
0.0998503740648379,0.03449842245048623,
0.0999002493765586,0.035222366469900984,
0.0999501246882793,0.032157387361234115,
0.1,0.033694506328871436,
0.1000498753117207,0.04729576750704003,
0.1000997506234414,0.019970142823266757,
0.10014962593516209,0.03831698126024739,
0.10019950124688279,0.028279304942309097,
0.1002493765586035,0.051285701653961874,
0.1002992518703242,0.010022755242067933,
0.10034912718204489,0.04396351006733053,
0.10039900249376559,0.02153301958569288,
0.10044887780548628,0.03515602720118636,
0.10049875311720698,0.053318814155969715,
0.10054862842892769,0.03693661006370416,
0.10059850374064838,0.030382519580838645,
0.10064837905236908,0.040709242543111056,
0.10069825436408977,0.016431613458532,
0.10074812967581047,0.007976017467540588,
0.10079800498753118,0.03245021130816688,
0.10084788029925187,0.04164839693691494,
0.10089775561097257,0.018679083074870678,
0.10094763092269327,0.006727116534571351,
0.10099750623441396,0.002497478012899651,
0.10104738154613466,0.036051762121716804,
0.10109725685785537,0.029026948211116062,
0.10114713216957606,0.018244246912559395,
0.10119700748129676,0.0038230915946040923,
0.10124688279301745,0.014488284821076515,
0.10129675810473815,0.028433554092500167,
0.10134663341645886,0.0027747706958563476,
0.10139650872817955,0.009318860246409395,
0.10144638403990025,0.0070387053217861525,
0.10149625935162095,0.0005683404019730769,
0.10154613466334164,0.0333655104285423,
0.10159600997506234,0.03883241118010688,
0.10164588528678305,0.0450812222947197,
0.10169576059850374,0.02319964304597788,
0.10174563591022444,0.017563260333178655,
0.10179551122194513,0.04861011966193876,
0.10184538653366583,0.01884818108716435,
0.10189526184538654,0.004123859457417483,
0.10194513715710724,0.03649440261943322,
0.10199501246882793,0.02382540497225441,
0.10204488778054863,0.030450100528084285,
0.10209476309226932,-0.0019355412951806601,
0.10214463840399003,0.029515776218136055,
0.10219451371571073,0.06050339028461882,
0.10224438902743142,0.030530831341601887,
0.10229426433915212,0.0006522301569476772,
0.10234413965087281,0.02409224071588437,
0.10239401496259351,0.023221510315800636,
0.10244389027431422,0.015302385405837433,
0.10249376558603492,0.02832585210617838,
0.10254364089775561,0.01730265245159425,
0.10259351620947631,0.043885060636513706,
0.102643391521197,0.016791518352903233,
0.10269326683291771,0.05141538015835479,
0.10274314214463841,0.032091759915273174,
0.1027930174563591,0.0279295863390477,
0.1028428927680798,0.00672785620644421,
0.1028927680798005,0.041392734568514736,
0.10294264339152119,0.025878304813961677,
0.1029925187032419,0.0433138585444056,
0.1030423940149626,0.0010913405739031816,
0.10309226932668329,0.046921504392884894,
0.10314214463840399,0.035755427828310656,
0.10319201995012468,0.0585983272538783,
0.10324189526184539,0.01609702552989946,
0.10329177057356609,0.02428152281814845,
0.10334164588528678,0.032367360770314706,
0.10339152119700748,0.008624428187357822,
0.10344139650872818,0.027261916975981307,
0.10349127182044887,0.027417656232502603,
0.10354114713216958,0.012742187406522635,
0.10359102244389028,0.0079900008655717,
0.10364089775561097,0.031358492296054544,
0.10369077306733167,0.015581380594440399,
0.10374064837905236,-0.003645839079618976,
0.10379052369077307,-0.0042444922160191564,
0.10384039900249377,0.027417971850190664,
0.10389027431421446,0.025820586792653883,
0.10394014962593516,0.036309632074780294,
0.10399002493765586,0.017694074761671744,
0.10403990024937655,0.03534677297456491,
0.10408977556109726,0.014393883192407933,
0.10413965087281796,0.0167121384584002,
0.10418952618453865,0.023824789787400786,
0.10423940149625935,0.038307051089381754,
0.10428927680798004,0.022990661795870698,
0.10433915211970075,0.05205321664451932,
0.10438902743142145,0.005402437421698608,
0.10443890274314215,0.017632936940386985,
0.10448877805486284,0.00452478380193749,
0.10453865336658354,0.016295429994401676,
0.10458852867830425,0.03307574216891737,
0.10463840399002494,0.025163802243888676,
0.10468827930174564,0.025274493538038498,
0.10473815461346633,0.04470985439802026,
0.10478802992518703,0.018456226441745015,
0.10483790523690772,0.01050593152289523,
0.10488778054862843,0.0162560869884891,
0.10493765586034913,0.03652030723394924,
0.10498753117206983,0.016402384224176857,
0.10503740648379052,0.017922086636815385,
0.10508728179551122,-0.014038762506975545,
0.10513715710723193,0.007224796372897028,
0.10518703241895262,0.0046707719658603715,
0.10523690773067332,0.024186210915258688,
0.10528678304239401,0.018713935113248356,
0.10533665835411471,0.01603846927652442,
0.1053865336658354,0.007062946960602011,
0.10543640897755611,0.007189580554174964,
0.10548628428927681,-0.0027371660839793487,
0.1055361596009975,0.02026551329494367,
0.1055860349127182,0.012152383841923135,
0.1056359102244389,0.021490783494289123,
0.10568578553615961,0.005590613051564337,
0.1057356608478803,0.024568284961568272,
0.105785536159601,0.014756465190968808,
0.1058354114713217,0.03439237398076027,
0.10588528678304239,0.004176708782880179,
0.10593516209476309,0.03457365914360708,
0.1059850374064838,-0.007296322459069424,
0.10603491271820449,-0.009346133530177471,
0.10608478802992519,0.01738037527452686,
0.10613466334164588,0.014816427409526493,
0.10618453865336658,0.008776507610503493,
0.10623441396508729,0.021410777217526794,
0.10628428927680798,-0.012296796219780607,
0.10633416458852868,0.009234951851844607,
0.10638403990024937,-0.021276526019115338,
0.10643391521197007,-0.018410938286019075,
0.10648379052369077,-0.005783146926878305,
0.10653366583541148,0.010853094211572562,
0.10658354114713217,0.015575282302717895,
0.10663341645885287,-0.011165775375215563,
0.10668329177057356,-0.010076146640663596,
0.10673316708229426,-0.004069560862500228,
0.10678304239401497,-0.0051616949178305074,
0.10683291770573566,0.016275917093669035,
0.10688279301745636,0.01136551245557028,
0.10693266832917706,0.010519785561812208,
0.10698254364089775,0.00156988530031817,
0.10703241895261846,0.006975708874837902,
0.10708229426433916,0.024102130692725786,
0.10713216957605985,0.014814079503847217,
0.10718204488778055,0.0013815365476944836,
0.10723192019950124,-0.009766226743691164,
0.10728179551122194,-0.016993885034391084,
0.10733167082294265,0.007586212483462581,
0.10738154613466334,-0.01231411903739496,
0.10743142144638404,0.007857127593092473,
0.10748129675810474,0.006475611159276941,
0.10753117206982543,-0.0021279990104341113,
0.10758104738154614,-0.012291541856758206,
0.10763092269326684,-0.023978908742815816,
0.10768079800498753,0.016459033140467347,
0.10773067331670823,0.018858750286027633,
0.10778054862842892,0.017342764883858424,
0.10783042394014962,-0.002307744424679523,
0.10788029925187033,0.017600497518296974,
0.10793017456359102,-0.011562122568020639,
0.10798004987531172,-0.004371358254193167,
0.10802992518703242,-0.0009683719172220942,
0.10807980049875311,0.00031961750164080085,
0.10812967581047382,0.0006519731556588948,
0.10817955112219452,-0.008209152753541433,
0.10822942643391521,-0.003965845595677349,
0.10827930174563591,-0.019313527951244268,
0.1083291770573566,-0.022699173034578107,
0.1083790523690773,0.010798961289920006,
0.10842892768079801,-0.030819653806217862,
0.1084788029925187,0.010747459248438746,
0.1085286783042394,-0.01244040887024724,
0.1085785536159601,0.0013499333718951512,
0.10862842892768079,0.018598996211978077,
0.1086783042394015,-0.007477912092879964,
0.1087281795511222,0.012442026003172096,
0.1087780548628429,0.008105692725899064,
0.10882793017456359,-0.02541719476158274,
0.10887780548628428,-0.030945059130548867,
0.108927680798005,0.02902340162325713,
0.10897755610972569,-0.02102059938252318,
0.10902743142144639,-0.03031835115551898,
0.10907730673316708,-0.027181715833294803,
0.10912718204488778,0.022536863548409974,
0.10917705735660847,-0.014368232664156641,
0.10922693266832918,0.01458815772004563,
0.10927680798004988,-0.030294493105123943,
0.10932668329177057,-0.01927682339330359,
0.10937655860349127,0.0022949050588837727,
0.10942643391521197,-0.004206369066139384,
0.10947630922693267,-0.017652423160009305,
0.10952618453865337,-0.015518420379033192,
0.10957605985037407,0.010154389385523738,
0.10962593516209476,-0.015971519469308,
0.10967581047381546,-0.02205864073836451,
0.10972568578553615,-0.021213808850563814,
0.10977556109725686,-0.01005473973357779,
0.10982543640897756,-0.03247052084526353,
0.10987531172069825,0.011894562755063547,
0.10992518703241895,0.006259274545660694,
0.10997506234413965,-0.015526979806996813,
0.11002493765586036,-0.007439775909050722,
0.11007481296758105,-0.00527831292554905,
0.11012468827930175,-0.003137586758656932,
0.11017456359102244,-0.014881614439606387,
0.11022443890274314,-0.014689950077142772,
0.11027431421446383,-0.025308588651849526,
0.11032418952618454,0.000822131116725796,
0.11037406483790524,-0.016748002690484876,
0.11042394014962593,-0.04148967579899218,
0.11047381546134663,0.009061209027726471,
0.11052369077306733,-4.646661110306767e-05,
0.11057356608478804,0.0012454656913734423,
0.11062344139650873,0.0043002612424066795,
0.11067331670822943,-0.006458750090147369,
0.11072319201995012,0.003976770662899823,
0.11077306733167082,-0.012758547393497955,
0.11082294264339151,-0.0014540987159729086,
0.11087281795511222,-0.01895904393540275,
0.11092269326683292,-0.022678440248559632,
0.11097256857855362,-0.011397582874427934,
0.11102244389027431,-0.006914174978973716,
0.111072319201995,-0.0009202199251090067,
0.11112219451371572,-0.024577340067138322,
0.11117206982543641,0.0028705321693336967,
0.11122194513715711,0.016336501170441227,
0.1112718204488778,0.006224265415860361,
0.1113216957605985,-0.00563918853174397,
0.11137157107231921,0.01809354756103184,
0.1114214463840399,-0.015399388613885713,
0.1114713216957606,-0.00490089821645901,
0.1115211970074813,-0.00892908133019674,
0.11157107231920199,-0.01610596667714645,
0.11162094763092269,0.0059324099348531546,
0.1116708229426434,-0.03930172636705359,
0.11172069825436409,0.0010620430769008628,
0.11177057356608479,-0.027994900258461165,
0.11182044887780548,0.0042717009645928585,
0.11187032418952618,-0.01417936883804918,
0.11192019950124689,-0.01736291468655687,
0.11197007481296758,-0.015577468760829861,
0.11201995012468828,-0.013929132854782474,
0.11206982543640898,-0.013947825468261147,
0.11211970074812967,-0.022954759342641146,
0.11216957605985037,0.00503776103555016,
0.11221945137157108,-0.007222839743971316,
0.11226932668329177,-0.02617901136377629,
0.11231920199501247,-0.005105979859864373,
0.11236907730673316,-0.009572201898345073,
0.11241895261845386,0.001153598136563582,
0.11246882793017457,0.021913527064215392,
0.11251870324189527,-0.03861787439430418,
0.11256857855361596,-0.02546482708671474,
0.11261845386533666,-0.010420494407570091,
0.11266832917705735,-0.01956801991139644,
0.11271820448877805,-0.02181878606339807,
0.11276807980049876,-0.0435771631933799,
0.11281795511221945,-0.002090452647334113,
0.11286783042394015,-0.03787825145103873,
0.11291770573566084,-0.003373819542384908,
0.11296758104738154,0.00029979712848143825,
0.11301745635910225,-0.019978206594054315,
0.11306733167082295,0.007033350975964718,
0.11311720698254364,-0.031064076170448273,
0.11316708229426434,-0.007381729393894413,
0.11321695760598503,-0.013504314604156634,
0.11326683291770574,0.0011386513124674834,
0.11331670822942644,0.0024144341504837817,
0.11336658354114713,-0.02933029000024797,
0.11341645885286783,0.0072988073882094134,
0.11346633416458853,-0.03297388148409801,
0.11351620947630922,-0.012434541059676958,
0.11356608478802993,0.0035874172120416974,
0.11361596009975063,0.007878603505914256,
0.11366583541147132,-0.026876031820342525,
0.11371571072319202,-0.008320472906054517,
0.11376558603491271,0.0008024154855810796,
0.11381546134663342,-0.007962445542603004,
0.11386533665835412,-0.022651306792229972,
0.11391521197007481,0.02962614320373555,
0.11396508728179551,-0.023330261662298537,
0.1140149625935162,-0.004535561015921077,
0.1140648379052369,0.00719302887834814,
0.11411471321695761,-0.006351172961797609,
0.1141645885286783,0.009020775690277233,
0.114214463840399,0.005479068477389328,
0.1142643391521197,-0.026324631878779828,
0.1143142144638404,-0.016030876860208938,
0.1143640897755611,0.02558416498392587,
0.1144139650872818,-0.003820990899006474,
0.1144638403990025,-0.03340191879783766,
0.11451371571072319,-0.01256030153770507,
0.11456359102244389,-0.0138435520446236,
0.11461346633416458,-0.0004406390088872421,
0.11466334164588529,0.016720872684683113,
0.11471321695760599,-0.018438623958158748,
0.11476309226932668,-0.0033186445669168762,
0.11481296758104738,-0.01340111936119762,
0.11486284289276807,0.02382832959055221,
0.11491271820448878,0.02856889988592129,
0.11496259351620948,0.007646965184465379,
0.11501246882793018,0.005247846890619992,
0.11506234413965087,-0.014643605260427241,
0.11511221945137157,0.015558562525458713,
0.11516209476309226,0.002227777299108863,
0.11521197007481297,-0.00822731612275166,
0.11526184538653367,0.023333978751339038,
0.11531172069825436,0.0012800917350361098,
0.11536159600997506,-0.008123433053158173,
0.11541147132169575,0.0176975367840715,
0.11546134663341646,0.003657799633108247,
0.11551122194513716,0.018462834947520837,
0.11556109725685786,0.01680312281095055,
0.11561097256857855,-0.01806084312699195,
0.11566084788029925,0.010720275328263213,
0.11571072319201996,0.008498135484027669,
0.11576059850374065,0.007221743230288898,
0.11581047381546135,-0.0016417204757866082,
0.11586034912718204,-0.024252937159385937,
0.11591022443890274,0.017468147834788193,
0.11596009975062344,-0.006617014892330547,
0.11600997506234415,0.035188260910351016,
0.11605985037406484,0.007119815983624007,
0.11610972568578554,-0.016976009702416753,
0.11615960099750623,0.010011102626801292,
0.11620947630922693,0.0007832578781502997,
0.11625935162094764,-0.010454432589690962,
0.11630922693266833,-0.0019113915468088744,
0.11635910224438903,-0.009901994269783937,
0.11640897755610972,0.024043832885600202,
0.11645885286783042,0.0016045004823842393,
0.11650872817955112,-0.006801926130845463,
0.11655860349127183,0.020798201221268353,
0.11660847880299252,-0.016482429219909934,
0.11665835411471322,0.04103699447216261,
0.11670822942643391,0.005677825498615594,
0.11675810473815461,0.027443979505676813,
0.11680798004987532,0.0029971453628315266,
0.11685785536159601,0.006143460087076323,
0.11690773067331671,0.051976805866159353,
0.1169576059850374,0.03182537785260956,
0.1170074812967581,0.02477268667610867,
0.1170573566084788,0.02019429912936688,
0.1171072319201995,0.01444689506524503,
0.1171571072319202,0.0229256636515738,
0.1172069825436409,-0.01801168683380321,
0.1172568578553616,0.011320040847264946,
0.11730673316708229,0.008144616994373476,
0.117356608478803,-0.002011339332007655,
0.1174064837905237,0.03123472795897407,
0.11745635910224439,0.025015928541959994,
0.11750623441396509,0.03221037663324758,
0.11755610972568578,-0.0049371883279581835,
0.11760598503740648,0.032180050092902035,
0.11765586034912719,0.0018628583050094537,
0.11770573566084788,-0.00502093763741417,
0.11775561097256858,0.030063385197689748,
0.11780548628428927,0.037649706564047154,
0.11785536159600997,0.010744204731601278,
0.11790523690773068,0.04836758578576644,
0.11795511221945137,0.018443770386521736,
0.11800498753117207,0.03013884388684627,
0.11805486284289277,0.021063985128809044,
0.11810473815461346,0.013285106903023407,
0.11815461346633417,-0.004605303530165184,
0.11820448877805487,0.01722014076632736,
0.11825436408977556,0.032149226990616765,
0.11830423940149626,0.04177093137610491,
0.11835411471321695,0.018366804583664846,
0.11840399002493765,0.03939806474939221,
0.11845386533665836,0.012941044329771067,
0.11850374064837906,0.01131633663363036,
0.11855361596009975,0.026109346445868226,
0.11860349127182045,0.0011235868253906788,
0.11865336658354114,0.029244292601364266,
0.11870324189526185,0.026016818479156673,
0.11875311720698255,0.01828688252081887,
0.11880299251870324,0.01852872804892742,
0.11885286783042394,0.011890205018439667,
0.11890274314214463,0.028550997876062495,
0.11895261845386533,0.020104538373570062,
0.11900249376558604,0.024921259213391448,
0.11905236907730674,0.03648197067951377,
0.11910224438902743,0.014044611284330813,
0.11915211970074813,0.024990005550680906,
0.11920199501246882,0.02759484713738576,
0.11925187032418953,0.026418197965859147,
0.11930174563591023,0.03337134449548385,
0.11935162094763092,0.014873539179265637,
0.11940149625935162,-0.003593532655730411,
0.11945137157107232,0.03982373000731317,
0.11950124688279301,0.012069295644863828,
0.11955112219451372,0.010746966612219886,
0.11960099750623442,0.020251890295415402,
0.11965087281795511,0.04029308265754988,
0.11970074812967581,0.03421729941660022,
0.1197506234413965,0.025870637222436484,
0.11980049875311721,0.008762213620114489,
0.11985037406483791,0.018766697881553218,
0.1199002493765586,0.029991592333184356,
0.1199501246882793,-0.013000846745661335,
0.12,0.0048767772659381835,
0.1200498753117207,0.026137721443709704,
0.1200997506234414,0.014639225936209687,
0.1201496259351621,0.04179061977718847,
0.12019950124688279,0.03361389405070117,
0.12024937655860349,0.029442304863884602,
0.12029925187032418,0.040242129734980606,
0.1203491271820449,0.014659237849828985,
0.12039900249376559,0.00821886741960717,
0.12044887780548628,0.012396973105110398,
0.12049875311720698,-0.006327843451089818,
0.12054862842892768,0.04876478189863376,
0.12059850374064839,0.041522902634542995,
0.12064837905236908,0.011227716824643682,
0.12069825436408978,0.04476774993488086,
0.12074812967581047,0.03877046177044234,
0.12079800498753117,0.004845616079951983,
0.12084788029925186,0.043784201077232875,
0.12089775561097257,0.012610412509508423,
0.12094763092269327,-0.00236888456748496,
0.12099750623441397,0.026234886862441745,
0.12104738154613466,0.02643355708161993,
0.12109725685785536,0.02467029929160132,
0.12114713216957607,0.044511951600563426,
0.12119700748129676,0.02566713858606393,
0.12124688279301746,0.05161347708400686,
0.12129675810473815,0.029202242176522664,
0.12134663341645885,0.05783293353676118,
0.12139650872817954,0.038308044918230144,
0.12144638403990025,0.017594809288190814,
0.12149625935162095,0.03887924981330973,
0.12154613466334165,0.027141476980656908,
0.12159600997506234,0.04652560214428031,
0.12164588528678304,0.03089473469736958,
0.12169576059850375,0.007598109332639057,
0.12174563591022444,0.04692931412188678,
0.12179551122194514,0.03447091982990204,
0.12184538653366583,0.037565993705593506,
0.12189526184538653,0.023366163526764322,
0.12194513715710723,0.044770860095807205,
0.12199501246882793,0.031991880938626364,
0.12204488778054863,0.042086218061446384,
0.12209476309226933,0.04285369842372927,
0.12214463840399002,0.024206709858244368,
0.12219451371571072,0.035202926822286144,
0.12224438902743143,0.023310411403716383,
0.12229426433915212,0.0031820726827341307,
0.12234413965087282,0.035335322741691114,
0.12239401496259351,0.026043487298252396,
0.12244389027431421,0.042280832505481175,
0.12249376558603492,0.018525328839815287,
0.12254364089775562,0.027241198091013934,
0.12259351620947631,0.003933185715326026,
0.122643391521197,-0.002159956173656618,
0.1226932668329177,0.03039249056011305,
0.1227431421446384,0.02317849268489482,
0.12279301745635911,0.026768834175495377,
0.1228428927680798,0.02193146591859873,
0.1228927680798005,0.03419919588006249,
0.1229426433915212,-0.008571131922494712,
0.12299251870324189,0.023784919150637258,
0.1230423940149626,0.05441067554671392,
0.1230922693266833,0.03289442048326845,
0.12314214463840399,0.04197060426224036,
0.12319201995012469,0.02624970151383441,
0.12324189526184538,0.05517720176294354,
0.12329177057356608,0.03407903906454999,
0.12334164588528679,0.02608478920656242,
0.12339152119700748,0.031704279491447315,
0.12344139650872818,0.03606911913225895,
0.12349127182044888,0.008012788526955503,
0.12354114713216957,0.03874922925536179,
0.12359102244389028,0.03292518905879395,
0.12364089775561098,0.022437403077507218,
0.12369077306733167,0.03599546421552597,
0.12374064837905237,0.026174055685989153,
0.12379052369077306,0.021920054067097478,
0.12384039900249376,0.009356084394874366,
0.12389027431421447,0.0383683354785482,
0.12394014962593516,0.010853650011786762,
0.12399002493765586,0.01913076504935325,
0.12403990024937656,0.05334700197719658,
0.12408977556109725,0.012802728328289534,
0.12413965087281796,0.030957115206589114,
0.12418952618453866,0.0369351819642679,
0.12423940149625935,0.0620472082807393,
0.12428927680798005,0.011562808673151643,
0.12433915211970074,0.03983364422161033,
0.12438902743142144,0.05051548701602221,
0.12443890274314215,0.015266887777591234,
0.12448877805486284,-0.0031872212197161555,
0.12453865336658354,-0.00046753504618699676,
0.12458852867830424,0.024473406931585024,
0.12463840399002493,0.0306707516458384,
0.12468827930174564,0.015968566623225065,
0.12473815461346634,0.019448804803618856,
0.12478802992518703,0.02813635311921074,
0.12483790523690773,0.02861106181577769,
0.12488778054862842,0.05356984857599814,
0.12493765586034913,0.027167248145544737,
0.12498753117206983,0.043910774046400695,
0.12503740648379053,0.011670850320538842,
0.12508728179551123,0.03415725837243528,
0.12513715710723192,0.021203812621685185,
0.12518703241895263,0.03851870575150097,
0.1252369077306733,0.02862037465349859,
0.12528678304239402,0.03785208789797478,
0.1253366583541147,0.003766024872429014,
0.1253865336658354,-0.0076731536567234936,
0.12543640897755612,0.029924368639634602,
0.1254862842892768,0.022329741511501314,
0.1255361596009975,0.003368079853411159,
0.1255860349127182,-0.0006030202057485251,
0.1256359102244389,0.014088119990100024,
0.1256857855361596,-0.0021167257337505498,
0.1257356608478803,0.0020032787740447543,
0.125785536159601,0.0304094404975328,
0.12583541147132168,0.036230733930356626,
0.1258852867830424,0.007138881273226847,
0.1259351620947631,-0.008841103845924698,
0.12598503740648379,-0.004178751321144382,
0.1260349127182045,0.016026621745760826,
0.12608478802992518,-0.006399336450629303,
0.1261346633416459,-0.011642385414349409,
0.1261845386533666,0.014851063149671535,
0.12623441396508728,0.02613343813403731,
0.126284289276808,-0.01313202381925863,
0.12633416458852867,0.03149862692278341,
0.12638403990024938,-0.002873595987262738,
0.1264339152119701,0.0356946489012623,
0.12648379052369077,0.023946258269551685,
0.12653366583541148,-0.01133627419092346,
0.12658354114713216,0.02595548038457636,
0.12663341645885287,0.033412773051001786,
0.12668329177057355,0.010697268601788077,
0.12673316708229426,0.020982203351008304,
0.12678304239401497,0.020143282223656245,
0.12683291770573565,-0.012982653244089329,
0.12688279301745636,0.016397887829343226,
0.12693266832917705,-0.005977890933021949,
0.12698254364089775,0.001085779025820451,
0.12703241895261846,-0.008726129734431329,
0.12708229426433915,0.014990182200944939,
0.12713216957605986,0.01425158050737415,
0.12718204488778054,-0.020026645989966056,
0.12723192019950125,-0.0017177737700250365,
0.12728179551122196,-0.00609976059699802,
0.12733167082294264,-0.004917446407258549,
0.12738154613466335,0.009569178305256073,
0.12743142144638403,0.010522781842048523,
0.12748129675810474,0.029358151427029397,
0.12753117206982545,0.011809210030329616,
0.12758104738154613,0.003881673666184377,
0.12763092269326684,0.005462392287276035,
0.12768079800498752,-0.009553033860375504,
0.12773067331670823,-0.0013191768108047528,
0.1277805486284289,-0.01696936460396894,
0.12783042394014962,0.02259236454100013,
0.12788029925187033,0.0033198001157137003,
0.12793017456359101,0.004819243159149195,
0.12798004987531172,-0.017190164569170736,
0.1280299251870324,-0.009839771624043613,
0.12807980049875312,-0.009516256680615672,
0.12812967581047383,-0.0032600893396623875,
0.1281795511221945,-0.0063010694140723,
0.12822942643391522,0.009585344313481427,
0.1282793017456359,-0.01589015053481166,
0.1283291770573566,-0.0009116718421235659,
0.12837905236907732,-0.005084559851077107,
0.128428927680798,0.00406092103134897,
0.1284788029925187,0.02046903066227248,
0.1285286783042394,0.02153517002107211,
0.1285785536159601,-0.012134821758071552,
0.1286284289276808,-0.006429168323621179,
0.1286783042394015,0.008937378171016683,
0.1287281795511222,0.009440860834120475,
0.12877805486284288,0.014461802098115071,
0.1288279301745636,-0.007173801988680466,
0.1288778054862843,0.005859700334597871,
0.12892768079800498,0.021200123782782007,
0.1289775561097257,-0.004955162808028454,
0.12902743142144638,-0.01383738589394928,
0.12907730673316709,0.008318356810143495,
0.12912718204488777,-0.016200934020271313,
0.12917705735660848,-0.006577657413309874,
0.1292269326683292,-0.028194042247119036,
0.12927680798004987,0.016831545226052416,
0.12932668329177058,0.014131956500165303,
0.12937655860349126,0.003731284707564125,
0.12942643391521197,-0.017348376664632143,
0.12947630922693268,0.0009296059902444212,
0.12952618453865336,-0.01590800000856052,
0.12957605985037407,0.001842576115386815,
0.12962593516209475,0.004541604140692377,
0.12967581047381546,-0.038391746716098275,
0.12972568578553617,-0.02007211876474238,
0.12977556109725685,-0.04285218352403218,
0.12982543640897756,0.008007960126102168,
0.12987531172069824,0.0002941550736129516,
0.12992518703241895,-0.03634900913440638,
0.12997506234413966,-0.01719627485976679,
0.13002493765586035,-0.005367596239204209,
0.13007481296758105,-0.030241141270277522,
0.13012468827930174,-0.009014225817108302,
0.13017456359102245,-0.01449077514916029,
0.13022443890274316,-0.010152506755893003,
0.13027431421446384,-0.019066386017527977,
0.13032418952618455,-0.007174715260300338,
0.13037406483790523,0.014671333373485163,
0.13042394014962594,-0.001359005392421276,
0.13047381546134662,-0.008900124783429875,
0.13052369077306733,-0.0199961511880571,
0.13057356608478804,0.008784378487148243,
0.13062344139650872,0.009396784918494112,
0.13067331670822943,-0.04477975169293763,
0.1307231920199501,0.018088023815310814,
0.13077306733167082,-0.00024133042871513077,
0.13082294264339153,-0.0046169769580625235,
0.13087281795511221,0.008199260426125246,
0.13092269326683292,-0.005861068772669425,
0.1309725685785536,-0.01295924564791794,
0.13102244389027431,-0.021152696855191194,
0.13107231920199502,-0.019130756159360707,
0.1311221945137157,-0.0320186572605374,
0.13117206982543642,-0.015129675997265711,
0.1312219451371571,-0.007659989297146957,
0.1312718204488778,-0.015292837818443646,
0.13132169576059852,-0.012235829187398859,
0.1313715710723192,-0.003373279347808386,
0.1314214463840399,-0.002210024989121059,
0.1314713216957606,-0.022850371191221994,
0.1315211970074813,-0.02261022940564593,
0.13157107231920198,-0.01922009126244085,
0.1316209476309227,-0.011740318649711496,
0.1316708229426434,0.0031637538729736726,
0.13172069825436408,-0.013727534654877879,
0.1317705735660848,-0.008101244427616436,
0.13182044887780547,-0.02930600059194976,
0.13187032418952618,0.0007664849613186787,
0.1319201995012469,-0.012603664160454444,
0.13197007481296757,-0.03277691809825901,
0.13201995012468828,0.007322801732721623,
0.13206982543640897,-0.02536671139786682,
0.13211970074812968,-0.0019125776980345732,
0.13216957605985039,-0.009441247954221436,
0.13221945137157107,0.006562680709485742,
0.13226932668329178,-0.009211750922966578,
0.13231920199501246,-0.018024069168221885,
0.13236907730673317,0.0021379297984456345,
0.13241895261845388,-0.010539078413298495,
0.13246882793017456,0.02797492679593363,
0.13251870324189527,-0.015391877727799434,
0.13256857855361595,-0.005374294362057341,
0.13261845386533666,-0.0171243561297181,
0.13266832917705737,0.005528176130270021,
0.13271820448877805,0.005085973740400049,
0.13276807980049876,-0.005465756104237097,
0.13281795511221944,-0.03029335395356409,
0.13286783042394015,-0.00932407414971143,
0.13291770573566083,-0.010516882956472389,
0.13296758104738154,-0.011586716507008788,
0.13301745635910225,0.0014633671093525757,
0.13306733167082294,0.005669907388811311,
0.13311720698254365,-0.004467960434773549,
0.13316708229426433,-0.011554048626074894,
0.13321695760598504,-0.006921515471435493,
0.13326683291770575,-0.03697947261720515,
0.13331670822942643,-0.007132157466417515,
0.13336658354114714,-0.017337356392972625,
0.13341645885286782,-0.018600274687714954,
0.13346633416458853,-0.005839819712226712,
0.13351620947630924,-0.010923039901241506,
0.13356608478802992,-0.000934700345273343,
0.13361596009975063,-0.012346300723931437,
0.1336658354114713,-0.006384199740937249,
0.13371571072319202,-0.01521144690317097,
0.13376558603491273,-0.0007242639700504672,
0.1338154613466334,0.01154959990415829,
0.13386533665835412,-0.0033285635613344196,
0.1339152119700748,-0.0021820474875894453,
0.13396508728179551,-0.03410112002085089,
0.1340149625935162,0.006058526380427094,
0.1340648379052369,0.002210232455442297,
0.13411471321695762,0.0031663720893594562,
0.1341645885286783,0.024278929178390675,
0.134214463840399,-0.02515129311965484,
0.1342643391521197,-0.017996177813257897,
0.1343142144638404,-0.01511380304535689,
0.1343640897755611,-0.008012156880972943,
0.1344139650872818,0.0075177474738448435,
0.1344638403990025,0.029826016974264485,
0.13451371571072318,0.0046892659205283954,
0.1345635910224439,0.019216782002223525,
0.1346134663341646,-0.006612904432721486,
0.13466334164588528,-0.000550124645887603,
0.134713216957606,-0.010662886755566883,
0.13476309226932667,0.0240038662717003,
0.13481296758104738,-0.0005055617089123602,
0.1348628428927681,0.009652203027001064,
0.13491271820448877,0.004241444253224968,
0.13496259351620948,-0.007801617103752389,
0.13501246882793017,-0.008634169555075547,
0.13506234413965088,0.01580514862841541,
0.13511221945137158,0.027228807382813594,
0.13516209476309227,0.0010335283211471062,
0.13521197007481298,0.029288475183165758,
0.13526184538653366,-0.01434800775501294,
0.13531172069825437,-0.0011083706793904415,
0.13536159600997505,0.015658221979609713,
0.13541147132169576,0.017875065842788175,
0.13546134663341647,0.01476320045878704,
0.13551122194513715,-0.0024249978216629546,
0.13556109725685786,0.010448708850784616,
0.13561097256857854,0.016619312702472456,
0.13566084788029925,-0.008759925598055366,
0.13571072319201996,-0.015425346403758772,
0.13576059850374064,0.012644543511989265,
0.13581047381546135,0.01120494501311297,
0.13586034912718203,-0.01896478715144754,
0.13591022443890274,0.03844772067707755,
0.13596009975062345,0.0158414832732325,
0.13600997506234414,0.006422737982001673,
0.13605985037406484,0.013888813228264674,
0.13610972568578553,0.0451392590546255,
0.13615960099750624,0.004863553876979216,
0.13620947630922695,0.03648357551832544,
0.13625935162094763,0.01398527629948372,
0.13630922693266834,-0.017519463173130554,
0.13635910224438902,0.008307323335777314,
0.13640897755610973,0.014743102715314753,
0.1364588528678304,0.013027089995042597,
0.13650872817955112,-0.01007076146191269,
0.13655860349127183,0.028517473873167942,
0.1366084788029925,-0.003910926471409476,
0.13665835411471322,0.009589267049442025,
0.1367082294264339,-0.00113276834444327,
0.1367581047381546,0.030083147767183516,
0.13680798004987532,-0.0031692244005924776,
0.136857855361596,-0.006471799522401071,
0.1369077306733167,0.022337104306059043,
0.1369576059850374,0.03473719484716644,
0.1370074812967581,0.021624166353764365,
0.13705735660847881,-0.01600467686447176,
0.1371072319201995,0.0012165607412656567,
0.1371571072319202,0.006646139901970773,
0.1372069825436409,0.001363943388330912,
0.1372568578553616,0.018541231056639462,
0.1373067331670823,0.010548163523866953,
0.137356608478803,0.015588905715412917,
0.1374064837905237,0.028511885377748306,
0.13745635910224438,0.014899816747559093,
0.1375062344139651,0.021878451203979396,
0.1375561097256858,0.015480940463056727,
0.13760598503740648,0.020678958314612632,
0.1376558603491272,-0.0072761234070298185,
0.13770573566084787,0.014099434144602692,
0.13775561097256858,0.02579509367145879,
0.13780548628428926,0.05239586960213522,
0.13785536159600997,0.04232315290781375,
0.13790523690773068,0.007928015423357786,
0.13795511221945136,0.0753168978263225,
0.13800498753117207,0.027034949741416646,
0.13805486284289276,0.026245378359447125,
0.13810473815461347,0.010852668101533501,
0.13815461346633418,0.013205447380352784,
0.13820448877805486,-0.005504677413753687,
0.13825436408977557,0.018079381990075763,
0.13830423940149625,0.015166095457919457,
0.13835411471321696,0.014753586264413445,
0.13840399002493767,-0.006646593377824646,
0.13845386533665835,-0.01887274125870364,
0.13850374064837906,0.038749075892707124,
0.13855361596009974,0.025543260261019902,
0.13860349127182045,0.0271947073167918,
0.13865336658354116,0.0062974430060605095,
0.13870324189526184,0.004406135132925721,
0.13875311720698255,0.020000494205884362,
0.13880299251870323,0.018789805626742248,
0.13885286783042394,0.02863283241084971,
0.13890274314214462,0.01889736987245618,
0.13895261845386533,0.023053772387692982,
0.13900249376558604,0.0004864340262061631,
0.13905236907730673,0.03424991412500944,
0.13910224438902744,0.015811762956819728,
0.13915211970074812,0.03331437600542916,
0.13920199501246883,0.04132771464055465,
0.13925187032418954,0.01895523781226106,
0.13930174563591022,0.027083655965428357,
0.13935162094763093,0.011460250593205335,
0.1394014962593516,0.013268131457576535,
0.13945137157107232,0.057838982075995166,
0.13950124688279303,0.0227462780767968,
0.1395511221945137,0.007622487263873507,
0.13960099750623442,0.033248800568148246,
0.1396508728179551,0.049336784827993016,
0.1397007481296758,0.037802219001243226,
0.13975062344139652,0.022522635761485343,
0.1398004987531172,0.013792736352832681,
0.1398503740648379,0.019567518772727742,
0.1399002493765586,0.01585894167187524,
0.1399501246882793,0.037789416267087296,
0.14,0.03213955420487589,
0.1400498753117207,0.01698954141772145,
0.1400997506234414,0.03839334033744876,
0.1401496259351621,0.035596776706759876,
0.1401995012468828,0.03855193052761889,
0.14024937655860348,0.012443520362816818,
0.1402992518703242,0.029801356023293195,
0.1403491271820449,0.020386614828981204,
0.14039900249376558,0.03533442495725222,
0.1404488778054863,0.047925635374622216,
0.14049875311720697,0.025547623335999338,
0.14054862842892768,0.03975847992138698,
0.1405985037406484,0.03410286853594221,
0.14064837905236907,0.023387744476187786,
0.14069825436408978,0.02450444963660106,
0.14074812967581046,0.017675829648332895,
0.14079800498753117,0.01431796699919808,
0.14084788029925188,0.04705069467607313,
0.14089775561097256,0.028453467496693682,
0.14094763092269327,0.021156488968671342,
0.14099750623441396,0.024540117072565305,
0.14104738154613466,0.039081744566929595,
0.14109725685785537,0.0364755228626485,
0.14114713216957606,0.030615721897540863,
0.14119700748129677,0.02890822774291279,
0.14124688279301745,0.03423899224470024,
0.14129675810473816,0.0021448833799339734,
0.14134663341645887,0.041581649728494194,
