time,amplitude,label
0.0,0.012725300522851592,
4.987531172069826e-05,-0.007121435200907571,
9.975062344139652e-05,-0.010019069521917506,
0.00014962593516209475,0.0006202247779628321,
0.00019950124688279303,0.014196489280217894,
0.00024937655860349125,0.042253778206565604,
0.0002992518703241895,0.0019315676957879988,
0.00034912718204488776,0.014450540319338734,
0.00039900249376558606,0.02094203448107932,
0.0004488778054862843,-0.00428311151917898,
0.0004987531172069825,0.02491975767924272,
0.0005486284289276808,-0.008704852385255235,
0.000598503740648379,0.0036887264796080415,
0.0006483790523690773,0.009458819626230311,
0.0006982543640897755,0.013966863528508235,
0.0007481296758104738,0.016034049067750866,
0.0007980049875311721,0.04163329790476168,
0.0008478802992518703,0.009349553595995756,
0.0008977556109725686,0.004384747451789487,
0.0009476309226932668,-0.009434817383156862,
0.000997506234413965,0.0059689060740519195,
0.0010473815461346633,0.012455236707153657,
0.0010972568578553616,-0.0034651290005024756,
0.00114713216957606,0.03445552472913032,
0.001197007481296758,-0.005600531034856883,
0.0012468827930174563,0.009416952238928241,
0.0012967581047381546,0.020019332021338397,
0.001346633416458853,-0.008460500806186478,
0.001396508728179551,-0.006709318968297725,
0.0014463840399002493,-0.019249237330620513,
0.0014962593516209476,0.02191793014066499,
0.001546134663341646,-0.03416959311877252,
0.0015960099750623442,-0.007084745083954077,
0.0016458852867830423,0.0028415288074459767,
0.0016957605985037406,-0.018202759860407633,
0.001745635910224439,0.003091199921675436,
0.0017955112219451373,-0.026340048316526445,
0.0018453865336658353,-0.03733621760035682,
0.0018952618453865336,-0.019694764529494736,
0.001945137157107232,0.018566317417445133,
0.00199501246882793,-0.004190038799963883,
0.0020448877805486283,-0.02161501828097476,
0.0020947630922693266,0.005364051557971037,
0.002144638403990025,0.010835002423183271,
0.0021945137157107233,-0.011337932723961736,
0.0022443890274314216,-0.01654396271512453,
0.00229426433915212,-0.006952519065317354,
0.0023441396508728177,0.012927296097298788,
0.002394014962593516,-0.0016110403949210106,
0.0024438902743142144,0.0037332715357331694,
0.0024937655860349127,-0.015354716978273283,
0.002543640897755611,0.0038653073087314208,
0.0025935162094763093,-0.016401857340880246,
0.0026433915211970076,-0.004536642034858905,
0.002693266832917706,0.003920310180966526,
0.002743142144638404,-0.03128081433571123,
0.002793017456359102,-0.022437987639398964,
0.0028428927680798004,-0.005807095415634041,
0.0028927680798004987,-0.03384963215672883,
0.002942643391521197,-0.010666221949471397,
0.0029925187032418953,-0.002814519165977425,
0.0030423940149625936,-0.021694460470139756,
0.003092269326683292,-0.011883845742677288,
0.00314214463840399,0.0006289368010686932,
0.0031920199501246885,-0.0009716493434742939,
0.0032418952618453864,0.011249795772481492,
0.0032917705735660847,-0.012675458109799215,
0.003341645885286783,-0.024392979884067936,
0.0033915211970074813,0.011484322885270435,
0.0034413965087281796,-0.025115677587080318,
0.003491271820448878,0.008812219209857284,
0.003541147132169576,0.0031903288567583024,
0.0035910224438902745,0.00961604699393655,
0.0036408977556109724,-0.006339292942234129,
0.0036907730673316707,-0.02824773825192553,
0.003740648379052369,0.034791082335926045,
0.0037905236907730673,0.014563827008176709,
0.0038403990024937656,-0.022536056480246855,
0.003890274314214464,-0.01770594114485751,
0.003940149625935162,-0.004412977412305573,
0.00399002493765586,-0.008621059453650848,
0.004039900249376558,-0.04523413989235031,
0.004089775561097257,-0.01810633789694536,
0.004139650872817955,-0.0005729049378844601,
0.004189526184538653,-0.019155943417173128,
0.004239401496259352,-0.001045209890680755,
0.00428927680798005,0.002205476912744999,
0.004339152119700748,-0.03584264066970823,
0.0043890274314214465,-0.016192905704818294,
0.004438902743142145,-0.0008038711760144923,
0.004488778054862843,-0.009667281578646075,
0.004538653366583541,-0.02677244087706604,
0.00458852867830424,-0.011594514371585372,
0.004638403990024938,0.015911971077787974,
0.0046882793017456355,-0.013669526931590549,
0.004738154613466334,-0.009531651353255679,
0.004788029925187032,0.009258141132261498,
0.00483790523690773,-0.009111316756612631,
0.004887780548628429,-0.03537767311715749,
0.004937655860349127,-0.02798268290636518,
0.004987531172069825,-0.013548454476645865,
0.005037406483790524,0.003304428033462991,
0.005087281795511222,-0.007934200789353541,
0.00513715710723192,-0.019767576708107488,
0.0051870324189526185,-0.020398365929277594,
0.005236907730673317,-0.0019856207289538127,
0.005286783042394015,-0.04528115351828889,
0.0053366583541147134,-0.02532703198118077,
0.005386533665835412,-0.009092148496810826,
0.00543640897755611,-0.031246330526009995,
0.005486284289276808,-0.00817272084527715,
0.005536159600997507,-0.011486220474133462,
0.005586034912718204,0.01180534195113973,
0.005635910224438902,-0.015883761098792495,
0.005685785536159601,-0.03387426685737167,
0.005735660847880299,0.000521399427835148,
0.005785536159600997,-0.014007323865112747,
0.005835411471321696,-0.033551358831474525,
0.005885286783042394,0.0011055317326178205,
0.005935162094763092,-0.0059293808749808375,
0.0059850374064837905,-0.00925489139270412,
0.006034912718204489,-0.04302632913678918,
0.006084788029925187,0.015792753460319938,
0.0061346633416458855,-0.005423316180249393,
0.006184538653366584,-0.03561307844125834,
0.006234413965087282,-0.022210202764099397,
0.00628428927680798,0.0008923555536045694,
0.006334164588528679,-0.022911233997978713,
0.006384039900249377,-0.007571842628638734,
0.006433915211970074,0.02188506620348719,
0.006483790523690773,0.018575497676595075,
0.006533665835411471,-0.019678964900382775,
0.006583541147132169,-0.012080754105203862,
0.006633416458852868,-0.028801635036435028,
0.006683291770573566,-0.015043313411794036,
0.006733167082294264,0.025905256806480342,
0.0067830423940149626,-0.03014649127184621,
0.006832917705735661,-0.030184760039809855,
0.006882793017456359,-0.036941256985758786,
0.0069326683291770575,-0.040073457014891005,
0.006982543640897756,-0.02273225876961789,
0.007032418952618454,-0.000809954209144842,
0.007082294264339152,-0.0162587721202743,
0.007132169576059851,-0.04046368892061904,
0.007182044887780549,-0.009632813103872187,
0.007231920199501247,-0.03443066281912397,
0.007281795511221945,-0.020174954182726242,
0.007331670822942643,-0.03283425130041269,
0.007381546134663341,-0.03492407266611868,
0.00743142144638404,-0.048658075801907175,
0.007481296758104738,-0.049552040434928224,
0.007531172069825436,-0.02519337048569646,
0.007581047381546135,-0.03005303858940142,
0.007630922693266833,-0.02552463232939152,
0.007680798004987531,-0.014912900740575281,
0.0077306733167082295,0.007053775774571544,
0.007780548628428928,-0.01792020503552766,
0.007830423940149626,-0.021444503852886695,
0.007880299251870324,-0.005855570284625288,
0.007930174563591023,-0.017671854899155737,
0.00798004987531172,-0.030452324818594553,
0.00802992518703242,-0.01677171628527826,
0.008079800498753117,-0.03150855440317741,
0.008129675810473816,-0.032173895036817224,
0.008179551122194513,-0.019688912808753182,
0.008229426433915213,-0.04061997608276017,
0.00827930174563591,-0.024585348408521474,
0.00832917705735661,-0.019284560115227858,
0.008379052369077307,-0.021444994715445004,
0.008428927680798006,-0.010622984929048172,
0.008478802992518703,-0.010416179602655451,
0.0085286783042394,-0.01927477165777208,
0.0085785536159601,-0.02961434617606218,
0.008628428927680797,0.0067626050036831,
0.008678304239401496,-0.020184907496595274,
0.008728179551122194,-0.023011067758470123,
0.008778054862842893,-0.017409709744284123,
0.00882793017456359,-0.0373676360030108,
0.00887780548628429,-0.009522387811028656,
0.008927680798004987,-0.014129291109988305,
0.008977556109725686,-0.013094259286870125,
0.009027431421446384,0.007404842267646015,
0.009077306733167083,-0.030191486411990716,
0.00912718204488778,-0.014953814626379916,
0.00917705735660848,-0.015536049175705478,
0.009226932668329177,-0.037874010538266424,
0.009276807980049876,-0.020856832095956963,
0.009326683291770574,-0.038219909468847554,
0.009376558603491271,-0.01787893447930127,
0.00942643391521197,-0.016522852768297878,
0.009476309226932668,-0.012628951949692026,
0.009526184538653367,-0.022364316789573603,
0.009576059850374064,-0.03971904307056387,
0.009625935162094763,-0.026678203559426676,
0.00967581047381546,-0.01323126760194476,
0.00972568578553616,-0.01017586306798418,
0.009775561097256857,-0.005556251113241171,
0.009825436408977557,0.016424255602178573,
0.009875311720698254,-0.008742299049234742,
0.009925187032418953,0.005308108641540868,
0.00997506234413965,-0.01157183780464115,
0.01002493765586035,-0.01059030827303591,
0.010074812967581047,-0.021897640061550268,
0.010124688279301746,-0.018726356238266757,
0.010174563591022444,-0.010207230985086758,
0.010224438902743141,-0.010986932633530216,
0.01027431421446384,-0.03192766132804127,
0.010324189526184538,-0.011165815705649586,
0.010374064837905237,-0.03651090502036124,
0.010423940149625935,0.0006853979956429872,
0.010473815461346634,-0.004051117451025632,
0.010523690773067331,-0.026370262018250698,
0.01057356608478803,-0.009129461203117684,
0.010623441396508728,-0.0002241080786824605,
0.010673316708229427,-0.047470296106335186,
0.010723192019950124,-0.008179004778522132,
0.010773067331670824,-0.016727561804893838,
0.010822942643391521,-0.012383230143571912,
0.01087281795511222,-0.005237456476142445,
0.010922693266832918,0.00797911459280493,
0.010972568578553617,-0.018346724071859923,
0.011022443890274314,0.008756561561627074,
0.011072319201995013,0.0018404701914489213,
0.01112219451371571,-0.012637990029429398,
0.011172069825436408,0.0022490124556644175,
0.011221945137157107,-0.009327777377250223,
0.011271820448877805,-0.003348471364530531,
0.011321695760598504,-0.014610160279334615,
0.011371571072319201,-0.03283315582373302,
0.0114214463840399,0.006560103207432598,
0.011471321695760598,0.03376066000254572,
0.011521197007481297,0.0022883012292295125,
0.011571072319201995,-0.040173135759547667,
0.011620947630922694,0.02045073375296478,
0.011670822942643391,-0.014636117066920121,
0.01172069825436409,0.017133021589950292,
0.011770573566084788,-0.007892334719411063,
0.011820448877805487,0.003239916697969514,
0.011870324189526184,-0.005668081706569483,
0.011920199501246884,-0.013102346682199928,
0.011970074812967581,0.011683598422530713,
0.012019950124688279,-0.01182267366213175,
0.012069825436408978,0.01428635481667548,
0.012119700748129675,-0.015662241168111747,
0.012169576059850374,-0.0157078584430642,
0.012219451371571072,0.012836701914123672,
0.012269326683291771,-0.018529128262013667,
0.012319201995012468,0.025893314103831486,
0.012369077306733168,-0.012442512124861707,
0.012418952618453865,0.007580507653710613,
0.012468827930174564,-0.01194544660779178,
0.012518703241895262,0.002069917786509322,
0.01256857855361596,-0.00652465366370415,
0.012618453865336658,-0.007301561322494773,
0.012668329177057357,0.012641787745280325,
0.012718204488778055,0.022917880971918946,
0.012768079800498754,0.01808368798879161,
0.012817955112219451,-0.022695927036587807,
0.012867830423940149,-0.013471936300290309,
0.012917705735660848,-0.00557012391127264,
0.012967581047381545,0.011523489491122668,
0.013017456359102245,0.01961400608196921,
0.013067331670822942,0.009587155013672572,
0.013117206982543641,0.02207827020681219,
0.013167082294264339,0.02015695997473838,
0.013216957605985038,0.01050772898909126,
0.013266832917705735,0.016835858000918257,
0.013316708229426434,1.7395750556039105e-05,
0.013366583541147132,0.0038990315525554388,
0.013416458852867831,0.014809621809780776,
0.013466334164588529,0.007669406828819384,
0.013516209476309228,0.011707899996727906,
0.013566084788029925,0.008191346667152963,
0.013615960099750624,0.02034675917349557,
0.013665835411471322,0.017308526515569734,
0.01371571072319202,-0.02721574569543661,
0.013765586034912718,0.005621050189968283,
0.013815461346633416,0.001575458013926008,
0.013865336658354115,0.004203126719439778,
0.013915211970074812,0.013966857474925962,
0.013965087281795512,0.029764314964699737,
0.014014962593516209,0.026792197839910492,
0.014064837905236908,0.04117807839621911,
0.014114713216957606,0.02320798234691538,
0.014164588528678305,0.028778056110192317,
0.014214463840399002,-0.010377537501449718,
0.014264339152119701,0.03796675086788136,
0.014314214463840399,0.011151877842309773,
0.014364089775561098,0.03296019031870192,
0.014413965087281795,-0.010737406660691243,
0.014463840399002495,-0.001158204105200896,
0.014513715710723192,0.03974310154053372,
0.01456359102244389,0.021226518394801174,
0.014613466334164589,0.024581212380027403,
0.014663341645885286,0.00985516358360281,
0.014713216957605985,0.0006813052955323331,
0.014763092269326683,0.013067386319168602,
0.014812967581047382,0.017535604105282595,
0.01486284289276808,0.015228380400075504,
0.014912718204488778,0.011133396244790643,
0.014962593516209476,0.0035605411559134006,
0.015012468827930175,0.04171259690066666,
0.015062344139650873,0.0274360052276181,
0.015112219451371572,-0.0011589151866691974,
0.01516209476309227,0.023341926955338082,
0.015211970074812968,0.021383414584788547,
0.015261845386533666,0.007787103005258932,
0.015311720698254365,0.008394078962196213,
0.015361596009975062,0.0015558217073939305,
0.01541147132169576,0.025017940908321067,
0.015461346633416459,0.03955083185211275,
0.015511221945137156,0.02050393513855539,
0.015561097256857856,0.022914835612090616,
0.015610972568578553,0.006900958169512108,
0.015660847880299252,0.0142834586271955,
0.01571072319201995,-0.00531392685679493,
0.015760598503740647,0.014727789358805648,
0.015810473815461346,0.02302668757664502,
0.015860349127182045,0.01777072347077983,
0.015910224438902745,0.03133273235799356,
0.01596009975062344,0.05933766044954075,
0.01600997506234414,0.023313257990037393,
0.01605985037406484,0.0005097728080386624,
0.016109725685785538,0.0355409524787437,
0.016159600997506234,0.005595200394328842,
0.016209476309226933,0.06259586299188966,
0.016259351620947632,-0.0009950476484415181,
0.016309226932668328,0.020715403296051264,
0.016359102244389027,0.02513614345743931,
0.016408977556109726,0.011648517530834759,
0.016458852867830425,0.016223453236128737,
0.01650872817955112,0.03085500422721935,
0.01655860349127182,0.012139389742562606,
0.01660847880299252,-0.0040595544415628175,
0.01665835411471322,0.025846067328395422,
0.016708229426433914,-0.013247983384618679,
0.016758104738154613,0.029958571211611,
0.016807980049875312,0.0337153961078992,
0.01685785536159601,0.03412343509966573,
0.016907730673316707,0.027505928009736457,
0.016957605985037406,0.021376782345125928,
0.017007481296758106,0.019302928316392392,
0.0170573566084788,0.03058251991549284,
0.0171072319201995,0.033505076530953144,
0.0171571072319202,0.02486628254493175,
0.0172069825436409,0.029200239222769563,
0.017256857855361595,-0.008478096406895282,
0.017306733167082294,0.012674065826396482,
0.017356608478802993,-0.018348395211125402,
0.017406483790523692,0.036563376041639346,
0.017456359102244388,0.011333118687135985,
0.017506234413965087,0.02144368405798879,
0.017556109725685786,0.032278443276574066,
0.017605985037406485,0.024783549390303944,
0.01765586034912718,0.01552239620802888,
0.01770573566084788,0.012484544631478184,
0.01775561097256858,0.03487636570855851,
0.01780548628428928,0.03735864685866115,
0.017855361596009974,0.03985111959497836,
0.017905236907730673,0.01110707335888481,
0.017955112219451373,-0.005759881292828645,
0.018004987531172068,0.024344820026181237,
0.018054862842892767,0.021575253272711595,
0.018104738154613467,0.01976338618584908,
0.018154613466334166,0.014347552441639988,
0.01820448877805486,0.008556885053242574,
0.01825436408977556,0.021335313000908556,
0.01830423940149626,0.014446260808698944,
0.01835411471321696,0.021463324208501,
0.018403990024937655,0.027540533155718232,
0.018453865336658354,0.037380376887532756,
0.018503740648379053,0.017352022603867735,
0.018553615960099752,0.03214866924289554,
0.018603491271820448,0.03176921147355675,
0.018653366583541147,0.024970235736034827,
0.018703241895261846,0.026781194489741086,
0.018753117206982542,0.022485224043931322,
0.01880299251870324,0.04022055779606774,
0.01885286783042394,0.026018025344915437,
0.01890274314214464,0.03234977064761097,
0.018952618453865335,-0.003091332663142987,
0.019002493765586034,-0.024457028728522602,
0.019052369077306733,0.036131973031318855,
0.019102244389027433,0.008896093267539608,
0.01915211970074813,0.026364589820292106,
0.019201995012468828,0.03716399634789133,
0.019251870324189527,-0.014522693870458313,
0.019301745635910226,0.010688682603433447,
0.01935162094763092,-0.015980442023498447,
0.01940149625935162,0.03867030539133829,
0.01945137157107232,0.016795804352948075,
0.01950124688279302,0.053406256864376236,
0.019551122194513715,0.013434859508838848,
0.019600997506234414,0.0031628970482980145,
0.019650872817955113,0.023102835568629625,
0.01970074812967581,-0.002591551623361398,
0.019750623441396508,0.013809376359755125,
0.019800498753117207,0.015773305673667862,
0.019850374064837906,0.014478686479221048,
0.019900249376558602,-0.011078975434180445,
0.0199501246882793,0.01155737204682344,
0.02,0.011502720738849632,
0.0200498753117207,0.011700083332508812,
0.020099750623441395,0.01954390880469052,
0.020149625935162094,0.012060386230135535,
0.020199501246882794,0.01035959604269477,
0.020249376558603493,0.013626519942929913,
0.02029925187032419,0.013174240459826417,
0.020349127182044888,0.0012299525904448817,
0.020399002493765587,0.011537076088187834,
0.020448877805486283,0.0008594259545467824,
0.02049875311720698,0.02146723343595044,
0.02054862842892768,0.005747975979460621,
0.02059850374064838,0.020437968572152028,
0.020648379052369076,0.016858865032723283,
0.020698254364089775,0.012245988276796639,
0.020748129675810474,-0.02187430435428804,
0.020798004987531173,-0.0016318853542787032,
0.02084788029925187,0.009398743250243445,
0.020897755610972568,-0.001497906552395581,
0.020947630922693267,0.018599152713751888,
0.020997506234413967,0.013555677024910683,
0.021047381546134662,-0.008020450868388738,
0.02109725685785536,-0.005497355942405982,
0.02114713216957606,-0.02209646354218312,
0.02119700748129676,0.007339308812619942,
0.021246882793017455,0.009914998005779135,
0.021296758104738155,0.01672624796095632,
0.021346633416458854,0.045042866430498124,
0.02139650872817955,-0.004290725407596504,
0.02144638403990025,0.01584992433774311,
0.021496259351620948,0.009789753974834097,
0.021546134663341647,0.008587214393849865,
0.021596009975062343,0.019218230290263677,
0.021645885286783042,0.010272105185546273,
0.02169576059850374,-0.006531526455043304,
0.02174563591022444,0.005005182590634585,
0.021795511221945136,0.036218023530470225,
0.021845386533665835,-0.03507588848393345,
0.021895261845386534,-0.0038875824771098834,
0.021945137157107233,0.030834537924691097,
0.02199501246882793,0.012910458321230861,
0.02204488778054863,0.010336394008395616,
0.022094763092269327,0.013583961422786029,
0.022144638403990027,-0.011017128407148642,
0.022194513715710722,0.031112485362433922,
0.02224438902743142,-0.003524660211020384,
0.02229426433915212,-0.017265198787142094,
0.022344139650872816,0.011427679509119812,
0.022394014962593516,0.0075152261491812054,
0.022443890274314215,0.023637179159496008,
0.022493765586034914,-0.018897400383419024,
0.02254364089775561,-0.027271379708921975,
0.02259351620947631,-0.02568466269406708,
0.022643391521197008,0.0179393362279951,
0.022693266832917707,-0.0027679920260763324,
0.022743142144638403,-0.023090798217213628,
0.022793017456359102,0.0024585783535067017,
0.0228428927680798,-0.007267856019018387,
0.0228927680798005,0.006197671294195879,
0.022942643391521196,-0.0006782013828921887,
0.022992518703241895,-0.007797771639358871,
0.023042394014962594,-0.02448440352306596,
0.02309226932668329,-0.025213813211932834,
0.02314214463840399,0.012028212314684341,
0.02319201995012469,-0.02907049397651937,
0.023241895261845388,-0.01517421100173029,
0.023291770573566083,0.0016788757364562795,
0.023341645885286783,0.02665313944138579,
0.02339152119700748,-0.023568747263258496,
0.02344139650872818,-0.01456854974053585,
0.023491271820448877,-0.015009305299140904,
0.023541147132169576,0.002838897535985932,
0.023591022443890275,0.014590028941574984,
0.023640897755610974,0.023759992182871736,
0.02369077306733167,0.0066210810515526,
0.02374064837905237,-0.02802800623371246,
0.023790523690773068,-0.010687972375165021,
0.023840399002493767,-0.014493400165612187,
0.023890274314214463,0.010853889888564484,
0.023940149625935162,0.015981067353851547,
0.02399002493765586,-0.013648603523733819,
0.024039900249376557,0.00839786380433696,
0.024089775561097256,0.015335166887422697,
0.024139650872817955,0.001492213304769504,
0.024189526184538655,-0.018498501580597442,
0.02423940149625935,-0.011829340130555794,
0.02428927680798005,-0.0017643956674768257,
0.02433915211970075,0.009115288469642123,
0.024389027431421448,-0.027596802198833023,
0.024438902743142144,-0.001457891789894054,
0.024488778054862843,-0.013974161316046691,
0.024538653366583542,-0.027527151933968645,
0.02458852867830424,-0.017082720764228437,
0.024638403990024937,-0.011209739585390503,
0.024688279301745636,-0.035429394691914175,
0.024738154613466335,-0.016054918878504586,
0.02478802992518703,-0.01716292011931511,
0.02483790523690773,-0.038932548121984066,
0.02488778054862843,-0.016297589345635022,
0.02493765586034913,-0.02745297358304348,
0.024987531172069824,0.010196434007151802,
0.025037406483790523,-0.016232463736464465,
0.025087281795511222,-0.015778016856948775,
0.02513715710723192,-0.020626943747068457,
0.025187032418952617,-0.026515454902095836,
0.025236907730673316,0.007748556150862347,
0.025286783042394016,-2.599955215957031e-05,
0.025336658354114715,-3.953451700025243e-05,
0.02538653366583541,-0.028625232436948315,
0.02543640897755611,-0.021133947185219548,
0.02548628428927681,-0.03390670718671512,
0.025536159600997508,-0.005841179825261831,
0.025586034912718204,-0.013134283487347255,
0.025635910224438903,-0.03174397840866966,
0.025685785536159602,-0.038205624518424894,
0.025735660847880298,-0.02906196184575982,
0.025785536159600997,0.013637965988327911,
0.025835411471321696,-0.04214801355673076,
0.025885286783042395,0.0013904219384911175,
0.02593516209476309,-0.04172405510630091,
0.02598503740648379,-0.024287422338207236,
0.02603491271820449,-0.039878189005974445,
0.02608478802992519,-0.028602260538381993,
0.026134663341645884,0.005000593377706815,
0.026184538653366583,0.01759115407781348,
0.026234413965087282,-0.019608269031358927,
0.02628428927680798,-0.00815960924704792,
0.026334164588528677,-0.002085439962828589,
0.026384039900249377,0.003874996801141544,
0.026433915211970076,-0.010906678783735763,
0.02648379052369077,-0.022251502948104525,
0.02653366583541147,-0.013126113719895222,
0.02658354114713217,-0.02512868772690079,
0.02663341645885287,-0.03255445931354922,
0.026683291770573565,-0.023134572621078892,
0.026733167082294264,-0.024354887439471354,
0.026783042394014963,-0.00701840236231476,
0.026832917705735662,-0.030513323905185026,
0.026882793017456358,-0.02152709571160244,
0.026932668329177057,-0.0040409323435672325,
0.026982543640897756,-0.018966287958235437,
0.027032418952618455,-0.003746274628281237,
0.02708229426433915,-0.0265177030458338,
0.02713216957605985,-0.016916059315531598,
0.02718204488778055,-0.022968404154263256,
0.02723192019950125,-0.0287123416514252,
0.027281795511221944,-0.02267075637963708,
0.027331670822942643,-0.006413665119243017,
0.027381546134663343,-0.031290711777269394,
0.02743142144638404,0.01710609795056624,
0.027481296758104738,-0.0032053092119702607,
0.027531172069825437,-0.02031044700541008,
0.027581047381546136,-0.009460354078049906,
0.02763092269326683,-0.020568607617763787,
0.02768079800498753,-0.02518273515243984,
0.02773067331670823,0.00848699344698426,
0.02778054862842893,-0.010541285186968934,
0.027830423940149625,0.0036529219124499836,
0.027880299251870324,-0.029348549701570272,
0.027930174563591023,-0.013418254406196357,
0.027980049875311722,-0.02676058618409788,
0.028029925187032418,-0.010284284678528856,
0.028079800498753117,-0.01497138305029625,
0.028129675810473816,-0.01828654657062026,
0.028179551122194512,0.022781590617686885,
0.02822942643391521,-0.0036685466359785406,
0.02827930174563591,-0.007433475173028212,
0.02832917705735661,-0.02562870163537944,
0.028379052369077305,-0.04492563733282734,
0.028428927680798004,-0.02494433410046118,
0.028478802992518704,-0.01144601928236933,
0.028528678304239403,-0.018608605785088488,
0.0285785536159601,-0.013176200710208417,
0.028628428927680798,-0.030766296000588826,
0.028678304239401497,0.010696006667312186,
0.028728179551122196,-0.011033642739680459,
0.02877805486284289,-0.029329923412651573,
0.02882793017456359,-0.0034367279824158714,
0.02887780548628429,-0.023101640978456947,
0.02892768079800499,-0.0017861410664026453,
0.028977556109725685,-0.024620339784104633,
0.029027431421446384,-0.017745854962232063,
0.029077306733167083,-0.011781252851933006,
0.02912718204488778,0.002495749483577968,
0.029177057356608478,-0.004913656343365675,
0.029226932668329177,-0.016993323214545143,
0.029276807980049877,0.0054966575349253925,
0.029326683291770572,-0.04351328173345281,
0.02937655860349127,-0.011419449770296845,
0.02942643391521197,-0.003708232671890542,
0.02947630922693267,0.006663298764107975,
0.029526184538653365,-0.03431046752807388,
0.029576059850374065,-0.019397422847137313,
0.029625935162094764,0.005998061165663827,
0.029675810473815463,-0.003420859313340732,
0.02972568578553616,-0.005584474630468002,
0.029775561097256858,-0.02016694211009233,
0.029825436408977557,-0.029501529527210878,
0.029875311720698253,-0.015890114416584236,
0.029925187032418952,-0.009382371605794282,
0.02997506234413965,0.013235816632514472,
0.03002493765586035,-0.0028824035612862826,
0.030074812967581046,-0.007218109103191974,
0.030124688279301745,-0.00949746032895655,
0.030174563591022444,0.0065966131078282995,
0.030224438902743143,-0.019263399913780482,
0.03027431421446384,-0.04174493867493416,
0.03032418952618454,-0.0065330224522089815,
0.030374064837905237,-0.025426027634648782,
0.030423940149625937,0.00019310739162045273,
0.030473815461346632,0.015620742849502198,
0.03052369077306733,-0.022568215904313085,
0.03057356608478803,0.0001463973182708033,
0.03062344139650873,0.005042225767617029,
0.030673316708229426,-0.017474653537525947,
0.030723192019950125,-0.007275840145656772,
0.030773067331670824,0.01067008249151577,
0.03082294264339152,-0.008850432022286057,
0.03087281795511222,-0.01874311594854393,
0.030922693266832918,-0.02357665526459817,
0.030972568578553617,0.01121291065153647,
0.031022443890274313,-0.01301952289857213,
0.031072319201995012,-0.018858837199799167,
0.03112219451371571,0.02600237681320197,
0.03117206982543641,-0.01590410556853915,
0.031221945137157106,-0.0017503643552874914,
0.03127182044887781,0.022183949733773918,
0.031321695760598504,0.01736638198905989,
0.0313715710723192,0.0035340464967065534,
0.0314214463840399,0.01425152878461573,
0.0314713216957606,-0.015354188269963908,
0.031521197007481294,-0.011369173815371473,
0.031571072319202,-0.007691187394401017,
0.03162094763092269,-0.012561402684890961,
0.03167082294264339,-0.01972077659980976,
0.03172069825436409,0.008621521352869942,
0.03177057356608479,-0.03188707057283271,
0.03182044887780549,0.006121232741574114,
0.031870324189526185,0.021251986730851914,
0.03192019950124688,0.027403878178648793,
0.03197007481296758,0.020513354422809833,
0.03201995012468828,0.007615051123833115,
0.032069825436408975,-0.0130477857604731,
0.03211970074812968,0.026212497088878836,
0.03216957605985037,-0.02271913445999755,
0.032219451371571076,0.0064582962249599895,
0.03226932668329177,0.01544556613293601,
0.03231920199501247,0.01010477640402119,
0.03236907730673317,-0.012173053659659915,
0.032418952618453865,-0.02059190975599859,
0.03246882793017456,-0.004167055917802696,
0.032518703241895264,0.012282588899551736,
0.03256857855361596,0.013015044452003494,
0.032618453865336655,0.015048673488037352,
0.03266832917705736,-0.0009817655876097047,
0.032718204488778053,-0.03401645095883412,
0.032768079800498756,-0.0009653053230369362,
0.03281795511221945,0.02130712038349434,
0.03286783042394015,0.009061816603844778,
0.03291770573566085,0.003946435973295538,
0.032967581047381546,0.0017146304167586527,
0.03301745635910224,0.012291207005007031,
0.033067331670822944,-0.009729524765099947,
0.03311720698254364,-0.0051227160745911954,
0.03316708229426434,0.00027458804304077676,
0.03321695760598504,-0.008704913768142404,
0.033266832917705734,0.030940869105431833,
0.03331670822942644,0.014477027825717317,
0.03336658354114713,-0.004942895102875428,
0.03341645885286783,-0.016007807877492786,
0.03346633416458853,-0.0014547112410424681,
0.033516209476309226,0.02711654453537392,
0.03356608478802992,-0.017600870654909725,
0.033615960099750625,0.023280156452516243,
0.03366583541147132,0.00046433426082289654,
0.03371571072319202,-0.01016406469732109,
0.03376558603491272,0.019349405523121994,
0.033815461346633414,0.00499433144202344,
0.03386533665835412,0.008463675123763895,
0.03391521197007481,0.016003310070020028,
0.03396508728179551,-0.001260318037052446,
0.03401496259351621,0.02107828306019908,
0.03406483790523691,0.02647278106619158,
0.0341147132169576,-0.010008461347208482,
0.034164588528678305,0.024091938365335824,
0.034214463840399,0.007780275662427398,
0.034264339152119704,-3.90881845856398e-05,
0.0343142144638404,0.004066542109024631,
0.034364089775561095,0.0383298409166858,
0.0344139650872818,0.016350783656772717,
0.03446384039900249,0.0388888550886035,
0.03451371571072319,0.017303792593923426,
0.03456359102244389,0.02223659420643872,
0.03461346633416459,0.024991149548278753,
0.03466334164588529,0.03453883296843506,
0.034713216957605986,0.02560126682375744,
0.03476309226932668,-0.013047054723231928,
0.034812967581047384,0.012104129717401508,
0.03486284289276808,0.022079786017677412,
0.034912718204488775,0.03231168708600625,
0.03496259351620948,-0.00991087249909866,
0.035012468827930174,-0.006935927916815535,
0.03506234413965087,0.04244007586584832,
0.03511221945137157,0.02271132013717438,
0.03516209476309227,0.006420296478445928,
0.03521197007481297,0.006293538545160659,
0.035261845386533666,0.03613839902266361,
0.03531172069825436,0.02782799785285317,
0.035361596009975065,0.04119111618663116,
0.03541147132169576,0.020526851307942396,
0.035461346633416456,0.03380937292442243,
0.03551122194513716,0.017747690371387355,
0.035561097256857854,0.007821481421860418,
0.03561097256857856,0.03688354242352334,
0.03566084788029925,0.0339690511329616,
0.03571072319201995,0.01899402693429699,
0.03576059850374065,0.003532196131724275,
0.03581047381546135,0.012797056066019963,
0.03586034912718204,0.01594263764223326,
0.035910224438902745,0.021308268203163675,
0.03596009975062344,0.000450759215392664,
0.036009975062344136,0.011035546149784848,
0.03605985037406484,-0.00027247797124611145,
0.036109725685785535,0.030964478538056013,
0.03615960099750624,0.018244413118496554,
0.03620947630922693,0.014186287561973362,
0.03625935162094763,0.017575740972222736,
0.03630922693266833,0.019899306506798078,
0.03635910224438903,0.02802572584743493,
0.03640897755610972,0.02842394014768698,
0.036458852867830426,0.029628467195274743,
0.03650872817955112,0.01327428668949442,
0.036558603491271824,0.00555829628978036,
0.03660847880299252,0.0014741560724054886,
0.036658354114713215,0.015723452345380935,
0.03670822942643392,0.040560944910698754,
0.036758104738154614,0.01646701530189776,
0.03680798004987531,0.022200359266881825,
0.03685785536159601,0.02296576220438382,
0.03690773067331671,0.023624859014011124,
0.0369576059850374,0.013732443810442864,
0.037007481296758106,0.018519381470488507,
0.0370573566084788,0.034271766926376984,
0.037107231920199504,0.01903946308876925,
0.0371571072319202,0.02386614375459768,
0.037206982543640896,0.0283923719650537,
0.0372568578553616,0.03725268003462981,
0.037306733167082294,0.012430746072781804,
0.03735660847880299,0.03526576682086242,
0.03740648379052369,0.0394334864531133,
0.03745635910224439,0.026679859771283416,
0.037506234413965084,0.018155383024293453,
0.037556109725685786,-0.002231569739208874,
0.03760598503740648,0.034979230909686715,
0.037655860349127185,0.026730207238095372,
0.03770573566084788,0.0338076676395916,
0.037755610972568576,0.007326333548118359,
0.03780548628428928,0.02408753176197114,
0.037855361596009975,0.006690724808633256,
0.03790523690773067,0.028078215779989053,
0.03795511221945137,0.00688220739189222,
0.03800498753117207,0.03287498677180165,
0.03805486284289277,0.023089147998955777,
0.03810473815461347,0.004111459853992756,
0.03815461346633416,-0.0043872452518512566,
0.038204488778054865,0.004733646512286551,
0.03825436408977556,0.01939249577301533,
0.03830423940149626,0.008287930869783392,
0.03835411471321696,0.01973467012143743,
0.038403990024937655,0.03859366628884238,
0.03845386533665835,0.023431153765541814,
0.03850374064837905,0.031066540516352912,
0.03855361596009975,0.03301141030185476,
0.03860349127182045,-0.012126837998940463,
0.03865336658354115,0.01061638044420427,
0.03870324189526184,-0.0034830061121924848,
0.038753117206982546,0.021761448771731855,
0.03880299251870324,0.03610969020191146,
0.03885286783042394,-0.006938339346880585,
0.03890274314214464,0.012991527674472519,
0.038952618453865336,0.022094985170266396,
0.03900249376558604,0.0224669274255723,
0.039052369077306734,0.027542983904933212,
0.03910224438902743,-0.004309994863080549,
0.03915211970074813,0.011253423761045586,
0.03920199501246883,0.022480049658534684,
0.039251870324189524,0.01942573307370185,
0.039301745635910226,0.006354721533882588,
0.03935162094763092,0.038953910287759984,
0.03940149625935162,0.04742218870521139,
0.03945137157107232,0.03317394738863585,
0.039501246882793016,0.02939192531721307,
0.03955112219451372,0.032973462345122564,
0.039600997506234414,0.01724478505026885,
0.03965087281795511,0.02793119796150249,
0.03970074812967581,-0.012830634400552508,
0.03975062344139651,0.02691270139877302,
0.039800498753117204,0.03699229108941158,
0.03985037406483791,0.02849175517037761,
0.0399002493765586,0.042217697330234574,
0.039950124688279305,-0.001451241167138989,
0.04,0.008874355593829125,
0.0400498753117207,0.02163663288789091,
0.0400997506234414,0.01032970479455882,
0.040149625935162095,-0.005291480546678497,
0.04019950124688279,0.009765130996549128,
0.04024937655860349,0.030268303795269777,
0.04029925187032419,0.03486490295280524,
0.040349127182044885,0.007337168279917487,
0.04039900249376559,0.015314126255868588,
0.04044887780548628,0.0007617316944785769,
0.040498753117206986,0.008099843059832895,
0.04054862842892768,0.007970967133618192,
0.04059850374064838,-0.01300668805254191,
0.04064837905236908,0.01780217818639501,
0.040698254364089775,0.023682500052680314,
0.04074812967581047,0.004445804230656749,
0.040798004987531174,0.018593671465685066,
0.04084788029925187,0.00515963131373089,
0.040897755610972565,0.014322553785379995,
0.04094763092269327,-0.0060864221001969785,
0.04099750623441396,0.02958916439849448,
0.041047381546134666,-0.013126086892043943,
0.04109725685785536,0.001536228700658616,
0.04114713216957606,0.0247224283452098,
0.04119700748129676,0.028519316585463,
0.041246882793017456,-0.008849076805377781,
0.04129675810473815,0.02241411848227189,
0.041346633416458854,-0.002560302203817943,
0.04139650872817955,-0.00817422193717349,
0.04144638403990025,0.003192022276799385,
0.04149625935162095,-0.018313858303533197,
0.041546134663341644,0.006870926745861319,
0.04159600997506235,0.019082509911674483,
0.04164588528678304,0.000227372949325305,
0.04169576059850374,0.018303688450709822,
0.04174563591022444,0.009724181139583668,
0.041795511221945136,0.003517734679141575,
0.04184538653366583,0.016182754905964394,
0.041895261845386535,-0.001963447915359593,
0.04194513715710723,0.006518824895533865,
0.04199501246882793,-0.015609445164245846,
0.04204488778054863,0.006574167464127658,
0.042094763092269324,0.0046015599173744644,
0.04214463840399003,-0.010296998008830863,
0.04219451371571072,0.007239832166789849,
0.04224438902743142,-0.005818721519988553,
0.04229426433915212,-0.008619866953130181,
0.04234413965087282,-0.01794177071786258,
0.04239401496259352,0.023398762610702128,
0.042443890274314215,-0.015257951450558773,
0.04249376558603491,-0.009720070326538498,
0.042543640897755614,-0.0037119324471688257,
0.04259351620947631,-0.011579548489161514,
0.042643391521197005,0.006628331131274361,
0.04269326683291771,0.022722423361764516,
0.0427431421446384,0.014921122092616548,
0.0427930174563591,-0.014054175266365553,
0.0428428927680798,0.017008983972988653,
0.0428927680798005,-0.009449126116552232,
0.0429426433915212,-0.025986825664448095,
0.042992518703241896,-0.009783838417006576,
0.04304239401496259,0.006146322323496571,
0.043092269326683294,-0.013079363081748443,
0.04314214463840399,-0.01136065519498847,
0.043192019950124685,-0.009406766711193348,
0.04324189526184539,0.008638385694150806,
0.043291770573566084,-0.01435800653148543,
0.043341645885286786,0.017651240642638927,
0.04339152119700748,-0.0031650185708272435,
0.04344139650872818,-0.00726838413060263,
0.04349127182044888,-0.002767946147705033,
0.043541147132169576,0.009450116071502352,
0.04359102244389027,-0.027757398079238854,
0.043640897755610975,-0.006513767746504058,
0.04369077306733167,0.0005784939627577175,
0.043740648379052366,-0.017968484900949704,
0.04379052369077307,-0.020515722659090466,
0.043840399002493764,-0.017453290321293002,
0.04389027431421447,0.01183047859707999,
0.04394014962593516,-0.0018577708151384705,
0.04399002493765586,-0.01275645007864091,
0.04403990024937656,-0.01766211541047577,
0.04408977556109726,0.008428104943283214,
0.04413965087281795,-0.007089181038880351,
0.044189526184538655,-0.02662935600556833,
0.04423940149625935,0.0005495135116749903,
0.04428927680798005,0.007655039191858394,
0.04433915211970075,0.006645502206101234,
0.044389027431421445,0.002085228059155427,
0.04443890274314215,-0.00397712224386721,
0.04448877805486284,-0.01546275045517674,
0.04453865336658354,-0.0180976195309762,
0.04458852867830424,-0.023327302577858436,
0.04463840399002494,-0.02138548972610132,
0.04468827930174563,-0.008013174774782143,
0.044738154613466335,-0.0410674756573802,
0.04478802992518703,-0.012399639159361731,
0.044837905236907734,-0.002560739494576851,
0.04488778054862843,-0.011563082335254838,
0.044937655860349125,-0.014108689903956272,
0.04498753117206983,-0.0035684492588257954,
0.045037406483790524,-0.020713212544003955,
0.04508728179551122,-0.013620882126124662,
0.04513715710723192,-0.023577320138781388,
0.04518703241895262,-0.014501493202249643,
0.04523690773067331,-0.0027293606106470296,
0.045286783042394016,0.013433055604169051,
0.04533665835411471,-0.011333272260269294,
0.045386533665835414,-0.01616563837261314,
0.04543640897755611,0.014443219045951354,
0.045486284289276806,-0.012971774701122233,
0.04553615960099751,0.011769481025788986,
0.045586034912718204,-0.02485330584977577,
0.0456359102244389,-0.009432223863854606,
0.0456857855361596,0.009534645938867301,
0.0457356608478803,-0.006151079983534539,
0.045785536159601,-0.01003918308978125,
0.045835411471321696,-0.0191537656450013,
0.04588528678304239,-0.05270229668084881,
0.045935162094763095,-0.0520680751787881,
0.04598503740648379,-0.04390486993724334,
0.046034912718204486,-0.022268609993647534,
0.04608478802992519,-0.01751893462318226,
0.046134663341645885,-0.01052593176271982,
0.04618453865336658,0.0064837011442549775,
0.04623441396508728,-0.008117444613147097,
0.04628428927680798,-0.018244385714382246,
0.04633416458852868,-0.019611669856020468,
0.04638403990024938,-0.018142388567230792,
0.04643391521197007,-0.014567855079233121,
0.046483790523690775,-0.0024481423785824557,
0.04653366583541147,-0.032733344410276505,
0.04658354114713217,-0.004250502241251175,
0.04663341645885287,-0.029783531555003323,
0.046683291770573565,-0.0121079717366335,
0.04673316708229427,0.007098350934502246,
0.04678304239401496,-0.01012996073444341,
0.04683291770573566,-0.020062080316494594,
0.04688279301745636,0.00889694581065659,
0.04693266832917706,-0.00024802726670423644,
0.04698254364089775,-0.013874203672219929,
0.047032418952618456,-0.0003958063407092857,
0.04708229426433915,-0.018583198068379665,
0.04713216957605985,-0.026903385307835467,
0.04718204488778055,-0.01657447334522416,
0.047231920199501246,-0.021374706749621945,
0.04728179551122195,-0.016593110138560713,
0.047331670822942644,-0.006019093414133198,
0.04738154613466334,-0.020454995340009625,
0.04743142144638404,-0.01605759198453431,
0.04748129675810474,-0.015318305160288224,
0.047531172069825434,-0.004119221144871071,
0.047581047381546136,0.0013563746848990824,
0.04763092269326683,-0.0259335884993701,
0.047680798004987535,-0.03196730695615727,
0.04773067331670823,-0.006128582205398664,
0.047780548628428926,-0.010607484002873372,
0.04783042394014963,-0.027997813014162015,
0.047880299251870324,-0.015197873996810269,
0.04793017456359102,-0.01923788344176896,
0.04798004987531172,-0.023216261579776465,
0.04802992518703242,-0.03429397759688037,
0.048079800498753114,-0.0336846447665134,
0.04812967581047382,-0.03766877386043754,
0.04817955112219451,0.002921196423347339,
0.048229426433915215,-0.007367169761427818,
0.04827930174563591,-0.02427641797839797,
0.048329177057356607,-0.02508668618104943,
0.04837905236907731,-0.023857622845380816,
0.048428927680798005,-0.01481640839933243,
0.0484788029925187,-0.004234659474417205,
0.0485286783042394,-0.005728498504661969,
0.0485785536159601,-0.00674708868382564,
0.048628428927680795,0.0008280320013095283,
0.0486783042394015,-0.018867381823655275,
0.04872817955112219,-0.013143396553829945,
0.048778054862842896,-0.008990021988015313,
0.04882793017456359,-0.012181427802511476,
0.04887780548628429,-0.007071691542540841,
0.04892768079800499,-0.0021351099613521243,
0.048977556109725685,-0.019320976243977172,
0.04902743142144638,-0.01657196496999256,
0.049077306733167084,-0.004452788355956191,
0.04912718204488778,-0.020085348880941482,
0.04917705735660848,-0.016710466344695144,
0.04922693266832918,-0.0205179040111965,
0.04927680798004987,0.0032957386744385322,
0.049326683291770576,-0.013342519768970303,
0.04937655860349127,-0.025374011624394184,
0.04942643391521197,-0.022832493740191202,
0.04947630922693267,-0.028188645306602297,
0.049526184538653366,-0.0034752040888607096,
0.04957605985037406,-0.004714932174926616,
0.049625935162094764,-0.037236215255652017,
0.04967581047381546,-0.002059274052111768,
0.04972568578553616,-0.018217254862042953,
0.04977556109725686,-0.0035458350602514425,
0.049825436408977554,-0.00889713268975632,
0.04987531172069826,-0.010573749086709456,
0.04992518703241895,0.0025597131587137,
0.04997506234413965,-0.02654537221330637,
0.05002493765586035,-0.005984257990500024,
0.050074812967581046,0.012201938007986548,
0.05012468827930175,-0.0035337072758070912,
0.050174563591022445,-0.002876638819832797,
0.05022443890274314,-0.012322066020433432,
0.05027431421446384,0.030780635078364135,
0.05032418952618454,-0.011744247105895177,
0.050374064837905234,0.003030074293697285,
0.05042394014962594,-0.02543914575670266,
0.05047381546134663,0.025430582123749924,
0.05052369077306733,-0.014583519950563426,
0.05057356608478803,0.004669512224206531,
0.05062344139650873,-0.018199383955575084,
0.05067331670822943,0.006253279271084473,
0.050723192019950125,0.0019476145587632044,
0.05077306733167082,0.002764152139243423,
0.050822942643391524,-0.010654482929395465,
0.05087281795511222,-0.01881212392919791,
0.050922693266832915,0.013204083091579711,
0.05097256857855362,-0.002973476751415765,
0.05102244389027431,-0.013675213979086233,
0.051072319201995016,-0.006368628927685702,
0.05112219451371571,-0.0022534735690186956,
0.05117206982543641,0.014071558745752374,
0.05122194513715711,-0.018203695996956076,
0.051271820448877806,-0.004317900417864924,
0.0513216957605985,0.004233762337977492,
0.051371571072319204,0.016861609116475672,
0.0514214463840399,-0.006852438787874981,
0.051471321695760595,0.018519620923349574,
0.0515211970074813,-0.026036969097582317,
0.051571072319201994,-0.02307534283989427,
0.051620947630922696,0.0028538638478904847,
0.05167082294264339,0.01236971074366699,
0.05172069825436409,0.03134127843377451,
0.05177057356608479,-0.013437078118883249,
0.051820448877805486,0.014048917463391118,
0.05187032418952618,0.015279443487644555,
0.051920199501246884,0.013667157806111208,
0.05197007481296758,0.002459442517629244,
0.052019950124688276,-0.004594143463107902,
0.05206982543640898,-0.007994168294707829,
0.052119700748129674,0.0072985987024058695,
0.05216957605985038,-0.00807890918736007,
0.05221945137157107,0.011697425597056027,
0.05226932668329177,-0.012049880539747423,
0.05231920199501247,0.002107752297893154,
0.05236907730673317,-0.006780319953702636,
0.05241895261845386,0.02054321729929265,
0.052468827930174565,0.010282302034828683,
0.05251870324189526,-0.0013636476112107356,
0.05256857855361596,0.029475313930295295,
0.05261845386533666,0.019366651440933497,
0.052668329177057355,-0.006235685467119598,
0.05271820448877806,0.016572110475411118,
0.05276807980049875,-0.00011115210246639279,
0.05281795511221945,-0.009810179954062425,
0.05286783042394015,0.01689437662760533,
0.05291770573566085,0.012345863013399506,
0.05296758104738154,-0.006530635844777234,
0.053017456359102245,-0.011952118767218783,
0.05306733167082294,0.005260855351012275,
0.053117206982543644,-0.012815839331453874,
0.05316708229426434,0.013196235698192307,
0.053216957605985035,-0.01443684615444812,
0.05326683291770574,0.0009077786393883493,
0.053316708229426434,0.03728891351452406,
0.05336658354114713,0.03443712536699533,
0.05341645885286783,-0.006438994455508093,
0.05346633416458853,0.006776919691522611,
0.05351620947630923,-0.01094979339626142,
0.053566084788029926,-0.007861995886819064,
0.05361596009975062,0.03679872309309051,
0.053665835411471324,0.014633763120865376,
0.05371571072319202,-0.011352653010515024,
0.053765586034912716,0.028269779433593274,
0.05381546134663342,-0.0019972974503135506,
0.053865336658354114,0.01651717473991282,
0.05391521197007481,0.008675753902292853,
0.05396508728179551,0.02120348531958883,
0.05401496259351621,0.0011091628985481442,
0.05406483790523691,0.0350616267175454,
0.054114713216957606,-0.004957454536267003,
0.0541645885286783,0.03049301763761826,
0.054214463840399005,0.006502134802569042,
0.0542643391521197,0.025808284932486308,
0.054314214463840396,0.032448729845938884,
0.0543640897755611,0.02188101095048939,
0.054413965087281795,0.019465453077082816,
0.0544638403990025,-0.011661034576457757,
0.05451371571072319,0.05097803534672782,
0.05456359102244389,0.03572150355489502,
0.05461346633416459,0.010582425722220096,
0.05466334164588529,0.01772623896901016,
0.05471321695760598,0.004423524139758514,
0.054763092269326685,0.020395254044038972,
0.05481296758104738,0.027306816348901544,
0.05486284289276808,0.022911038573806934,
0.05491271820448878,0.026073195080964028,
0.054962593516209475,0.01036214012788472,
0.05501246882793018,0.010415517605420962,
0.05506234413965087,0.008651155757973573,
0.05511221945137157,0.0418446993505215,
0.05516209476309227,0.02953446367157446,
0.05521197007481297,0.001267899153043324,
0.05526184538653366,0.017729200829691958,
0.055311720698254366,0.03210868349248709,
0.05536159600997506,0.02904113143706445,
0.05541147132169576,-0.009720987109865853,
0.05546134663341646,0.017256040835377424,
0.055511221945137156,0.028259151746906342,
0.05556109725685786,0.0401720389535498,
0.055610972568578554,0.017302247251063434,
0.05566084788029925,0.006054473981132066,
0.05571072319201995,0.03241023212228509,
0.05576059850374065,0.008737363550523266,
0.055810473815461344,0.005865926915455295,
0.055860349127182046,0.009236459224066487,
0.05591022443890274,-0.004965203941847095,
0.055960099750623445,0.04577904465799032,
0.05600997506234414,0.002291119922061432,
0.056059850374064836,0.03285751782706775,
0.05610972568578554,0.026014976477715196,
0.056159600997506234,0.01192829965602903,
0.05620947630922693,0.01907640559711158,
0.05625935162094763,0.018982251452219174,
0.05630922693266833,0.04047316372308901,
0.056359102244389024,0.03477648225150623,
0.05640897755610973,0.03589582355242445,
0.05645885286783042,0.018013608326866173,
0.056508728179551125,0.0369302517359229,
0.05655860349127182,0.025325383767678424,
0.056608478802992516,0.03304769860602456,
0.05665835411471322,0.04222467320347238,
0.056708229426433915,0.0015846778572806836,
0.05675810473815461,0.02851282155856552,
0.05680798004987531,0.032020475529730176,
0.05685785536159601,0.008462704189960056,
0.05690773067331671,0.021084359424266376,
0.05695760598503741,0.04237876047615874,
0.0570074812967581,-0.009080853231310883,
0.057057356608478806,0.033132241078579545,
0.0571072319201995,0.020044885335537273,
0.0571571072319202,0.013857499729083208,
0.0572069825436409,0.006158134605516306,
0.057256857855361595,0.002341032104401213,
0.05730673316708229,0.0322335850345712,
0.057356608478802994,0.0016185426872902253,
0.05740648379052369,0.03534528203837291,
0.05745635910224439,0.011478802996535035,
0.05750623441396509,0.004512386279862279,
0.05755610972568578,0.02319745808924405,
0.057605985037406486,0.0027984498320098514,
0.05765586034912718,-0.007076784133775219,
0.05770573566084788,0.025160113303960778,
0.05775561097256858,0.019422619963067395,
0.057805486284289276,0.04523170446632484,
0.05785536159600998,0.037455670616760556,
0.057905236907730674,0.020109767094442184,
0.05795511221945137,0.020030030686041776,
0.05800498753117207,0.018965879967862625,
0.05805486284289277,0.04040805881549674,
0.058104738154613464,0.050603204360842306,
0.05815461346633417,0.005351139352816867,
0.05820448877805486,0.027785995902422582,
0.05825436408977556,0.01447655661371071,
0.05830423940149626,0.004460591063250613,
0.058354114713216956,0.01971653262970671,
0.05840399002493766,0.002870046098304206,
0.058453865336658355,0.02414785578846351,
0.05850374064837905,0.04070099414106158,
0.05855361596009975,0.020558391760556228,
0.05860349127182045,0.0015669250612277419,
0.058653366583541144,0.02797954449339697,
0.05870324189526185,0.026001118349274734,
0.05875311720698254,0.03702427729693797,
0.05880299251870324,0.03444630799788338,
0.05885286783042394,0.03002332714185391,
0.05890274314214464,0.01207618158870211,
0.05895261845386534,0.016942546891362913,
0.059002493765586035,0.02808542947102101,
0.05905236907730673,0.046011800680600526,
0.059102244389027433,0.022495553836349838,
0.05915211970074813,0.015567097171855646,
0.059201995012468825,0.0011835198540600007,
0.05925187032418953,0.026431232846601226,
0.05930174563591022,0.01620804875161547,
0.059351620947630926,0.02100763470663601,
0.05940149625935162,0.0026908736889856393,
0.05945137157107232,0.042800091238150345,
0.05950124688279302,0.009314120238605016,
0.059551122194513716,0.026006203213060967,
0.05960099750623441,0.01991077316145155,
0.059650872817955114,0.016624481408182974,
0.05970074812967581,0.026645022822460257,
0.059750623441396505,0.009188040105778159,
0.05980049875311721,0.01232965209940643,
0.059850374064837904,0.02246259057868305,
0.059900249376558606,0.009698906073996446,
0.0599501246882793,0.030080885810374353,
0.06,0.024631107454900703,
0.0600498753117207,0.023010377011168873,
0.060099750623441396,-0.00290223502497685,
0.06014962593516209,0.012960894200450424,
0.060199501246882794,0.007876404760297759,
0.06024937655860349,0.02130021812325919,
0.06029925187032419,-0.002127060469079959,
0.06034912718204489,0.004701634224309109,
0.060399002493765584,0.007699881785187486,
0.06044887780548629,0.01581831836865682,
0.06049875311720698,0.008963731812530712,
0.06054862842892768,0.006973211744208683,
0.06059850374064838,0.013546369185907696,
0.06064837905236908,0.014172128533153274,
0.06069825436408977,0.025840394331260213,
0.060748129675810475,0.02048946719618293,
0.06079800498753117,0.017335640280923492,
0.06084788029925187,0.015146455696050462,
0.06089775561097257,0.01797288116512931,
0.060947630922693265,0.011568684637157264,
0.06099750623441397,-0.009661685297137158,
0.06104738154613466,-0.009145032859270468,
0.06109725685785536,0.0441218962180241,
0.06114713216957606,-0.0026805539904106532,
0.06119700748129676,0.024924314566530922,
0.06124688279301746,0.0015979541766561866,
0.061296758104738155,0.0075297759674151366,
0.06134663341645885,0.005004890248789696,
0.061396508728179554,0.020834095121265925,
0.06144638403990025,-0.005830226098467919,
0.061496259351620945,-0.019138214171509058,
0.06154613466334165,0.0005960059675250038,
0.061596009975062344,0.0035316158773416907,
0.06164588528678304,0.01533009096378173,
0.06169576059850374,-0.001981966773171485,
0.06174563591022444,0.01336251339532979,
0.06179551122194514,0.02204797171577102,
0.061845386533665836,0.0022316648760212785,
0.06189526184538653,0.01678133641817734,
0.061945137157107234,0.016983774121073478,
0.06199501246882793,0.004681532682289137,
0.062044887780548626,0.006474380051862732,
0.06209476309226933,-0.016445396812869384,
0.062144638403990024,0.01255442259910489,
0.06219451371571072,0.011152823907191127,
0.06224438902743142,-0.002967331840382768,
0.06229426433915212,-0.02110993805610158,
0.06234413965087282,0.003999485874984717,
0.062394014962593516,-0.005596494098570676,
0.06244389027431421,-0.006213039739427497,
0.062493765586034915,0.011045511211414002,
0.06254364089775562,0.007487789660068937,
0.06259351620947631,0.02467947442713638,
0.06264339152119701,-0.018844954299422307,
0.0626932668329177,-0.00021859250938787702,
0.0627431421446384,0.01175594147900555,
0.0627930174563591,0.012645954196431386,
0.0628428927680798,-0.004379842420901967,
0.0628927680798005,-0.012740497986687933,
0.0629426433915212,-0.035716612274636766,
0.06299251870324189,0.00848737064469318,
0.06304239401496259,-0.01937663079664701,
0.0630922693266833,0.008960419112338323,
0.063142144638404,-0.018346889568490874,
0.06319201995012469,0.01739911813367605,
0.06324189526184539,0.005030800393306897,
0.06329177057356608,0.01882018245102516,
0.06334164588528678,0.04628049313479239,
0.06339152119700749,-0.0024217399033428346,
0.06344139650872818,-0.009825292730101319,
0.06349127182044888,-0.01596289542141998,
0.06354114713216957,-0.01992884013759771,
0.06359102244389027,-0.02165269602656462,
0.06364089775561098,-0.029526695286425375,
0.06369077306733167,-0.004636164733705272,
0.06374064837905237,-0.014642689818973504,
0.06379052369077307,0.017625819841585007,
0.06384039900249376,-0.010308532013044103,
0.06389027431421446,0.0010180814446414622,
0.06394014962593517,-0.021944622554769616,
0.06399002493765586,0.022468798964940848,
0.06403990024937656,0.005293328716495613,
0.06408977556109725,-0.00739577785552234,
0.06413965087281795,-0.0037229870866411076,
0.06418952618453866,0.00699187213829454,
0.06423940149625935,-0.011109762137830345,
0.06428927680798005,0.014867444524601307,
0.06433915211970075,-0.0004998419613416218,
0.06438902743142144,-0.0074234527297866474,
0.06443890274314215,0.022180100460674788,
0.06448877805486285,0.01812817187740369,
0.06453865336658354,-0.017345930327481714,
0.06458852867830424,0.01205075805370595,
0.06463840399002493,-0.019455564401807714,
0.06468827930174563,-0.01919933168516163,
0.06473815461346634,-0.0013890193495623947,
0.06478802992518704,-0.03212390163442974,
0.06483790523690773,-0.0066783639139702915,
0.06488778054862843,0.0014696317343877285,
0.06493765586034912,-0.02194248197322856,
0.06498753117206983,0.0008827723986133858,
0.06503740648379053,-0.02238003172849934,
0.06508728179551122,-0.013031102666909298,
0.06513715710723192,-0.000652306417133347,
0.06518703241895261,-0.02375000672162248,
0.06523690773067331,-0.01532564466087281,
0.06528678304239402,-0.022265098596403948,
0.06533665835411472,-0.015703612364664908,
0.06538653366583541,-0.03223973137074001,
0.06543640897755611,0.0025140579729801635,
0.0654862842892768,-0.017587250424248805,
0.06553615960099751,0.012959291758023983,
0.06558603491271821,-0.025171997945032446,
0.0656359102244389,-0.023184591375309743,
0.0656857855361596,0.005588166105991202,
0.0657356608478803,-0.008620431728906534,
0.06578553615960099,-0.015571310681879242,
0.0658354114713217,-0.032825670482222506,
0.0658852867830424,0.003901784512966253,
0.06593516209476309,-0.011358704274803103,
0.06598503740648379,0.013056999602073002,
0.06603491271820448,-0.001236870629021971,
0.06608478802992519,-0.01874838790328921,
0.06613466334164589,-0.036596928655559566,
0.06618453865336658,-0.014287687074192345,
0.06623441396508728,0.005106559066850385,
0.06628428927680798,-0.005537417393340309,
0.06633416458852869,-0.005684821617916587,
0.06638403990024938,-0.0050393349860232035,
0.06643391521197008,-0.012137264086984668,
0.06648379052369077,-0.02271375723302587,
0.06653366583541147,-0.027882988735116312,
0.06658354114713216,-0.03680242223146257,
0.06663341645885287,-0.04053244741964304,
0.06668329177057357,-0.020971005544524222,
0.06673316708229426,-0.017505275562155982,
0.06678304239401496,-0.00522934897720646,
0.06683291770573566,-0.024955663793418525,
0.06688279301745637,-0.017277530499533077,
0.06693266832917706,-0.02958677189414096,
0.06698254364089776,0.024960097556295184,
0.06703241895261845,-0.013841402109696671,
0.06708229426433915,-0.010545348012100313,
0.06713216957605984,0.009024295814595955,
0.06718204488778055,-0.014579845272242072,
0.06723192019950125,-0.004424358282708745,
0.06728179551122195,-0.04973163258708096,
0.06733167082294264,-0.036599060829219064,
0.06738154613466334,-0.012613989148144763,
0.06743142144638405,-0.008122801298320964,
0.06748129675810474,-0.023187795288230145,
0.06753117206982544,-0.014238942432598108,
0.06758104738154613,-0.0002453781485344895,
0.06763092269326683,-0.0033204470489059078,
0.06768079800498752,-0.013615137290674971,
0.06773067331670823,-0.007254642980196497,
0.06778054862842893,-0.03929787492300505,
0.06783042394014963,0.0030687503371593025,
0.06788029925187032,-0.026688942341572104,
0.06793017456359102,-0.01353713191676095,
0.06798004987531173,-0.026023751066895407,
0.06802992518703242,-0.000672761937695672,
0.06807980049875312,-0.024655253446336997,
0.06812967581047381,-0.011924874849881766,
0.06817955112219451,-0.005367091729810293,
0.0682294264339152,-0.006854943994839579,
0.06827930174563591,-0.006352921876816727,
0.06832917705735661,0.006626195741029482,
0.0683790523690773,-0.037721671902166715,
0.068428927680798,-0.014077627113809377,
0.0684788029925187,-0.01372356096433203,
0.06852867830423941,-0.03196673695016382,
0.0685785536159601,0.0025004944790461715,
0.0686284289276808,-0.0473880697408236,
0.0686783042394015,-0.016194309884381537,
0.06872817955112219,0.005198731173973854,
0.0687780548628429,-0.020208344520020016,
0.0688279301745636,-0.0391114263177923,
0.06887780548628429,-0.0008194242747712292,
0.06892768079800499,0.012568734713844405,
0.06897755610972568,-0.03545918071307845,
0.06902743142144638,-0.009088167687912298,
0.06907730673316709,-0.012378915499111468,
0.06912718204488778,-0.03018154185477556,
0.06917705735660848,-0.03723873434262719,
0.06922693266832917,-0.012670245041801545,
0.06927680798004987,-0.030973787256301885,
0.06932668329177058,0.0037534753562926924,
0.06937655860349128,-0.017314290304799623,
0.06942643391521197,-0.021653389691917605,
0.06947630922693267,-0.010379670175685552,
0.06952618453865336,-0.024647791345409224,
0.06957605985037406,-0.016343322713304093,
0.06962593516209477,-0.01235326609265655,
0.06967581047381546,0.006574251588763307,
0.06972568578553616,-0.019006952517563867,
0.06977556109725686,-0.012120469209246906,
0.06982543640897755,0.016401091045039194,
0.06987531172069826,-0.00953934248834834,
0.06992518703241896,0.004454291699358939,
0.06997506234413965,-0.010482961401474304,
0.07002493765586035,0.007116542086275786,
0.07007481296758104,-0.004109954428559513,
0.07012468827930174,-0.00930637047508574,
0.07017456359102245,0.014744796415901418,
0.07022443890274314,0.0010173815110666737,
0.07027431421446384,0.011782069487694091,
0.07032418952618454,-0.0017791448807049624,
0.07037406483790523,-0.012144512626787046,
0.07042394014962594,-0.010675719483242247,
0.07047381546134664,0.0203170237378682,
0.07052369077306733,-0.010725006894331209,
0.07057356608478803,0.035184103015476156,
0.07062344139650872,-0.014537672039672472,
0.07067331670822943,-0.02031034263598451,
0.07072319201995013,-0.007829000208824245,
0.07077306733167082,0.0010959591921675701,
0.07082294264339152,0.02105157589637252,
0.07087281795511222,0.009523702527705534,
0.07092269326683291,-0.009912268667100738,
0.07097256857855362,0.0011233370589359987,
0.07102244389027432,-0.012216974811886383,
0.07107231920199501,-0.013983267168116795,
0.07112219451371571,0.01678370171648922,
0.0711720698254364,0.01588857683504729,
0.07122194513715711,0.010235730212868421,
0.07127182044887781,-0.01558939120513398,
0.0713216957605985,-0.01473923971127186,
0.0713715710723192,0.01301149104207679,
0.0714214463840399,-0.011193813098382206,
0.07147132169576059,-0.027072800433964657,
0.0715211970074813,0.006837514753211331,
0.071571072319202,0.01748396031121037,
0.0716209476309227,-0.005366129101666301,
0.07167082294264339,0.008088566271275867,
0.07172069825436408,0.03127987714954114,
0.0717705735660848,0.012771451415365741,
0.07182044887780549,-0.011851566617682328,
0.07187032418952619,0.012578589654380145,
0.07192019950124688,-0.008668269895021887,
0.07197007481296758,0.014702325836836595,
0.07201995012468827,0.02115418326229323,
0.07206982543640898,0.004745502432169119,
0.07211970074812968,0.017354723184090145,
0.07216957605985037,0.02270972156046984,
0.07221945137157107,0.018591453458348763,
0.07226932668329177,0.0020700531253029543,
0.07231920199501247,-0.0010052263131425255,
0.07236907730673317,0.013281499345817143,
0.07241895261845387,-0.006654257893653204,
0.07246882793017456,0.01716568466502102,
0.07251870324189526,0.017345763831943445,
0.07256857855361595,0.016453874192919424,
0.07261845386533666,0.013645446243997779,
0.07266832917705736,-0.007317656919760312,
0.07271820448877805,-0.01102102070054839,
0.07276807980049875,-0.00285547624079255,
0.07281795511221945,0.017137493070112354,
0.07286783042394016,0.02334833867608442,
0.07291770573566085,0.0003506354203193316,
0.07296758104738155,-0.012538571747091633,
0.07301745635910224,0.007305066752978248,
0.07306733167082294,0.016183178079831505,
0.07311720698254365,0.03304222526907713,
0.07316708229426434,0.028753596710910677,
0.07321695760598504,0.005411384542791154,
0.07326683291770573,0.01753208137693959,
0.07331670822942643,0.006957254235573903,
0.07336658354114713,0.029526350516564978,
0.07341645885286784,0.005053077779109591,
0.07346633416458853,-0.019989065055099342,
0.07351620947630923,0.01284802463457533,
0.07356608478802992,0.028526710767612953,
0.07361596009975062,0.017264399078014678,
0.07366583541147133,0.009480318436749624,
0.07371571072319202,0.003521051387825486,
0.07376558603491272,-0.0014014558650107915,
0.07381546134663342,-0.0010979977853456148,
0.07386533665835411,0.005554797117914645,
0.0739152119700748,0.020819404149651118,
0.07396508728179552,0.01058637523205212,
0.07401496259351621,0.00491615101984174,
0.07406483790523691,-0.014496672150121789,
0.0741147132169576,-0.002373074035451384,
0.0741645885286783,0.03125519070240286,
0.07421446384039901,-0.007102957613102482,
0.0742643391521197,0.01744025034886741,
0.0743142144638404,0.013424854290981465,
0.0743640897755611,0.012153372541864889,
0.07441396508728179,0.021267999651480397,
0.07446384039900249,0.02173038288373815,
0.0745137157107232,0.032974295862550074,
0.07456359102244389,0.04280400533535015,
0.07461346633416459,0.018169072843066136,
0.07466334164588528,0.023006836496027513,
0.07471321695760598,0.02144887910020737,
0.07476309226932669,0.02091530416777751,
0.07481296758104738,0.0032452867643642837,
0.07486284289276808,0.04213848560933242,
0.07491271820448878,0.01526379143811453,
0.07496259351620947,0.024599723639557605,
0.07501246882793017,0.03383501768055555,
0.07506234413965088,0.019201150361464296,
0.07511221945137157,-0.009780978593091981,
0.07516209476309227,0.010024602743356939,
0.07521197007481296,0.00835536818296773,
0.07526184538653366,0.035011257338223536,
0.07531172069825437,0.011924711567347087,
0.07536159600997507,0.04937126215301227,
0.07541147132169576,0.0446039031672335,
0.07546134663341646,0.019366298839905656,
0.07551122194513715,0.04677476188535902,
0.07556109725685786,0.030095572835144243,
0.07561097256857856,0.02041683821561639,
0.07566084788029925,0.024087390498872287,
0.07571072319201995,0.028119684720380674,
0.07576059850374064,0.03897357053292658,
0.07581047381546134,0.029523218445757206,
0.07586034912718205,0.017496534610279356,
0.07591022443890275,0.021637472773685804,
0.07596009975062344,0.026245408517155854,
0.07600997506234414,0.024760665678797904,
0.07605985037406483,0.011477360688840059,
0.07610972568578554,0.031614931100880525,
0.07615960099750624,0.05015071539987874,
0.07620947630922693,0.02453370962051564,
0.07625935162094763,0.03758740577546311,
0.07630922693266833,0.0335030634685927,
0.07635910224438902,0.033151519580347524,
0.07640897755610973,0.022570241467793843,
0.07645885286783043,0.04665959619869648,
0.07650872817955112,-0.005303150857824301,
0.07655860349127182,0.062324949658700765,
0.07660847880299251,0.03467658726527474,
0.07665835411471322,0.023497091386521507,
0.07670822942643392,0.0026076299328328806,
0.07675810473815461,0.0033652993676801246,
0.07680798004987531,0.04140501663596986,
0.076857855361596,0.017558914803768883,
0.0769077306733167,0.03420091200409348,
0.07695760598503741,0.028550835201155096,
0.0770074812967581,0.016429726794245328,
0.0770573566084788,-0.014542254672580166,
0.0771072319201995,0.03778419611664074,
0.0771571072319202,0.01319054411514379,
0.0772069825436409,0.02784634155463151,
0.0772568578553616,0.014212401910850119,
0.0773067331670823,0.04545251802163103,
0.07735660847880299,0.030714523826906908,
0.07740648379052369,0.037654589976268804,
0.0774563591022444,0.03628865324288863,
0.07750623441396509,0.01206596791900318,
0.07755610972568579,0.02145519181146171,
0.07760598503740648,0.03573311057292312,
0.07765586034912718,0.040729950190194944,
0.07770573566084787,0.05036105612721752,
0.07775561097256858,0.020347105566812265,
0.07780548628428928,0.021585668713813393,
0.07785536159600998,0.031324229566400935,
0.07790523690773067,0.012728579213404962,
0.07795511221945137,0.016794009459914383,
0.07800498753117208,0.016936546644542614,
0.07805486284289277,0.0062912814312277195,
0.07810473815461347,0.02705262819276592,
0.07815461346633416,0.015186766725522069,
0.07820448877805486,0.034582241999452645,
0.07825436408977555,0.020584114066918603,
0.07830423940149626,0.05073416214541447,
0.07835411471321696,0.01627260291761494,
0.07840399002493766,0.015031864498025235,
0.07845386533665835,0.022642776683151095,
0.07850374064837905,0.038928617310988706,
0.07855361596009976,0.017035580470687803,
0.07860349127182045,0.00833505290823392,
0.07865336658354115,-0.0038322407328101778,
0.07870324189526184,0.007143150181561978,
0.07875311720698254,0.023734111818709085,
0.07880299251870324,0.020580928193067897,
0.07885286783042394,0.041572771671297915,
0.07890274314214464,0.029870550349104522,
0.07895261845386534,0.03327633667488246,
0.07900249376558603,0.027866665320896034,
0.07905236907730673,0.0347766073149601,
0.07910224438902744,0.03284972466784395,
0.07915211970074813,0.022103288929753846,
0.07920199501246883,0.02426804354464579,
0.07925187032418952,0.008438299815506834,
0.07930174563591022,0.025399489629378318,
0.07935162094763092,0.038228614924510435,
0.07940149625935163,0.057557614639280816,
0.07945137157107232,0.03758754908036767,
0.07950124688279302,0.017037150957975384,
0.07955112219451371,0.03642620808211118,
0.07960099750623441,0.01597464841562796,
0.07965087281795512,-0.01670750492372395,
0.07970074812967581,0.03568422848931342,
0.07975062344139651,-0.00390188390777901,
0.0798004987531172,0.02532411333575891,
0.0798503740648379,0.02026876833535821,
0.07990024937655861,0.014883894003729997,
0.0799501246882793,0.015872976307932992,
0.08,0.019276379456637613,
0.0800498753117207,0.02434774427047072,
0.0800997506234414,-0.003887431827749442,
0.08014962593516209,0.01017580439891709,
0.0801995012468828,0.029327127941505812,
0.0802493765586035,0.03366062801752122,
0.08029925187032419,0.015972485570287437,
0.08034912718204489,0.020406251768226857,
0.08039900249376558,0.009398241996159136,
0.08044887780548629,0.016582649535562467,
0.08049875311720699,0.01805751249228989,
0.08054862842892768,0.03331318218414877,
0.08059850374064838,0.001989510875369969,
0.08064837905236907,0.016640962711831547,
0.08069825436408977,0.0371653914173615,
0.08074812967581048,0.003815257948156037,
0.08079800498753117,0.025679223990438656,
0.08084788029925187,0.0031393787115474945,
0.08089775561097257,0.035195281794545286,
0.08094763092269326,0.03454715767277304,
0.08099750623441397,0.00030298304017978804,
0.08104738154613467,0.005224250098684206,
0.08109725685785536,0.018649203591049858,
0.08114713216957606,0.051096598723476105,
0.08119700748129675,0.023038267290503,
0.08124688279301745,-0.012849524725569205,
0.08129675810473816,-0.009165152175711126,
0.08134663341645886,0.012871749678216379,
0.08139650872817955,0.017269921434986086,
0.08144638403990025,0.013678376386047702,
0.08149625935162094,0.02063818018814489,
0.08154613466334165,-0.026667830779003213,
0.08159600997506235,-0.010999654136591926,
0.08164588528678304,0.0005662899121719241,
0.08169576059850374,0.03004657553024371,
0.08174563591022443,-0.005834384391513871,
0.08179551122194513,-0.01065492581937376,
0.08184538653366584,0.022578606955694542,
0.08189526184538654,0.022113297875517076,
0.08194513715710723,0.002761913994260505,
0.08199501246882793,0.011309981841225274,
0.08204488778054862,0.005036688662191717,
0.08209476309226933,-0.0012874637822566128,
0.08214463840399003,-0.0020990878871929236,
0.08219451371571072,0.005339722286599882,
0.08224438902743142,0.01629550602962741,
0.08229426433915212,-0.008164814786517292,
0.08234413965087282,-0.0005782673913694962,
0.08239401496259352,0.02014768165767186,
0.08244389027431422,0.009254703134958001,
0.08249376558603491,-0.007012409776571402,
0.08254364089775561,0.02570420341533183,
0.0825935162094763,0.011253988609366862,
0.08264339152119701,0.008317950300549345,
0.08269326683291771,-0.0022721203689324244,
0.0827431421446384,-0.006496122699838295,
0.0827930174563591,-0.0221092742202879,
0.0828428927680798,-0.014978142955499344,
0.0828927680798005,-0.00963194778057266,
0.0829426433915212,0.008518970905555416,
0.0829925187032419,-0.0041409508153447405,
0.08304239401496259,-0.007282294437294599,
0.08309226932668329,-0.004510629826293823,
0.08314214463840398,-0.021114609333328527,
0.0831920199501247,0.01604277840419397,
0.08324189526184539,-0.003804415112910668,
0.08329177057356608,-0.021175855713247736,
0.08334164588528678,0.0009721374136740374,
0.08339152119700748,-0.007592095030128787,
0.08344139650872819,0.012655201395535949,
0.08349127182044888,0.007232228758877831,
0.08354114713216958,-0.009546582724732643,
0.08359102244389027,0.01512634155456078,
0.08364089775561097,0.010875504186502995,
0.08369077306733166,-0.02730908364262503,
0.08374064837905237,-0.003985817709009612,
0.08379052369077307,-0.0029058321547785716,
0.08384039900249377,-0.005278134440501035,
0.08389027431421446,0.019482103714363885,
0.08394014962593516,-0.0064904323005867594,
0.08399002493765587,0.006628921691052075,
0.08403990024937656,-0.004047052844682004,
0.08408977556109726,0.010629926732307074,
0.08413965087281795,-0.006681656391533817,
0.08418952618453865,-0.03349364654726622,
0.08423940149625936,-0.049247728281847224,
0.08428927680798005,0.00038076507247743977,
0.08433915211970075,-0.013052245153072059,
0.08438902743142145,-0.0023509806784975523,
0.08443890274314214,-0.016093259341613087,
0.08448877805486284,0.004393807089899927,
0.08453865336658355,0.0031964627216062285,
0.08458852867830424,-0.015214255571725451,
0.08463840399002494,0.0017817385813812744,
0.08468827930174563,-0.04532182103122749,
0.08473815461346633,0.003096021319787215,
0.08478802992518704,-0.020356156353182796,
0.08483790523690773,-0.008755397320044007,
0.08488778054862843,-0.0199722505862893,
0.08493765586034913,-0.0009829354606280746,
0.08498753117206982,-0.02515215922324565,
0.08503740648379052,-0.0426767769965503,
0.08508728179551123,0.0031142061145666734,
0.08513715710723192,-0.020957099099399572,
0.08518703241895262,-0.005165385806894594,
0.08523690773067331,-0.0019539936005205562,
0.08528678304239401,0.005286443034687139,
0.08533665835411472,-0.009934297830415665,
0.08538653366583542,0.00314710753745886,
0.08543640897755611,0.02510576285989692,
0.0854862842892768,-0.0107196752098526,
0.0855361596009975,-0.0002494548475233116,
0.0855860349127182,-0.013344967140912422,
0.08563591022443891,-0.036067855543173294,
0.0856857855361596,-0.021051861733494846,
0.0857356608478803,-0.014428027420187783,
0.085785536159601,-0.005788101233697752,
0.08583541147132169,0.006058412389297621,
0.0858852867830424,0.00640009405705649,
0.0859351620947631,0.0038900994952680637,
0.08598503740648379,0.0027353616123376653,
0.08603491271820449,-0.007994409204140324,
0.08608478802992518,0.02302438632396773,
0.08613466334164588,-0.04939435327690714,
0.08618453865336659,-0.026228608069164935,
0.08623441396508728,0.006775148896546783,
0.08628428927680798,-0.005471441959580005,
0.08633416458852868,-0.024778645506436645,
0.08638403990024937,-0.019778483792547832,
0.08643391521197008,-0.008528664362516133,
0.08648379052369078,-0.02044148146418948,
0.08653366583541147,-0.006972652077302121,
0.08658354114713217,-0.020748615377509223,
0.08663341645885286,-0.003081680194889592,
0.08668329177057357,-0.02755536817229269,
0.08673316708229427,-0.024316287414967552,
0.08678304239401496,-0.01979091594579265,
0.08683291770573566,-0.034520773517243024,
0.08688279301745636,-0.013891221318159333,
0.08693266832917705,-0.015954662214465384,
0.08698254364089776,-0.013842441373087986,
0.08703241895261846,-0.023756691890173175,
0.08708229426433915,-0.008703295584562763,
0.08713216957605985,-0.009636998901572257,
0.08718204488778054,-0.016562544279725356,
0.08723192019950125,-0.0038771978577014834,
0.08728179551122195,-0.020117439228731326,
0.08733167082294264,-0.029121661596221003,
0.08738154613466334,-0.016385019370525618,
0.08743142144638404,-0.03458416685564922,
0.08748129675810473,0.009572272381903411,
0.08753117206982544,-0.0025980531170240115,
0.08758104738154614,-0.011571610323507581,
0.08763092269326683,-0.011785723898209277,
0.08768079800498753,-0.03740800090923647,
0.08773067331670822,0.0002519995890825494,
0.08778054862842893,0.0025993402665436868,
0.08783042394014963,0.01749046380540891,
0.08788029925187033,-0.012212659652735899,
0.08793017456359102,0.0007548124882409361,
0.08798004987531172,0.01193393652106141,
0.08802992518703241,0.015317102506112014,
0.08807980049875312,-0.024492657386584932,
0.08812967581047382,-0.0017727987881664253,
0.08817955112219451,-0.018096772979107122,
0.08822942643391521,-0.016740261139625887,
0.0882793017456359,-0.027969823244860807,
0.08832917705735661,0.003210408533218816,
0.08837905236907731,-0.03295428976210285,
0.088428927680798,-0.019094857691816763,
0.0884788029925187,-0.01894906847510251,
0.0885286783042394,-0.006055628598268363,
0.0885785536159601,-0.012465514896724872,
0.0886284289276808,-0.02089459927262142,
0.0886783042394015,-0.027091336999667058,
0.0887281795511222,-0.007472407648581883,
0.08877805486284289,0.0034771737825097637,
0.08882793017456359,-0.01244259738809739,
0.0888778054862843,-0.01194172404389446,
0.08892768079800499,-0.002894168754364837,
0.08897755610972569,0.0025806392960596447,
0.08902743142144638,-0.010932143011803805,
0.08907730673316708,-0.005041900834437651,
0.08912718204488779,-0.008081397399024796,
0.08917705735660848,0.003229667928622138,
0.08922693266832918,-0.016590370818915814,
0.08927680798004987,-0.011450808572744888,
0.08932668329177057,-0.02983313658404789,
0.08937655860349127,0.00349619720651779,
0.08942643391521198,-0.016635149491919944,
0.08947630922693267,0.00760956147109745,
0.08952618453865337,-0.031232994381044717,
0.08957605985037406,0.0037825844456573785,
0.08962593516209476,-0.032855409427871074,
0.08967581047381547,-0.012367157337408903,
0.08972568578553616,0.007506263717354494,
0.08977556109725686,-0.0005836395387920938,
0.08982543640897755,-0.007742343766884363,
0.08987531172069825,0.01094716270757162,
0.08992518703241895,-0.024367469842483558,
0.08997506234413966,-0.01387061301520223,
0.09002493765586035,-0.029683680973634944,
0.09007481296758105,-0.030376809281354375,
0.09012468827930174,-0.004491231809169153,
0.09017456359102244,0.012620108798363833,
0.09022443890274315,0.004488890055538524,
0.09027431421446384,-0.010233820186760358,
0.09032418952618454,-0.0169310709810451,
0.09037406483790524,-0.01395935406371292,
0.09042394014962593,0.005028807481584329,
0.09047381546134663,-0.012438814312997062,
0.09052369077306734,0.0026613628584890832,
0.09057356608478803,0.0017001316505428276,
0.09062344139650873,-0.0018730768428429035,
0.09067331670822942,-0.0075633446294852275,
0.09072319201995012,0.012395976475123353,
0.09077306733167083,0.007861468810276127,
0.09082294264339152,0.013053235905220548,
0.09087281795511222,-0.020160502120759136,
0.09092269326683292,-0.008079059892246334,
0.09097256857855361,-0.004123472731497439,
0.09102244389027432,0.005594550195687045,
0.09107231920199502,-0.023699446372482075,
0.09112219451371571,-0.0031027837921364636,
0.09117206982543641,0.009263748426448134,
0.0912219451371571,-0.00512367313195134,
0.0912718204488778,0.0038523962031670493,
0.09132169576059851,0.020343774041195972,
0.0913715710723192,0.002592892596483937,
0.0914214463840399,-0.015632410595939138,
0.0914713216957606,-0.0066255056984913085,
0.09152119700748129,0.02718581162959774,
0.091571072319202,0.03331927265470569,
0.0916209476309227,0.00343609703715085,
0.09167082294264339,0.005949077863223885,
0.09172069825436409,-0.005464255256523952,
0.09177057356608478,0.020280032903882472,
0.09182044887780548,0.011982039148490865,
0.09187032418952619,-0.010617170698638474,
0.09192019950124689,0.0010862496130100447,
0.09197007481296758,0.016919522991720646,
0.09201995012468828,0.009185527212831569,
0.09206982543640897,-0.01353788492696509,
0.09211970074812968,-0.007519819744690957,
0.09216957605985038,0.010040800775706557,
0.09221945137157107,0.010566580973171976,
0.09226932668329177,0.003168153877039335,
0.09231920199501246,0.0060073624608550855,
0.09236907730673316,0.003485800039147495,
0.09241895261845387,0.02089575960347728,
0.09246882793017457,-0.0015828794008611556,
0.09251870324189526,0.004303955583932396,
0.09256857855361596,0.021262537609727867,
0.09261845386533665,0.020197977812184534,
0.09266832917705736,0.020384777729948546,
0.09271820448877806,0.006614816048473908,
0.09276807980049875,0.01368204602609649,
0.09281795511221945,0.019032431228230562,
0.09286783042394015,-0.005946628666973812,
0.09291770573566084,0.017994488561951544,
0.09296758104738155,-0.006485770877489198,
0.09301745635910225,0.013859622077952768,
0.09306733167082294,-0.005399003845831741,
0.09311720698254364,-0.002664916226516007,
0.09316708229426433,0.04043283733950721,
0.09321695760598504,0.013659383384570551,
0.09326683291770574,0.030337253176850557,
0.09331670822942643,-0.004751331121653208,
0.09336658354114713,0.01053340780575418,
0.09341645885286783,0.008902737510152779,
0.09346633416458854,0.022141925112779015,
0.09351620947630923,0.037417525222493725,
0.09356608478802993,0.010303128569607075,
0.09361596009975062,-0.013443054385442563,
0.09366583541147132,-0.0005140290197219004,
0.09371571072319201,0.012820569002487662,
0.09376558603491272,0.03055791005839241,
0.09381546134663342,0.04649709699483449,
0.09386533665835411,0.005231710923818989,
0.09391521197007481,-0.0041486379727811475,
0.0939650872817955,0.013576508092727424,
0.09401496259351622,0.03073922270906012,
0.09406483790523691,-0.0044605599718098195,
0.09411471321695761,0.008460250146716702,
0.0941645885286783,0.03662610207343249,
0.094214463840399,-0.0010532629649802928,
0.0942643391521197,0.05597478667105625,
0.0943142144638404,-0.012146505016994057,
0.0943640897755611,0.006483586691910235,
0.0944139650872818,0.036321658186322714,
0.09446384039900249,0.027518338386311063,
0.09451371571072319,0.025864596762617237,
0.0945635910224439,0.013515526320561893,
0.09461346633416459,-0.010410847537923262,
0.09466334164588529,0.04672018925546645,
0.09471321695760598,0.02795421788050189,
0.09476309226932668,0.01650340785477772,
0.09481296758104737,0.03300636373122063,
0.09486284289276808,0.0137298809719418,
0.09491271820448878,0.013119870019346383,
0.09496259351620948,0.03672346167676881,
0.09501246882793017,0.026619215466542147,
0.09506234413965087,0.032625062277645916,
0.09511221945137158,0.022705588909073027,
0.09516209476309227,0.009535724602459137,
0.09521197007481297,0.01338292115802816,
0.09526184538653366,-0.013953064262876787,
0.09531172069825436,-0.0025031901347248066,
0.09536159600997507,0.023660061501596392,
0.09541147132169576,-0.005504005514414562,
0.09546134663341646,0.01550649688627141,
0.09551122194513716,0.05084648782556872,
0.09556109725685785,0.021043112751683364,
0.09561097256857855,0.039252063398200046,
0.09566084788029926,0.022522173410966163,
0.09571072319201995,0.024016125099712217,
0.09576059850374065,0.015257432503839135,
0.09581047381546134,0.014751843200201373,
0.09586034912718204,0.01741392667159669,
0.09591022443890275,0.02350029684945133,
0.09596009975062345,0.016361393405546414,
0.09600997506234414,0.03217047912812224,
0.09605985037406484,0.0015076590668099202,
0.09610972568578553,0.03960203018609165,
0.09615960099750623,0.05275839091356526,
0.09620947630922694,0.024255873366710767,
0.09625935162094763,0.030535774019463065,
0.09630922693266833,0.044944497230324586,
0.09635910224438902,0.04860942426421817,
0.09640897755610972,0.024481643093445304,
0.09645885286783043,0.0443744448654997,
0.09650872817955113,0.009988048079458803,
0.09655860349127182,0.030084148864955137,
0.09660847880299252,0.029433978666259485,
0.09665835411471321,0.020181821536156243,
0.09670822942643391,0.061951601245223795,
0.09675810473815462,0.06289009646756462,
0.09680798004987531,0.014392024292702917,
0.09685785536159601,0.008575575452873952,
0.0969077306733167,0.047861283059936685,
0.0969576059850374,0.04563120471874696,
0.09700748129675811,0.028187239239406994,
0.0970573566084788,-0.009617647872391628,
0.0971072319201995,0.026902574980671584,
0.0971571072319202,0.0248264290607231,
0.0972069825436409,0.024691061946313847,
0.09725685785536159,0.03206686118179939,
0.0973067331670823,0.04449790257396044,
0.097356608478803,0.03281332112666044,
0.09740648379052369,0.004705523583040692,
0.09745635910224439,0.02009600750758634,
0.09750623441396508,-0.012203298568826786,
0.09755610972568579,0.023419544201127476,
0.09760598503740649,0.04595918282354332,
0.09765586034912718,0.019307229021764474,
0.09770573566084788,0.032831128207043,
0.09775561097256857,0.025005760919247468,
0.09780548628428928,0.03140773411647894,
0.09785536159600998,0.051102880523045555,
0.09790523690773068,0.04244356568303326,
0.09795511221945137,0.03266606234763112,
0.09800498753117207,0.028196569253478,
0.09805486284289276,0.029915844769749025,
0.09810473815461347,0.023511887671518045,
0.09815461346633417,0.0309682503936613,
0.09820448877805486,0.030550382731642983,
0.09825436408977556,0.025068160588434567,
0.09830423940149625,0.03215017860162078,
0.09835411471321696,0.026207004335128566,
0.09840399002493766,0.022162006701054657,
0.09845386533665836,0.015019628261857565,
0.09850374064837905,0.03073755150291944,
0.09855361596009975,0.04182848048809094,
0.09860349127182044,0.045231761131029245,
0.09865336658354115,0.023879547382053116,
0.09870324189526185,0.047635222224013424,
0.09875311720698254,0.0039014357428592897,
0.09880299251870324,0.0477239873022865,
0.09885286783042393,0.02196931223211762,
0.09890274314214464,0.0014581624896554748,
0.09895261845386534,0.021972087241623174,
0.09900249376558604,0.04943058131159444,
0.09905236907730673,0.009704467830251218,
0.09910224438902743,0.009680315671084164,
0.09915211970074812,0.044755264832539554,
0.09920199501246883,0.03362651817941312,
0.09925187032418953,0.026380556786729615,
0.09930174563591022,0.018233246874587435,
0.09935162094763092,0.042625397980357776,
0.09940149625935162,0.04584297072975946,
0.09945137157107233,0.01730365445982297,
0.09950124688279302,0.03201137056638368,
0.09955112219451372,0.028120835272695557,
0.09960099750623441,0.01883190432529388,
0.09965087281795511,0.02616942834436991,
0.0997007481296758,0.01245489176076151,
0.09975062344139651,0.007794051410425678,
0.09980049875311721,0.04077053712582054,
0.0998503740648379,0.029261274377376103,
0.0999002493765586,0.013435008513786666,
0.0999501246882793,0.025156773608338553,
0.1,0.040755779737317546,
0.1000498753117207,0.000954503487650131,
0.1000997506234414,0.020125282872876103,
0.10014962593516209,0.02133616174029757,
0.10019950124688279,0.024387222866038432,
0.1002493765586035,-0.004776369762627016,
0.1002992518703242,0.018672293079128648,
0.10034912718204489,0.018075095967548808,
0.10039900249376559,0.0216849571007139,
0.10044887780548628,0.010916027828107171,
0.10049875311720698,0.024917587599835617,
0.10054862842892769,0.02295836264033227,
0.10059850374064838,-0.002077563642100006,
0.10064837905236908,0.02151243705660021,
0.10069825436408977,0.027226460520465998,
0.10074812967581047,0.017436558082411468,
0.10079800498753118,0.0036799568437711015,
0.10084788029925187,0.03502249347479358,
0.10089775561097257,0.00431658305765645,
0.10094763092269327,0.029634054399061784,
0.10099750623441396,0.003424172461296081,
0.10104738154613466,0.002906955216236391,
0.10109725685785537,0.01568952624621324,
0.10114713216957606,0.006019497155637976,
0.10119700748129676,0.011930468714357744,
0.10124688279301745,0.025547846355355074,
0.10129675810473815,0.027704950117732746,
0.10134663341645886,0.027994418241411176,
0.10139650872817955,0.009231168763699657,
0.10144638403990025,0.03509271752975674,
0.10149625935162095,0.01223871789051321,
0.10154613466334164,0.009245186209577351,
0.10159600997506234,-0.006480869161938921,
0.10164588528678305,0.01686927308999995,
0.10169576059850374,-0.006873682185784978,
0.10174563591022444,0.027460593587520052,
0.10179551122194513,0.02699182427119531,
0.10184538653366583,0.007390754819359555,
0.10189526184538654,-0.006457288591587151,
0.10194513715710724,0.003095748242019537,
0.10199501246882793,0.011693570535355776,
0.10204488778054863,-0.005043418671222545,
0.10209476309226932,-0.008097897650342238,
0.10214463840399003,-0.007392431777399585,
0.10219451371571073,0.00023992022326131852,
0.10224438902743142,0.02046651153677542,
0.10229426433915212,-0.010873577240676096,
0.10234413965087281,0.04473194636401639,
0.10239401496259351,-0.006525563433683481,
0.10244389027431422,-0.021247350585677165,
0.10249376558603492,0.027454184929401215,
0.10254364089775561,0.005705951182142435,
0.10259351620947631,0.023865600316865368,
0.102643391521197,0.0130259271478269,
0.10269326683291771,0.013348724254160626,
0.10274314214463841,0.01370749844914122,
0.1027930174563591,-0.020327265433065546,
0.1028428927680798,-0.02808159530579421,
0.1028927680798005,-0.014234135342165822,
0.10294264339152119,0.0018767788223873418,
0.1029925187032419,0.03744540566800991,
0.1030423940149626,0.007662808270184137,
0.10309226932668329,-0.025009647125337764,
0.10314214463840399,-0.0024582312434522752,
0.10319201995012468,0.0016238880346397743,
0.10324189526184539,0.014348319945850162,
0.10329177057356609,-0.008498345136297405,
0.10334164588528678,0.021108806350202867,
0.10339152119700748,-0.007924296118136461,
0.10344139650872818,-0.02617403826272827,
0.10349127182044887,-0.021806349733703795,
0.10354114713216958,0.008717584528207138,
0.10359102244389028,-0.029665999648460735,
0.10364089775561097,0.012125351760951723,
0.10369077306733167,-0.010163983319205979,
0.10374064837905236,0.02539546609212472,
0.10379052369077307,0.00764128103117683,
0.10384039900249377,-0.0006955368572099337,
0.10389027431421446,-0.02349877155420959,
0.10394014962593516,-0.017114750153878647,
0.10399002493765586,-0.019104638966619757,
0.10403990024937655,-0.00104239983945302,
0.10408977556109726,0.00472191663748095,
0.10413965087281796,-0.020071047835940603,
0.10418952618453865,-0.013912826254011707,
0.10423940149625935,-0.03584935270178932,
0.10428927680798004,0.0018096816397363633,
0.10433915211970075,-0.009946181120491126,
0.10438902743142145,0.020605296465870407,
0.10443890274314215,0.010054504363496596,
0.10448877805486284,-0.010988853792335641,
0.10453865336658354,-0.007210872165480517,
0.10458852867830425,-0.03004413882567751,
0.10463840399002494,-0.027083363981250434,
0.10468827930174564,-0.017885690744301734,
0.10473815461346633,-0.018906187906836434,
0.10478802992518703,-0.019523547245682803,
0.10483790523690772,-0.031003542811695563,
0.10488778054862843,-0.0030555240964966358,
0.10493765586034913,0.0030364772315782593,
0.10498753117206983,-0.011328780358651064,
0.10503740648379052,-0.012318477172116052,
0.10508728179551122,-0.008651887640461542,
0.10513715710723193,-0.024128515374495903,
0.10518703241895262,-0.017697102851825373,
0.10523690773067332,-0.02891246058066937,
0.10528678304239401,-0.002949194426430755,
0.10533665835411471,-0.013732819334307995,
0.1053865336658354,-0.024306236807456014,
0.10543640897755611,0.011804135734955708,
0.10548628428927681,-0.015268575128173867,
0.1055361596009975,-0.029466702101388124,
0.1055860349127182,0.0022631819289570566,
0.1056359102244389,-0.0014774377158807694,
0.10568578553615961,0.001740817135330773,
0.1057356608478803,0.014616342709494343,
0.105785536159601,-0.0322813724825947,
0.1058354114713217,-0.0362501395610367,
0.10588528678304239,-0.010772239870509185,
0.10593516209476309,-0.01626437208287879,
0.1059850374064838,-0.003831140649361989,
0.10603491271820449,-0.016262240764495065,
0.10608478802992519,-0.01753291571420506,
0.10613466334164588,-0.019221051017854606,
0.10618453865336658,-0.014748911438987024,
0.10623441396508729,-0.016663240722729077,
0.10628428927680798,0.018968274851600818,
0.10633416458852868,-0.021846179103728675,
0.10638403990024937,-0.04041539747505962,
0.10643391521197007,-0.023471503369583924,
0.10648379052369077,-0.008911590559337275,
0.10653366583541148,0.012345375119993146,
0.10658354114713217,-0.01444943241628974,
0.10663341645885287,0.01504635311461113,
0.10668329177057356,-0.00820208537531766,
0.10673316708229426,-0.0040384182453916066,
0.10678304239401497,0.0164745452671049,
0.10683291770573566,0.014254280856223796,
0.10688279301745636,-0.008389091893841127,
0.10693266832917706,-0.010768298318684425,
0.10698254364089775,0.009663683974232949,
0.10703241895261846,-0.005455824633186068,
0.10708229426433916,-0.00919424530616978,
0.10713216957605985,0.021213740587859582,
0.10718204488778055,-0.0007326676604842083,
0.10723192019950124,-0.028386375550436244,
0.10728179551122194,-0.016254989168019946,
0.10733167082294265,-0.035051168283930886,
0.10738154613466334,-0.010986274300016122,
0.10743142144638404,-0.015017450537739039,
0.10748129675810474,0.0038549011194166805,
0.10753117206982543,0.017512572974543148,
0.10758104738154614,0.0007780520981317662,
0.10763092269326684,-0.009838967164744217,
0.10768079800498753,0.0058139562623633016,
0.10773067331670823,-0.025658156550520686,
0.10778054862842892,-0.018394995849045713,
0.10783042394014962,-0.008878236850065,
0.10788029925187033,-0.01275716591512091,
0.10793017456359102,-0.02089670649158428,
0.10798004987531172,-0.012275055287298485,
0.10802992518703242,-0.018150592165046667,
0.10807980049875311,0.0037990854609296926,
0.10812967581047382,-0.012308764507704843,
0.10817955112219452,-0.010930336936886626,
0.10822942643391521,-0.019269861378304,
0.10827930174563591,0.00903868928570824,
0.1083291770573566,-0.023979069625081263,
0.1083790523690773,0.005673360361582398,
0.10842892768079801,-0.006021428747650352,
0.1084788029925187,-0.0017073788377047726,
0.1085286783042394,0.007199276876100202,
0.1085785536159601,-0.02542834766642426,
0.10862842892768079,-0.02889491325876752,
0.1086783042394015,0.011638287181093655,
0.1087281795511222,-0.01637838418469475,
0.1087780548628429,-0.00892707027294724,
0.10882793017456359,-0.025757191973816776,
0.10887780548628428,-0.0015407286842239985,
0.108927680798005,-0.019258420182198248,
0.10897755610972569,0.0006425049868860871,
0.10902743142144639,0.023067072428456827,
0.10907730673316708,-0.026867213447420966,
0.10912718204488778,0.0027938385766341604,
0.10917705735660847,0.011477597250781492,
0.10922693266832918,-0.014274675246816599,
0.10927680798004988,-0.050910907301138356,
0.10932668329177057,-0.006238405689742172,
0.10937655860349127,-0.010643038793637252,
0.10942643391521197,0.01391130186918186,
0.10947630922693267,-0.008911963596453886,
0.10952618453865337,0.00043215972202214226,
0.10957605985037407,-0.0225342744416403,
0.10962593516209476,-0.008002158778470667,
0.10967581047381546,-0.0034236087954888287,
0.10972568578553615,-0.02336409049642761,
0.10977556109725686,0.020852569664043474,
0.10982543640897756,-0.0317542534947407,
0.10987531172069825,-0.005397129456895673,
0.10992518703241895,-0.016706730301062275,
0.10997506234413965,-0.024076564695521836,
0.11002493765586036,-0.02575124532999371,
0.11007481296758105,-0.006920143127233297,
0.11012468827930175,0.0102802785518929,
0.11017456359102244,-0.0026275428892760157,
0.11022443890274314,-0.0022335536782471578,
0.11027431421446383,-0.003399224620826123,
0.11032418952618454,-0.0449959474381339,
0.11037406483790524,0.004482675230667051,
0.11042394014962593,-0.008593811808265718,
0.11047381546134663,0.0171635682392369,
0.11052369077306733,-0.01907200400336463,
0.11057356608478804,-0.018513768495196016,
0.11062344139650873,-0.010893086352451897,
0.11067331670822943,-0.0017673935799117123,
0.11072319201995012,0.049831436054512804,
0.11077306733167082,0.00861430810017478,
0.11082294264339151,-0.0009654259706934521,
0.11087281795511222,-0.002364412101135058,
0.11092269326683292,-0.012672339671704577,
0.11097256857855362,0.0037338267006158774,
0.11102244389027431,-0.003842913009026383,
0.111072319201995,0.017158441505258196,
0.11112219451371572,0.02595451867136987,
0.11117206982543641,-0.001884983325196956,
0.11122194513715711,0.0023270067495605533,
0.1112718204488778,0.0011770156744450497,
0.1113216957605985,-0.00016547841628629942,
0.11137157107231921,0.0022375621962858546,
0.1114214463840399,0.03313956393402754,
0.1114713216957606,0.00101801581756968,
0.1115211970074813,-0.0006585810220716163,
0.11157107231920199,0.03647836767529378,
0.11162094763092269,0.00973274407362028,
0.1116708229426434,-0.01781096174797539,
0.11172069825436409,0.02241203182813175,
0.11177057356608479,0.020738794738377732,
0.11182044887780548,-0.00409609354111986,
0.11187032418952618,0.020783400923185084,
0.11192019950124689,0.00022670654495415311,
0.11197007481296758,0.006730378956514885,
0.11201995012468828,0.018906917945421937,
0.11206982543640898,-0.0012319440795156462,
0.11211970074812967,0.028612115888954705,
0.11216957605985037,0.032573692064383465,
0.11221945137157108,0.0014572665241064636,
0.11226932668329177,0.015373364837872704,
0.11231920199501247,0.01757676429479739,
0.11236907730673316,0.01027516108517202,
0.11241895261845386,-0.01216448109924828,
0.11246882793017457,-0.005024581079081707,
0.11251870324189527,-0.0013493566747755942,
0.11256857855361596,0.020631099957255,
0.11261845386533666,0.026935377653117737,
0.11266832917705735,-0.0026493016680081485,
0.11271820448877805,0.052094111912881755,
0.11276807980049876,0.035528053703937246,
0.11281795511221945,0.02076916276583825,
0.11286783042394015,0.02036827148899799,
0.11291770573566084,0.05022427983500803,
0.11296758104738154,0.018771455917749303,
0.11301745635910225,0.008141862624169705,
0.11306733167082295,0.027293641308356827,
0.11311720698254364,-0.0021647897327818806,
0.11316708229426434,0.011714799228672456,
0.11321695760598503,-0.007186821778075302,
0.11326683291770574,0.018183277432681097,
0.11331670822942644,0.01769926126271693,
0.11336658354114713,-0.009826518272770705,
0.11341645885286783,0.007193694193826003,
0.11346633416458853,0.058766515869220576,
0.11351620947630922,0.03331641281387149,
0.11356608478802993,0.013059840247386139,
0.11361596009975063,0.017445113621372143,
0.11366583541147132,0.033068914287554145,
0.11371571072319202,0.021111617596854725,
0.11376558603491271,3.105111769479557e-05,
0.11381546134663342,0.025661961063633228,
0.11386533665835412,0.015895082259216074,
0.11391521197007481,0.021851331081319,
0.11396508728179551,0.017761564849976635,
0.1140149625935162,0.022661101545461325,
0.1140648379052369,0.026551826228235785,
0.11411471321695761,0.01735284519674015,
0.1141645885286783,0.026016876024985737,
0.114214463840399,0.034494039925202884,
0.1142643391521197,0.041729364538243816,
0.1143142144638404,0.028830040988061835,
0.1143640897755611,0.03700092531680359,
0.1144139650872818,0.051004086165644266,
0.1144638403990025,0.03294099882024966,
0.11451371571072319,0.023404951211677703,
0.11456359102244389,0.03103232715123065,
0.11461346633416458,0.020343960628210436,
0.11466334164588529,0.020675089668232817,
0.11471321695760599,-0.006350167366741807,
0.11476309226932668,0.03232468716101644,
0.11481296758104738,0.024522256901707874,
0.11486284289276807,0.010663522476256576,
0.11491271820448878,0.014322128458268923,
0.11496259351620948,0.026770908063085047,
0.11501246882793018,0.013411970377187261,
0.11506234413965087,0.00781760427928974,
0.11511221945137157,0.026111221438023118,
0.11516209476309226,0.010128250612634794,
0.11521197007481297,0.021797236564104528,
0.11526184538653367,0.011033343109318052,
0.11531172069825436,0.024756043032724717,
0.11536159600997506,0.03173762019817959,
0.11541147132169575,0.016162008957623528,
0.11546134663341646,0.04764461192725086,
0.11551122194513716,0.006987069883724592,
0.11556109725685786,0.0088419859079699,
0.11561097256857855,0.03040939044120527,
0.11566084788029925,0.009492061809931465,
0.11571072319201996,0.04495074299252641,
0.11576059850374065,0.01920815993711064,
0.11581047381546135,0.0388503037447962,
0.11586034912718204,0.04516027604682821,
0.11591022443890274,0.033058844153931545,
0.11596009975062344,0.034613155995074016,
0.11600997506234415,0.03812957354820415,
0.11605985037406484,0.0003666579058488363,
0.11610972568578554,0.030208694650545192,
0.11615960099750623,0.039427287659529554,
0.11620947630922693,0.028039310198892244,
0.11625935162094764,0.011173987299387012,
0.11630922693266833,0.026200694039063277,
0.11635910224438903,0.018876100988890507,
0.11640897755610972,0.010152002940504196,
0.11645885286783042,0.049039181372742775,
0.11650872817955112,0.03949256231979506,
0.11655860349127183,0.04172968033612697,
0.11660847880299252,0.04473123792886448,
0.11665835411471322,0.04349530463696967,
0.11670822942643391,0.008950528156892658,
0.11675810473815461,0.025641515163735085,
0.11680798004987532,0.06108418906612036,
0.11685785536159601,0.016242618970519724,
0.11690773067331671,0.030635245570576595,
0.1169576059850374,0.03616658599475983,
0.1170074812967581,0.006192878200765521,
0.1170573566084788,0.016414630168250163,
0.1171072319201995,0.052866908085049735,
0.1171571072319202,0.024342517928184808,
0.1172069825436409,0.007071077327706243,
0.1172568578553616,0.03053359559213629,
0.11730673316708229,0.01352432869720715,
0.117356608478803,0.03264758833069378,
0.1174064837905237,0.04409780797314996,
0.11745635910224439,-0.0005438786099526902,
0.11750623441396509,0.032876642745010516,
0.11755610972568578,0.03291242007055111,
0.11760598503740648,0.018054068192589545,
0.11765586034912719,0.018096587975616835,
0.11770573566084788,0.03722877781027876,
0.11775561097256858,0.03688256165552194,
0.11780548628428927,0.046554084081040496,
0.11785536159600997,0.009768755397922092,
0.11790523690773068,0.044087636537007445,
0.11795511221945137,0.014180185405779273,
0.11800498753117207,0.025005613958802003,
0.11805486284289277,0.03836110139907609,
0.11810473815461346,0.01772568494754848,
0.11815461346633417,0.012365061888395859,
0.11820448877805487,0.019329056435949708,
0.11825436408977556,0.015420371743646051,
0.11830423940149626,0.04875476713224505,
0.11835411471321695,0.030265259491443347,
0.11840399002493765,0.021505399784174487,
0.11845386533665836,0.013849363191116602,
0.11850374064837906,0.02513681826026069,
0.11855361596009975,0.03682326304104587,
0.11860349127182045,0.020652769071071796,
0.11865336658354114,0.032084227132095994,
0.11870324189526185,0.01102144244989934,
0.11875311720698255,0.023345139800900878,
0.11880299251870324,0.012101704509563637,
0.11885286783042394,0.00680519866888938,
0.11890274314214463,0.021230816416517032,
0.11895261845386533,0.03178732543194605,
0.11900249376558604,0.01299218545233263,
0.11905236907730674,0.00948665332760662,
0.11910224438902743,0.01213432482776695,
0.11915211970074813,0.028840610441101623,
0.11920199501246882,0.038182732642398395,
0.11925187032418953,0.0025268987258120247,
0.11930174563591023,-0.0036196028369246333,
0.11935162094763092,0.007892490094932796,
0.11940149625935162,-0.010591600551609383,
0.11945137157107232,0.03245031582263826,
0.11950124688279301,0.0362400161073952,
0.11955112219451372,0.048826204143980104,
0.11960099750623442,0.006924481476974782,
0.11965087281795511,-0.0026735852234143938,
0.11970074812967581,0.024393663284823366,
0.1197506234413965,0.043655209059001485,
0.11980049875311721,0.012528948961924823,
0.11985037406483791,0.004885107769960286,
0.1199002493765586,0.05202872499009855,
0.1199501246882793,-0.0076755756910352295,
0.12,0.020834234937988614,
0.1200498753117207,-0.0023739285003018806,
0.1200997506234414,0.007454358263315558,
0.1201496259351621,0.02402459193582271,
0.12019950124688279,-0.008611089716007825,
0.12024937655860349,0.010787157956385976,
0.12029925187032418,0.013640748341190443,
0.1203491271820449,0.042637663949004055,
0.12039900249376559,0.02308092628480417,
0.12044887780548628,0.019857356635403715,
0.12049875311720698,0.00613119924001004,
0.12054862842892768,0.021036604614890788,
0.12059850374064839,0.025992204418307692,
0.12064837905236908,0.024255406455324507,
0.12069825436408978,-0.006716257798111778,
0.12074812967581047,0.01379438251662493,
0.12079800498753117,0.027138686951893316,
0.12084788029925186,0.015336613859021532,
0.12089775561097257,0.023153927539175344,
0.12094763092269327,0.03532888724662367,
0.12099750623441397,0.042321462594311396,
0.12104738154613466,0.024760623597360767,
0.12109725685785536,0.0033018367521860624,
0.12114713216957607,0.02170453105773407,
0.12119700748129676,0.018803418343105026,
0.12124688279301746,0.01147497813700455,
0.12129675810473815,0.013196058312840838,
0.12134663341645885,0.029516000929896268,
0.12139650872817954,0.008310944379835185,
0.12144638403990025,-0.004383819369614319,
0.12149625935162095,-0.007121922014712432,
0.12154613466334165,-0.008376260365468003,
0.12159600997506234,0.02561288150418331,
0.12164588528678304,0.008879467447071299,
0.12169576059850375,0.04245365146411344,
0.12174563591022444,0.018144287099841037,
0.12179551122194514,3.650064052542791e-05,
0.12184538653366583,0.02408056159565737,
0.12189526184538653,-0.007797849586434466,
0.12194513715710723,0.01725815179141238,
0.12199501246882793,0.0019029583215175528,
0.12204488778054863,0.0025089945287129264,
0.12209476309226933,0.016925999108337857,
0.12214463840399002,0.025483363099337002,
0.12219451371571072,-0.0009031508970972334,
0.12224438902743143,-0.020637210025669435,
0.12229426433915212,0.011996485557292394,
0.12234413965087282,-0.015051931611280144,
0.12239401496259351,0.009792189863457696,
0.12244389027431421,-0.031735045532790204,
0.12249376558603492,-0.010803175769749124,
0.12254364089775562,-0.0012872805320849117,
0.12259351620947631,0.002740095054832886,
0.122643391521197,0.01357777218028368,
0.1226932668329177,0.01364411579214955,
0.1227431421446384,-0.003586991164613973,
0.12279301745635911,-0.006497937964397524,
0.1228428927680798,0.002023996560258062,
0.1228927680798005,0.031001905957892276,
0.1229426433915212,-0.01515670845262488,
0.12299251870324189,-0.016031204209788603,
0.1230423940149626,-0.026087970912080042,
0.1230922693266833,-0.000935019936353327,
0.12314214463840399,0.0005769182708113265,
0.12319201995012469,-0.010361624694513866,
0.12324189526184538,-0.021607161742593535,
0.12329177057356608,0.0028620642645598837,
0.12334164588528679,-0.0034164099871642154,
0.12339152119700748,0.010702215785784553,
0.12344139650872818,-0.011676810566795223,
0.12349127182044888,0.006766276373321031,
0.12354114713216957,-0.008293996804265442,
0.12359102244389028,0.019982845650456233,
0.12364089775561098,-0.017744415525498183,
0.12369077306733167,-0.00602162301164464,
0.12374064837905237,-0.011824776935609602,
0.12379052369077306,-0.0119824965481916,
0.12384039900249376,-0.004969961857074271,
0.12389027431421447,-0.021189934260798876,
0.12394014962593516,-0.02747092760027387,
0.12399002493765586,-0.01829198337082423,
0.12403990024937656,-0.0175717082504179,
0.12408977556109725,0.007579944710215126,
0.12413965087281796,-0.018241112206915107,
0.12418952618453866,-0.014904549371726255,
0.12423940149625935,-0.017669787078960913,
0.12428927680798005,-0.016679183011167484,
0.12433915211970074,0.01496855959373803,
0.12438902743142144,-0.01698653501670212,
0.12443890274314215,-0.0037812520934779274,
0.12448877805486284,0.021204020984650386,
0.12453865336658354,0.0023041246884894255,
0.12458852867830424,-0.019816772627128103,
0.12463840399002493,0.018113904364194675,
0.12468827930174564,-0.01106274644535806,
0.12473815461346634,-0.0047811955826419705,
0.12478802992518703,-0.03142384884167138,
0.12483790523690773,0.009386551916506409,
0.12488778054862842,0.01244697102421289,
0.12493765586034913,0.0013313277735334458,
0.12498753117206983,0.006500181063030729,
0.12503740648379053,0.004915528594270484,
0.12508728179551123,-0.0005690317276758165,
0.12513715710723192,-0.014343517140178712,
0.12518703241895263,-0.005841240194084008,
0.1252369077306733,0.02119240416803966,
0.12528678304239402,-0.017444820238220818,
0.1253366583541147,-0.015826911577464183,
0.1253865336658354,0.0024820275498807897,
0.12543640897755612,-0.010194069559998367,
0.1254862842892768,-0.009379615820139221,
0.1255361596009975,0.0025241617618972107,
0.1255860349127182,0.0013164038766491255,
0.1256359102244389,-0.015624712825534823,
0.1256857855361596,0.013747387743331299,
0.1257356608478803,-0.011314260226473506,
0.125785536159601,0.01031263171549029,
0.12583541147132168,-0.010799187951057995,
0.1258852867830424,0.0031736812621284798,
0.1259351620947631,-0.00746856879615481,
0.12598503740648379,-0.016050364242108747,
0.1260349127182045,-0.00202392642875192,
0.12608478802992518,0.002560614069353484,
0.1261346633416459,-0.002219247298488788,
0.1261845386533666,-0.015319533147582918,
0.12623441396508728,0.009283608678955373,
0.126284289276808,0.00522476741646233,
0.12633416458852867,-0.0025924383186732144,
0.12638403990024938,0.0005476545109528927,
0.1264339152119701,-0.03815652763066529,
0.12648379052369077,-0.013645366353061673,
0.12653366583541148,-0.039380692522543226,
0.12658354114713216,-0.021736550525449545,
0.12663341645885287,-0.02460105188402359,
0.12668329177057355,0.010058581506422104,
0.12673316708229426,-0.025661869241517414,
0.12678304239401497,-0.011398661639090658,
0.12683291770573565,-0.02680018294907846,
0.12688279301745636,0.01379395893704463,
0.12693266832917705,-0.03158539153197841,
0.12698254364089775,-0.009369118520227553,
0.12703241895261846,-0.003673866963311792,
0.12708229426433915,-0.00751117130586986,
0.12713216957605986,0.001482493579577783,
0.12718204488778054,-0.011194214420054716,
0.12723192019950125,0.0032822204265620623,
0.12728179551122196,-0.006919855017951672,
0.12733167082294264,-0.010856773255241437,
0.12738154613466335,0.006955986012723698,
0.12743142144638403,-0.02020493240418887,
0.12748129675810474,-0.009628657279642471,
0.12753117206982545,-0.01220084436074806,
0.12758104738154613,-0.030255609248772172,
0.12763092269326684,-0.027264639072774176,
0.12768079800498752,-0.003354057176514563,
0.12773067331670823,-0.022043725945346676,
0.1277805486284289,-0.010756032939195359,
0.12783042394014962,0.006948124842640829,
0.12788029925187033,0.00695109489486611,
0.12793017456359101,-0.017509154808433777,
0.12798004987531172,0.013491512175354808,
0.1280299251870324,-0.020666160728065965,
0.12807980049875312,-0.0149514973463027,
0.12812967581047383,-0.004845606563849379,
0.1281795511221945,-0.020637641159537173,
0.12822942643391522,-0.021768209340925312,
0.1282793017456359,0.011408112338096,
0.1283291770573566,0.0008510128287737145,
0.12837905236907732,-0.005851948561387887,
0.128428927680798,0.0026365649499746346,
0.1284788029925187,0.007412160407653818,
0.1285286783042394,-0.012487165877133484,
0.1285785536159601,-0.02050105027883939,
0.1286284289276808,-0.01830197452711565,
0.1286783042394015,-0.009631021123110713,
0.1287281795511222,-0.003925588896452967,
0.12877805486284288,0.0010394804374638088,
0.1288279301745636,0.003686562254230247,
0.1288778054862843,0.0033005403439856,
0.12892768079800498,-0.0002988260067737286,
0.1289775561097257,-0.021947766311245787,
0.12902743142144638,0.01090573390655074,
0.12907730673316709,-0.024069582117475702,
0.12912718204488777,-0.011246307305364255,
0.12917705735660848,-0.0016833156528372698,
0.1292269326683292,-0.012479484280319284,
0.12927680798004987,-0.0032017025473742725,
0.12932668329177058,0.002618852869901536,
0.12937655860349126,0.024261215423724333,
0.12942643391521197,-0.03320692690225913,
0.12947630922693268,0.018884848400929077,
0.12952618453865336,0.010707167467639911,
0.12957605985037407,0.012163556134373936,
0.12962593516209475,-0.006995232609096396,
0.12967581047381546,-0.004401509062908193,
0.12972568578553617,0.007356114532647361,
0.12977556109725685,0.02499193801560616,
0.12982543640897756,0.006588980529850923,
0.12987531172069824,-0.019808438931387447,
0.12992518703241895,-0.010187550609073389,
0.12997506234413966,-0.0010451005007239144,
0.13002493765586035,0.02297182356249451,
0.13007481296758105,0.012668281517390351,
0.13012468827930174,-0.007055867928132652,
0.13017456359102245,0.014934030097679915,
0.13022443890274316,-0.0011650081731082547,
0.13027431421446384,0.007424484134298857,
0.13032418952618455,-0.006790215802600706,
0.13037406483790523,-0.027895008953718468,
0.13042394014962594,0.008746757452662754,
0.13047381546134662,-0.041466681007525825,
0.13052369077306733,-0.005736290971220905,
0.13057356608478804,-0.011990479476051839,
0.13062344139650872,-0.005373927519555498,
0.13067331670822943,-0.007685733382167135,
0.1307231920199501,0.01118150471892943,
0.13077306733167082,-0.003200103588274955,
0.13082294264339153,-0.013198650606379661,
0.13087281795511221,-0.024361733968404062,
0.13092269326683292,0.020595007860598896,
0.1309725685785536,0.001833099144245248,
0.13102244389027431,0.00944611766007335,
0.13107231920199502,0.02422862015835304,
0.1311221945137157,0.024779961900347224,
0.13117206982543642,-0.019694509945962745,
0.1312219451371571,0.0048261062862517455,
0.1312718204488778,0.003174868226753976,
0.13132169576059852,0.00436397263421414,
0.1313715710723192,-0.003041566832177593,
0.1314214463840399,0.006749066301375037,
0.1314713216957606,-0.008224969686708012,
0.1315211970074813,-0.006676827578602419,
0.13157107231920198,-0.00016949021949121384,
0.1316209476309227,0.007877679147526705,
0.1316708229426434,0.03455925543650422,
0.13172069825436408,0.013925768587077968,
0.1317705735660848,0.011744961489609816,
0.13182044887780547,0.03469955195606607,
0.13187032418952618,0.03212338347080276,
0.1319201995012469,0.01097516418618654,
0.13197007481296757,0.017718409289347828,
0.13201995012468828,-0.0190265837927638,
0.13206982543640897,0.010876934870800718,
0.13211970074812968,0.0365805959148305,
0.13216957605985039,0.02326434384110649,
0.13221945137157107,0.013097323523202021,
0.13226932668329178,0.027295174719489883,
0.13231920199501246,0.007613585693383674,
0.13236907730673317,-0.005896220845366968,
0.13241895261845388,0.02170792347983659,
0.13246882793017456,0.0031849088907807983,
0.13251870324189527,0.054841985845201696,
0.13256857855361595,0.019626493087900466,
0.13261845386533666,0.025471682928794537,
0.13266832917705737,0.020539603088784105,
0.13271820448877805,-0.009461547686088607,
0.13276807980049876,0.025402220995044925,
0.13281795511221944,-0.00277564746912287,
0.13286783042394015,0.02885995698949621,
0.13291770573566083,-0.008211288343913657,
0.13296758104738154,-0.017283673849340105,
0.13301745635910225,0.016872684822953968,
0.13306733167082294,-0.008114531999199856,
0.13311720698254365,0.021436470274583005,
0.13316708229426433,0.0035978237874921687,
0.13321695760598504,0.04332860092144285,
0.13326683291770575,0.011708634904266768,
0.13331670822942643,0.02632850741697309,
0.13336658354114714,0.029284859608032114,
0.13341645885286782,0.007248396412046783,
0.13346633416458853,-0.000780882707331898,
0.13351620947630924,0.021059029405866563,
0.13356608478802992,0.029423730867800237,
0.13361596009975063,0.02292563026898672,
0.1336658354114713,0.043579654743699445,
0.13371571072319202,0.028783164540616864,
0.13376558603491273,0.016591010731608884,
0.1338154613466334,0.037814135736933985,
0.13386533665835412,0.0074552706753655985,
0.1339152119700748,0.028816174285597827,
0.13396508728179551,0.021463987169911738,
0.1340149625935162,0.018430984861846727,
0.1340648379052369,0.019198587324447375,
0.13411471321695762,0.01136982133683895,
0.1341645885286783,0.005884877570725075,
0.134214463840399,0.028911463339392054,
0.1342643391521197,0.027366644425908925,
0.1343142144638404,0.024940457711540295,
0.1343640897755611,0.035889519332651484,
0.1344139650872818,0.039083498779125786,
0.1344638403990025,0.02117480891164537,
0.13451371571072318,0.04130058087948374,
0.1345635910224439,0.013978427984620238,
0.1346134663341646,-0.0025890783425783596,
0.13466334164588528,0.009772483319977494,
0.134713216957606,0.03948992867261472,
0.13476309226932667,0.031931131436248934,
0.13481296758104738,0.043085368837740584,
0.1348628428927681,0.017146640386149263,
0.13491271820448877,0.03470679223365643,
0.13496259351620948,0.027426121585692822,
0.13501246882793017,0.028186404224390213,
0.13506234413965088,0.044914698998196154,
0.13511221945137158,0.018305946388119443,
0.13516209476309227,0.027456671121581122,
0.13521197007481298,0.035186387389711436,
0.13526184538653366,0.024701011963742903,
0.13531172069825437,0.005090660771554949,
0.13536159600997505,0.03363482822860207,
0.13541147132169576,0.01854109763411766,
0.13546134663341647,0.03130540713383023,
0.13551122194513715,0.043822006366445905,
0.13556109725685786,0.03606738062273308,
0.13561097256857854,0.06442808348398006,
0.13566084788029925,0.039816045190362505,
0.13571072319201996,0.04515418053500546,
0.13576059850374064,0.02511732263524063,
0.13581047381546135,0.00022429737339900793,
0.13586034912718203,0.05589278752746009,
0.13591022443890274,0.03871926448938559,
0.13596009975062345,0.025183412229494294,
0.13600997506234414,0.03862861214385434,
0.13605985037406484,0.020518749547283624,
0.13610972568578553,-0.0011458978316559107,
0.13615960099750624,0.029247727007592154,
0.13620947630922695,0.02214284739883836,
0.13625935162094763,0.019203444027754583,
0.13630922693266834,0.033884627071452705,
0.13635910224438902,0.006350317969622734,
0.13640897755610973,0.006164717521020682,
0.1364588528678304,0.03161595177104244,
0.13650872817955112,0.043644176006704116,
0.13655860349127183,0.057045439398362596,
0.1366084788029925,0.04425409759695258,
0.13665835411471322,0.021919949647821534,
0.1367082294264339,0.034813981365693955,
0.1367581047381546,0.03519355732246562,
0.13680798004987532,0.024735375718073636,
0.136857855361596,0.0432242905651591,
0.1369077306733167,-0.01953795568755391,
0.1369576059850374,0.05524211378189385,
0.1370074812967581,0.026619841257993857,
0.13705735660847881,0.022682848182032964,
0.1371072319201995,0.025568514088309173,
0.1371571072319202,0.04635197012561139,
0.1372069825436409,0.019613390355413977,
0.1372568578553616,0.016106851349888207,
0.1373067331670823,0.005961751322153302,
0.137356608478803,0.0317633884532365,
0.1374064837905237,0.040665654113574486,
0.13745635910224438,0.015823807757929638,
0.1375062344139651,0.018191515352575044,
0.1375561097256858,0.03253155775816256,
0.13760598503740648,0.050397083220301064,
0.1376558603491272,0.028631631665798577,
0.13770573566084787,0.03155034254740758,
0.13775561097256858,0.03226105111453322,
0.13780548628428926,0.001683865256583053,
0.13785536159600997,0.005736624206115037,
0.13790523690773068,0.0057049954829663276,
0.13795511221945136,0.014713929346262714,
0.13800498753117207,0.021265820973389457,
0.13805486284289276,0.02178520150453733,
0.13810473815461347,0.03697540622318989,
0.13815461346633418,0.0243931333103819,
0.13820448877805486,0.04026817724720591,
0.13825436408977557,0.04534925327715762,
0.13830423940149625,0.02507803078924044,
0.13835411471321696,0.03506060245667273,
0.13840399002493767,0.03225973184140039,
0.13845386533665835,0.020189211104846273,
0.13850374064837906,0.023221883010611413,
0.13855361596009974,0.02290295795349851,
0.13860349127182045,0.04686976542864628,
0.13865336658354116,0.042134643273214034,
0.13870324189526184,0.03450390844764503,
0.13875311720698255,0.054887503782824296,
0.13880299251870323,0.022964669173610387,
0.13885286783042394,0.019501939982861163,
0.13890274314214462,0.006990949175662852,
0.13895261845386533,0.026499317428377578,
0.13900249376558604,0.0323960305653387,
0.13905236907730673,-0.004460972221795617,
0.13910224438902744,0.012128431773510006,
0.13915211970074812,0.02849372340733277,
0.13920199501246883,0.005495885248581314,
0.13925187032418954,0.032417072961732164,
0.13930174563591022,0.02570743634536956,
0.13935162094763093,0.03894955519726036,
0.1394014962593516,0.04812259839254149,
0.13945137157107232,0.022502936628140416,
0.13950124688279303,0.051609142836083866,
0.1395511221945137,0.037165027681417974,
0.13960099750623442,0.02899150092238647,
0.1396508728179551,0.017542606495416627,
0.1397007481296758,0.02267097809519685,
0.13975062344139652,0.03420269965618539,
0.1398004987531172,0.05159164062914527,
0.1398503740648379,0.03499241546305774,
0.1399002493765586,0.021724903918848217,
0.1399501246882793,0.017547118229046733,
0.14,0.015472772086129977,
0.1400498753117207,0.020453055085267385,
0.1400997506234414,0.030264249112474873,
0.1401496259351621,0.024773864034406658,
0.1401995012468828,0.03723256022387153,
0.14024937655860348,0.036218007622156864,
0.1402992518703242,0.00866916005045216,
0.1403491271820449,0.024965195512459147,
0.14039900249376558,0.023111927292275715,
0.1404488778054863,0.03202306376656769,
0.14049875311720697,0.030485389256942334,
0.14054862842892768,-0.009340064541054578,
0.1405985037406484,0.031114523475415636,
0.14064837905236907,-0.003449375293990156,
0.14069825436408978,0.020005517450120008,
0.14074812967581046,-0.005813091583273346,
0.14079800498753117,0.0030334334920348108,
0.14084788029925188,0.04733651920544933,
0.14089775561097256,0.008912703960846905,
0.14094763092269327,-0.0037587242790799273,
0.14099750623441396,0.021624788019547855,
0.14104738154613466,0.006611346814871395,
0.14109725685785537,0.030884662896441317,
0.14114713216957606,0.008234107987810137,
0.14119700748129677,-0.0026351208371883407,
0.14124688279301745,0.02224250926003703,
0.14129675810473816,0.015152816206816291,
0.14134663341645887,-0.0067180562014593406,
0.14139650872817955,0.02378556272550383,
