time,amplitude,label
0.0,-0.0012397284592763312,
4.987531172069826e-05,0.013490455744993364,
9.975062344139652e-05,0.01882311918629706,
0.00014962593516209475,0.012371600126749824,
0.00019950124688279303,0.009327660514709249,
0.00024937655860349125,0.0070564173299733505,
0.0002992518703241895,0.0048717012262235555,
0.00034912718204488776,0.026171598483139838,
0.00039900249376558606,0.0149142468280744,
0.0004488778054862843,0.022556317987469317,
0.0004987531172069825,0.006608730076370354,
0.0005486284289276808,0.019781848333443874,
0.000598503740648379,-0.0019001643287125652,
0.0006483790523690773,0.020145675702242467,
0.0006982543640897755,-0.009271806342666012,
0.0007481296758104738,-0.020270066428802778,
0.0007980049875311721,0.014788630705731571,
0.0008478802992518703,0.03962298338345001,
0.0008977556109725686,0.002995153920896226,
0.0009476309226932668,0.007254643864270046,
0.000997506234413965,0.016783346760371215,
0.0010473815461346633,0.02658503295624875,
0.0010972568578553616,0.02752758070364599,
0.00114713216957606,0.031543002421838245,
0.001197007481296758,0.04423025411492734,
0.0012468827930174563,0.04128420900109152,
0.0012967581047381546,0.03442793864572968,
0.001346633416458853,0.027783392569564937,
0.001396508728179551,-0.003740087520267013,
0.0014463840399002493,-0.005401249995721839,
0.0014962593516209476,0.0070380067926784085,
0.001546134663341646,0.03125837122233674,
0.0015960099750623442,0.02272791021537384,
0.0016458852867830423,0.02129018783303069,
0.0016957605985037406,0.027033821233570572,
0.001745635910224439,0.04100443999006144,
0.0017955112219451373,-0.003142125066639686,
0.0018453865336658353,-0.0058601657024900874,
0.0018952618453865336,0.03763800283076148,
0.001945137157107232,0.03246933447934121,
0.00199501246882793,0.0021572384907195645,
0.0020448877805486283,0.047857821478604845,
0.0020947630922693266,-0.007317317116495862,
0.002144638403990025,0.033551393432414305,
0.0021945137157107233,0.02683461725895934,
0.0022443890274314216,0.02794366691591614,
0.00229426433915212,0.01706599613111966,
0.0023441396508728177,0.013614812630177704,
0.002394014962593516,0.012666870573452567,
0.0024438902743142144,0.010306098904566756,
0.0024937655860349127,0.03774863433721838,
0.002543640897755611,0.021313259499915742,
0.0025935162094763093,0.020509561659193605,
0.0026433915211970076,0.026601594197505657,
0.002693266832917706,0.024803846737536973,
0.002743142144638404,0.010213229849530308,
0.002793017456359102,0.01123601432008128,
0.0028428927680798004,0.031118017588237762,
0.0028927680798004987,-0.009751235341631134,
0.002942643391521197,0.014208847480749201,
0.0029925187032418953,0.02195275656126732,
0.0030423940149625936,0.016686000762641887,
0.003092269326683292,-0.002224205551067105,
0.00314214463840399,0.01794405842610779,
0.0031920199501246885,0.013604363941128891,
0.0032418952618453864,0.021087711767791416,
0.0032917705735660847,0.004201651628943346,
0.003341645885286783,0.03134228818199212,
0.0033915211970074813,0.039511526903477964,
0.0034413965087281796,0.03961485265738948,
0.003491271820448878,0.03539076579288144,
0.003541147132169576,0.015300032378345936,
0.0035910224438902745,-0.011866535673747222,
0.0036408977556109724,0.013185775421045133,
0.0036907730673316707,0.02410426482083417,
0.003740648379052369,0.009134188091208806,
0.0037905236907730673,0.01556931934868978,
0.0038403990024937656,0.024811138310555394,
0.003890274314214464,0.005760796444836442,
0.003940149625935162,0.003735249287266984,
0.00399002493765586,0.007640784571385112,
0.004039900249376558,0.05531679239046064,
0.004089775561097257,0.039023481487197156,
0.004139650872817955,0.039862477021077924,
0.004189526184538653,0.03186624271386881,
0.004239401496259352,0.00022860868996782413,
0.00428927680798005,0.027022343193802874,
0.004339152119700748,0.0007279343858226442,
0.0043890274314214465,0.015295891429527015,
0.004438902743142145,0.021126057651425542,
0.004488778054862843,0.01957178214439451,
0.004538653366583541,0.010072322004460173,
0.00458852867830424,0.008038840622988682,
0.004638403990024938,-0.005039816062901756,
0.0046882793017456355,0.01841983431838446,
0.004738154613466334,0.01674304649212674,
0.004788029925187032,0.01937687290881041,
0.00483790523690773,0.0324463163102694,
0.004887780548628429,0.03443400416013399,
0.004937655860349127,-0.014311286275352348,
0.004987531172069825,0.007742642882695619,
0.005037406483790524,-0.009030541022382436,
0.005087281795511222,0.0050919869221347745,
0.00513715710723192,-0.0037821222930777415,
0.0051870324189526185,0.031396178402253436,
0.005236907730673317,0.020879529431657544,
0.005286783042394015,0.010121356966549554,
0.0053366583541147134,0.026371184100202956,
0.005386533665835412,0.02565064512202791,
0.00543640897755611,0.006263012390161138,
0.005486284289276808,0.014828673029208043,
0.005536159600997507,0.0054327304795250796,
0.005586034912718204,0.01107812100790942,
0.005635910224438902,0.027300717694569848,
0.005685785536159601,0.01452243807851671,
0.005735660847880299,-0.003427127855172159,
0.005785536159600997,-0.007391397983710702,
0.005835411471321696,0.031889525633425606,
0.005885286783042394,-0.002069145728493413,
0.005935162094763092,0.009086508519437961,
0.0059850374064837905,0.02935891058282728,
0.006034912718204489,0.04729889949897292,
0.006084788029925187,0.011964794480796567,
0.0061346633416458855,-0.012276793382850086,
0.006184538653366584,0.020945150995375184,
0.006234413965087282,-0.013621145709392607,
0.00628428927680798,0.026627810713449877,
0.006334164588528679,0.0197696712381705,
0.006384039900249377,0.0034517885379474617,
0.006433915211970074,0.02950968230802882,
0.006483790523690773,0.00076753380216334,
0.006533665835411471,-0.0129695290009062,
0.006583541147132169,0.009208409652037987,
0.006633416458852868,0.013234602058321955,
0.006683291770573566,-0.017937361246427547,
0.006733167082294264,-0.00725627156233642,
0.0067830423940149626,0.01343841756027089,
0.006832917705735661,0.037688630433139386,
0.006882793017456359,0.010044211668564531,
0.0069326683291770575,-0.01414964835293952,
0.006982543640897756,-0.012175638533536466,
0.007032418952618454,0.028207703752143827,
0.007082294264339152,-0.0036786259391482275,
0.007132169576059851,0.003914528920675203,
0.007182044887780549,0.027095812347878667,
0.007231920199501247,0.00777122022743454,
0.007281795511221945,-0.007414105755744383,
0.007331670822942643,0.007111380130262546,
0.007381546134663341,-0.015375053282923472,
0.00743142144638404,0.00046962254760954825,
0.007481296758104738,0.0004840983249180782,
0.007531172069825436,-0.0074501431824745635,
0.007581047381546135,0.021929472668749866,
0.007630922693266833,-0.030924848845614167,
0.007680798004987531,-0.009522944422579612,
0.0077306733167082295,0.007121833103816171,
0.007780548628428928,0.0015749974534004388,
0.007830423940149626,0.009165696915398052,
0.007880299251870324,0.021592893467439794,
0.007930174563591023,0.013176453012080274,
0.00798004987531172,-0.002286961136916703,
0.00802992518703242,0.014873607826736916,
0.008079800498753117,0.008433530905875949,
0.008129675810473816,0.006818873007204377,
0.008179551122194513,0.019160434037441866,
0.008229426433915213,0.0022293162117304507,
0.00827930174563591,0.02017968269003266,
0.00832917705735661,0.03546046961395371,
0.008379052369077307,0.01142198910385904,
0.008428927680798006,-0.01602765275966259,
0.008478802992518703,-0.011363819763188496,
0.0085286783042394,-0.006543249652047037,
0.0085785536159601,-0.011165515121743467,
0.008628428927680797,0.037771881477888104,
0.008678304239401496,-0.0059745455755303685,
0.008728179551122194,-0.00027313756988995436,
0.008778054862842893,-0.024891344061280164,
0.00882793017456359,0.010534834170202841,
0.00887780548628429,0.01219463417384754,
0.008927680798004987,-0.02964974782030222,
0.008977556109725686,0.0042509316252987445,
0.009027431421446384,-0.009508728364012854,
0.009077306733167083,-0.030281503640285957,
0.00912718204488778,0.007235387946156164,
0.00917705735660848,-0.0289726238052307,
0.009226932668329177,0.02620804182191747,
0.009276807980049876,0.009466964842592983,
0.009326683291770574,-0.015825428176546606,
0.009376558603491271,-0.013092807631473753,
0.00942643391521197,-0.002293923826966305,
0.009476309226932668,-0.019048907100665643,
0.009526184538653367,0.0048815103038818315,
0.009576059850374064,-0.03542863164858748,
0.009625935162094763,-0.0163461826238775,
0.00967581047381546,0.013879863906818668,
0.00972568578553616,-0.016513673377593553,
0.009775561097256857,-0.010340777549617736,
0.009825436408977557,-0.012355873411705486,
0.009875311720698254,-0.012942533113212955,
0.009925187032418953,-0.010652415996107988,
0.00997506234413965,-0.01304957653777727,
0.01002493765586035,-0.010001562332201982,
0.010074812967581047,-0.02088570697238579,
0.010124688279301746,-0.024108047926213363,
0.010174563591022444,-0.0076266143850102115,
0.010224438902743141,-0.008028593474002942,
0.01027431421446384,-0.0014541110945389905,
0.010324189526184538,-0.04091921145146735,
0.010374064837905237,-0.006804969980327034,
0.010423940149625935,-0.05114811781317223,
0.010473815461346634,-0.011767161971465942,
0.010523690773067331,-0.008889364353618317,
0.01057356608478803,0.018625673098237074,
0.010623441396508728,-0.017531129221218703,
0.010673316708229427,0.0002936225896296614,
0.010723192019950124,-0.01999566422887103,
0.010773067331670824,-0.011523720643891663,
0.010822942643391521,-0.04529370404019548,
0.01087281795511222,-0.02520618758855083,
0.010922693266832918,-0.01848371856281047,
0.010972568578553617,-0.00024669070605081063,
0.011022443890274314,-0.009311674202747089,
0.011072319201995013,-0.015513824294581103,
0.01112219451371571,-0.03417106893595005,
0.011172069825436408,0.004185879720960071,
0.011221945137157107,-0.032135124773328194,
0.011271820448877805,0.00405907321104499,
0.011321695760598504,-0.010805298710895209,
0.011371571072319201,-0.0019878378915612095,
0.0114214463840399,-0.03007507750678727,
0.011471321695760598,-0.023284175699456077,
0.011521197007481297,-0.007153260735662066,
0.011571072319201995,-0.011506909021873056,
0.011620947630922694,-0.002521279227011071,
0.011670822942643391,-0.004229763364586046,
0.01172069825436409,-0.020843164328552877,
0.011770573566084788,0.00042446235924559553,
0.011820448877805487,0.006321045630708563,
0.011870324189526184,-0.024200502840818042,
0.011920199501246884,-0.03550776107257063,
0.011970074812967581,-0.043829756153446864,
0.012019950124688279,-0.07392212298327948,
0.012069825436408978,-0.030355074685799663,
0.012119700748129675,-0.009224851612415744,
0.012169576059850374,-0.03861579413623964,
0.012219451371571072,-0.013535924071527287,
0.012269326683291771,-0.017815186420750202,
0.012319201995012468,-0.005557056889163735,
0.012369077306733168,-0.005290092288647599,
0.012418952618453865,-0.02116287115994631,
0.012468827930174564,0.01870248261318981,
0.012518703241895262,-0.03337413613663729,
0.01256857855361596,-0.008765954320424875,
0.012618453865336658,-0.036297830123135075,
0.012668329177057357,0.00904665155700208,
0.012718204488778055,-0.026132685265952606,
0.012768079800498754,-0.02875497209797139,
0.012817955112219451,-0.021975074778906784,
0.012867830423940149,0.004724641059185207,
0.012917705735660848,0.02111381085989018,
0.012967581047381545,-0.02736842760876576,
0.013017456359102245,-0.020720291726296997,
0.013067331670822942,0.0020471902181392193,
0.013117206982543641,-0.0025128825145580708,
0.013167082294264339,-0.017645306781198522,
0.013216957605985038,-0.04429039521415604,
0.013266832917705735,-0.007864210745090337,
0.013316708229426434,-0.017434838794507745,
0.013366583541147132,-0.04242587225543404,
0.013416458852867831,-0.04149108502683721,
0.013466334164588529,0.00947834202190383,
0.013516209476309228,-0.024813123632722214,
0.013566084788029925,-0.034961780689694785,
0.013615960099750624,-0.02068565545217216,
0.013665835411471322,-0.03493945447918034,
0.01371571072319202,-0.03705929898612848,
0.013765586034912718,-0.03402517447436476,
0.013815461346633416,-0.012196185349681888,
0.013865336658354115,0.003583921023216006,
0.013915211970074812,0.002728473045063063,
0.013965087281795512,0.021600214326431996,
0.014014962593516209,-0.013361923368226784,
0.014064837905236908,-0.03672148238817492,
0.014114713216957606,-0.013520473589804401,
0.014164588528678305,-0.020694481350225745,
0.014214463840399002,-0.02764808623321273,
0.014264339152119701,0.015424405677489771,
0.014314214463840399,-0.014369023014627225,
0.014364089775561098,-0.014849382599531929,
0.014413965087281795,-0.023372124195423033,
0.014463840399002495,-0.0310100904973334,
0.014513715710723192,-0.0008146817733215156,
0.01456359102244389,-0.0016910982526915676,
0.014613466334164589,-0.041494159121609635,
0.014663341645885286,-0.020319289905907846,
0.014713216957605985,-0.018245530838763114,
0.014763092269326683,-0.013632417383400972,
0.014812967581047382,-0.008188472843443598,
0.01486284289276808,-0.016893467501050998,
0.014912718204488778,-0.03630329072617112,
0.014962593516209476,-0.020140270344212195,
0.015012468827930175,-0.02919445776070982,
0.015062344139650873,-0.019000963934615506,
0.015112219451371572,-0.0028645605887296505,
0.01516209476309227,0.0028167620145278707,
0.015211970074812968,0.0018014897756675145,
0.015261845386533666,-0.018394354762482835,
0.015311720698254365,0.003860475236260359,
0.015361596009975062,-0.02115755331750363,
0.01541147132169576,-0.0025602267860977516,
0.015461346633416459,-0.01353834567649269,
0.015511221945137156,-0.021149152425115815,
0.015561097256857856,-0.02453944731148195,
0.015610972568578553,-0.020943708327309137,
0.015660847880299252,-0.029462305173644565,
0.01571072319201995,-0.0023834764330114815,
0.015760598503740647,-0.04381761084955687,
0.015810473815461346,-0.013071899914119008,
0.015860349127182045,-0.003827991782701233,
0.015910224438902745,0.01739496265011955,
0.01596009975062344,-0.0032254881192299717,
0.01600997506234414,-0.03456590972612973,
0.01605985037406484,-0.019504874182036,
0.016109725685785538,0.0009250372713248654,
0.016159600997506234,-0.026140922164742533,
0.016209476309226933,-0.032682910259497225,
0.016259351620947632,-0.013668974431471154,
0.016309226932668328,-0.00016209224373220192,
0.016359102244389027,-0.010093101224588853,
0.016408977556109726,0.0018229313293531176,
0.016458852867830425,0.003386594025568082,
0.01650872817955112,0.000758563708426625,
0.01655860349127182,0.001783961630352245,
0.01660847880299252,0.008113527376503536,
0.01665835411471322,-0.00664974150371435,
0.016708229426433914,0.0031106296189160176,
0.016758104738154613,-0.010535556861492233,
0.016807980049875312,0.0025507639565566127,
0.01685785536159601,-0.019131138510219234,
0.016907730673316707,0.015279469787709717,
0.016957605985037406,-0.022415074657497928,
0.017007481296758106,-0.02337524570347666,
0.0170573566084788,0.01934894124612651,
0.0171072319201995,-0.028090298487170262,
0.0171571072319202,-0.011731744825971554,
0.0172069825436409,-0.0029332939177156873,
0.017256857855361595,-0.014873476876478157,
0.017306733167082294,0.006043433323078557,
0.017356608478802993,-0.009628292862351652,
0.017406483790523692,-0.008594412124985983,
0.017456359102244388,0.021090852162664597,
0.017506234413965087,0.011923420627828746,
0.017556109725685786,-0.010042758739032279,
0.017605985037406485,0.010281817637367158,
0.01765586034912718,0.004068603316555787,
0.01770573566084788,0.008697766658031843,
0.01775561097256858,0.0029010757311577103,
0.01780548628428928,0.017439412028503336,
0.017855361596009974,-0.04295063751481962,
0.017905236907730673,0.021091353816904145,
0.017955112219451373,0.006554047897048338,
0.018004987531172068,0.011488624098051034,
0.018054862842892767,0.02607921401093132,
0.018104738154613467,-0.02611897952431337,
0.018154613466334166,-7.702601835144493e-06,
0.01820448877805486,0.02721829007309207,
0.01825436408977556,0.00631437844650941,
0.01830423940149626,0.02454684492168764,
0.01835411471321696,-0.01610574348587819,
0.018403990024937655,-0.0050829132427075594,
0.018453865336658354,0.019450557457760705,
0.018503740648379053,0.004220370156064211,
0.018553615960099752,0.023172685132119744,
0.018603491271820448,-0.005263031954846481,
0.018653366583541147,0.04239270608929971,
0.018703241895261846,0.0028238764254440753,
0.018753117206982542,0.017103777981451178,
0.01880299251870324,0.023878781123616705,
0.01885286783042394,-0.007353533967419437,
0.01890274314214464,-0.019564155200351065,
0.018952618453865335,0.025981224671884736,
0.019002493765586034,-0.004189026967201385,
0.019052369077306733,0.020796376892871785,
0.019102244389027433,0.020278129306580028,
0.01915211970074813,0.018950198407339962,
0.019201995012468828,-0.002542931231983278,
0.019251870324189527,0.0203536108332093,
0.019301745635910226,0.006086277674037303,
0.01935162094763092,0.008112510033389662,
0.01940149625935162,0.004878357340464428,
0.01945137157107232,0.017738095273486295,
0.01950124688279302,-0.009694876504032139,
0.019551122194513715,0.031603292822072644,
0.019600997506234414,0.0448630399543658,
0.019650872817955113,-0.0024813731691791015,
0.01970074812967581,0.02408137938238748,
0.019750623441396508,0.018484859492622182,
0.019800498753117207,0.02199326084157459,
0.019850374064837906,0.014044390339177745,
0.019900249376558602,0.00969630548487046,
0.0199501246882793,0.03227800160464465,
0.02,0.014799386037494302,
0.0200498753117207,-0.0012443246529105136,
0.020099750623441395,-0.0022830624255826514,
0.020149625935162094,0.02558912652589477,
0.020199501246882794,0.0029996393677052795,
0.020249376558603493,-0.01275765515172224,
0.02029925187032419,0.004311392877126239,
0.020349127182044888,0.012389115142698331,
0.020399002493765587,0.02003801697340576,
0.020448877805486283,0.011288899848441048,
0.02049875311720698,0.022364862446829708,
0.02054862842892768,0.03375333302596853,
0.02059850374064838,-0.006875997045730603,
0.020648379052369076,0.013065227396200547,
0.020698254364089775,0.004264090593343818,
0.020748129675810474,0.028972267010815164,
0.020798004987531173,0.0410084482368708,
0.02084788029925187,-0.0257500142166984,
0.020897755610972568,0.00901129952357536,
0.020947630922693267,0.0110372974801701,
0.020997506234413967,0.03061685951526381,
0.021047381546134662,0.0008643841147459273,
0.02109725685785536,0.026600773272530735,
0.02114713216957606,0.018527978002544628,
0.02119700748129676,0.012597923617557174,
0.021246882793017455,0.034631759626848904,
0.021296758104738155,0.019581160049594107,
0.021346633416458854,0.01635115415125081,
0.02139650872817955,-0.007863686459003285,
0.02144638403990025,0.03791913677093448,
0.021496259351620948,0.007384056733304889,
0.021546134663341647,0.03916625028715805,
0.021596009975062343,0.014575941886983045,
0.021645885286783042,0.027539633699386234,
0.02169576059850374,-0.00019758947855048198,
0.02174563591022444,0.04453327247192351,
0.021795511221945136,0.01328370672493033,
0.021845386533665835,0.028559893894344428,
0.021895261845386534,0.028682735271095966,
0.021945137157107233,0.010879679447119848,
0.02199501246882793,0.004564264352625354,
0.02204488778054863,0.026636176172335276,
0.022094763092269327,0.01713099403728402,
0.022144638403990027,0.0241268524703603,
0.022194513715710722,0.01007591837860629,
0.02224438902743142,0.049444548627494374,
0.02229426433915212,0.00679348941567641,
0.022344139650872816,0.015919564644042226,
0.022394014962593516,0.01951652525232171,
0.022443890274314215,0.05059919419827966,
0.022493765586034914,0.026910461186440533,
0.02254364089775561,0.026868151203768436,
0.02259351620947631,0.005685401448633297,
0.022643391521197008,0.014959088387579512,
0.022693266832917707,0.03041875145360369,
0.022743142144638403,0.01733986610482444,
0.022793017456359102,0.02994198160511667,
0.0228428927680798,0.024807308393668258,
0.0228927680798005,0.028651382682766922,
0.022942643391521196,0.03418835803117498,
0.022992518703241895,0.040378360949850575,
0.023042394014962594,0.017615860664431965,
0.02309226932668329,0.01840884391761821,
0.02314214463840399,0.004840742236659524,
0.02319201995012469,0.00927708597108001,
0.023241895261845388,0.0074853472330244225,
0.023291770573566083,0.029155956624607765,
0.023341645885286783,0.03468253349354611,
0.02339152119700748,0.026704206511202887,
0.02344139650872818,0.002909559576564219,
0.023491271820448877,0.02183233780053697,
0.023541147132169576,0.01052148641468921,
0.023591022443890275,0.03845371590642276,
0.023640897755610974,0.015043750355149706,
0.02369077306733167,0.038523441636720196,
0.02374064837905237,0.03398248807093466,
0.023790523690773068,0.015890280161949807,
0.023840399002493767,0.003217965412391898,
0.023890274314214463,0.03953574581906516,
0.023940149625935162,0.018338286933964672,
0.02399002493765586,0.02302025540581387,
0.024039900249376557,0.02095353238030464,
0.024089775561097256,0.007328504401451616,
0.024139650872817955,0.0025518623634637645,
0.024189526184538655,0.027639809010261952,
0.02423940149625935,0.027054143752797563,
0.02428927680798005,0.038596820120190306,
0.02433915211970075,0.02498267216496414,
0.024389027431421448,0.026251633945129277,
0.024438902743142144,0.007404326982718298,
0.024488778054862843,0.009681367672194274,
0.024538653366583542,0.017410466634708084,
0.02458852867830424,0.03330003601130185,
0.024638403990024937,0.027563658929701293,
0.024688279301745636,0.0140394024670758,
0.024738154613466335,0.04997010454945651,
0.02478802992518703,0.010921801356694724,
0.02483790523690773,0.014317343767982521,
0.02488778054862843,0.019954873345121554,
0.02493765586034913,0.017033083564160778,
0.024987531172069824,0.019923983168383726,
0.025037406483790523,0.01544353313465377,
0.025087281795511222,0.036310494918475114,
0.02513715710723192,0.047279261256704855,
0.025187032418952617,-0.004753890698551581,
0.025236907730673316,0.0382580790250993,
0.025286783042394016,0.0022291298515163867,
0.025336658354114715,-0.004303316170981002,
0.02538653366583541,0.02045218338825002,
0.02543640897755611,0.031656049193516285,
0.02548628428927681,0.031506709437729444,
0.025536159600997508,0.0036411301430814436,
0.025586034912718204,0.013795895332341341,
0.025635910224438903,0.02687847970996192,
0.025685785536159602,0.015519229473874362,
0.025735660847880298,-0.006566839313801344,
0.025785536159600997,0.03643593904640319,
0.025835411471321696,-0.01330995049756074,
0.025885286783042395,-0.010919573422598049,
0.02593516209476309,0.028011497680610727,
0.02598503740648379,0.012081070938863583,
0.02603491271820449,0.0345371263361534,
0.02608478802992519,0.026931064432248963,
0.026134663341645884,-0.010632960939960415,
0.026184538653366583,0.03441345755904446,
0.026234413965087282,0.030685703930607756,
0.02628428927680798,0.007505460534272769,
0.026334164588528677,0.0018820979948398833,
0.026384039900249377,0.04249121038559289,
0.026433915211970076,0.0297445063184279,
0.02648379052369077,0.012917564188186018,
0.02653366583541147,-0.0019408554879916575,
0.02658354114713217,0.024094445176500497,
0.02663341645885287,0.010814793397633657,
0.026683291770573565,0.007162187795072734,
0.026733167082294264,0.013231348910910832,
0.026783042394014963,0.015205206136912373,
0.026832917705735662,-0.004999303444586026,
0.026882793017456358,0.009905688404639615,
0.026932668329177057,-0.019616098281930262,
0.026982543640897756,0.010626826582182636,
0.027032418952618455,0.02051505486604254,
0.02708229426433915,0.007198384194258368,
0.02713216957605985,0.0022158566944477506,
0.02718204488778055,-0.00480094006430145,
0.02723192019950125,0.016183875219565148,
0.027281795511221944,0.010436864348810204,
0.027331670822942643,0.0044123386387087595,
0.027381546134663343,0.01243829144976815,
0.02743142144638404,-0.020020036881730936,
0.027481296758104738,0.0025581141458388503,
0.027531172069825437,0.0034016675778785342,
0.027581047381546136,-0.01529767976700777,
0.02763092269326683,-0.005646417955492688,
0.02768079800498753,0.0008106406440688621,
0.02773067331670823,-0.00286447740828287,
0.02778054862842893,-0.006509584522137891,
0.027830423940149625,-0.009879174770389122,
0.027880299251870324,-0.0007438272718306325,
0.027930174563591023,-0.012432463619661235,
0.027980049875311722,0.0003247045401054485,
0.028029925187032418,-0.009681101753812978,
0.028079800498753117,0.04287055147892265,
0.028129675810473816,0.009232762505728824,
0.028179551122194512,0.012062598984357452,
0.02822942643391521,-0.0005649384262755314,
0.02827930174563591,-0.023358885573293832,
0.02832917705735661,-0.00871766668193716,
0.028379052369077305,0.02378516745093162,
0.028428927680798004,0.004693484383673322,
0.028478802992518704,0.01056479276824599,
0.028528678304239403,-0.03650264011651295,
0.0285785536159601,0.020221693852793557,
0.028628428927680798,0.010527060180088619,
0.028678304239401497,-0.012798444567135988,
0.028728179551122196,-0.002899473641716388,
0.02877805486284289,-0.0031574044237753047,
0.02882793017456359,0.013439102019744468,
0.02887780548628429,-0.01698709728829658,
0.02892768079800499,0.007807216330497867,
0.028977556109725685,0.012782155313704423,
0.029027431421446384,0.020925069228214663,
0.029077306733167083,-0.008811355610172336,
0.02912718204488778,-0.011609276016962032,
0.029177057356608478,0.02016893367000262,
0.029226932668329177,-0.02366808732390488,
0.029276807980049877,0.007143127058937793,
0.029326683291770572,-0.011158678352318305,
0.02937655860349127,-0.001740218868046059,
0.02942643391521197,-0.01567304674427969,
0.02947630922693267,-0.007129906653486546,
0.029526184538653365,-0.002733421165749081,
0.029576059850374065,-0.006404689789168163,
0.029625935162094764,-0.0037483235895719997,
0.029675810473815463,0.008928600744294177,
0.02972568578553616,-0.036546447145679194,
0.029775561097256858,0.0006466011696559665,
0.029825436408977557,-0.005762390012595464,
0.029875311720698253,-0.016586497127233712,
0.029925187032418952,-0.007994545106829653,
0.02997506234413965,-0.01377947555553773,
0.03002493765586035,-0.02694568903920174,
0.030074812967581046,-0.013906554821273053,
0.030124688279301745,-0.03030003062765406,
0.030174563591022444,-0.008139695475756693,
0.030224438902743143,0.007395096571971526,
0.03027431421446384,0.006570033981326023,
0.03032418952618454,-0.02049321425944022,
0.030374064837905237,-0.021544829763095595,
0.030423940149625937,-0.022662185323885163,
0.030473815461346632,-0.0073238289014447636,
0.03052369077306733,-0.01843247991824989,
0.03057356608478803,-0.016427971484387866,
0.03062344139650873,-0.01766873217789773,
0.030673316708229426,-0.013262562418152693,
0.030723192019950125,0.0016460744477738796,
0.030773067331670824,-0.03598137254617623,
0.03082294264339152,-0.011483964550756884,
0.03087281795511222,0.004677247229710576,
0.030922693266832918,-0.008758852516602463,
0.030972568578553617,-0.028867154811333166,
0.031022443890274313,-0.026186666909279614,
0.031072319201995012,-0.01952557925351896,
0.03112219451371571,0.003025925757087544,
0.03117206982543641,-0.03145085738763433,
0.031221945137157106,-0.040756191340701305,
0.03127182044887781,-0.01638214671766909,
0.031321695760598504,-0.019060251775817737,
0.0313715710723192,-0.008293664023336318,
0.0314214463840399,0.01463763389868651,
0.0314713216957606,-0.025922619312648464,
0.031521197007481294,-0.03495915432832713,
0.031571072319202,-0.008414255128939886,
0.03162094763092269,0.00836247136337311,
0.03167082294264339,-0.0030064207448372744,
0.03172069825436409,-0.02421871212953182,
0.03177057356608479,-0.021408546328013655,
0.03182044887780549,-0.022390486818412124,
0.031870324189526185,-0.012688259031289645,
0.03192019950124688,-0.02603546644816377,
0.03197007481296758,-0.04457030315161236,
0.03201995012468828,-0.03138896310674029,
0.032069825436408975,-0.02195496774796451,
0.03211970074812968,-0.01504325894283626,
0.03216957605985037,-0.009087688267451467,
0.032219451371571076,-0.0008957308751259378,
0.03226932668329177,-0.01732059006048067,
0.03231920199501247,-0.036043729007422316,
0.03236907730673317,-0.008785795064814082,
0.032418952618453865,-0.003000791978034812,
0.03246882793017456,-0.0015612611871021372,
0.032518703241895264,-0.013288074821696852,
0.03256857855361596,-0.03726121974990497,
0.032618453865336655,-0.0032715965018065996,
0.03266832917705736,0.012208026572197016,
0.032718204488778053,-0.005872857445790606,
0.032768079800498756,-0.008300616920454142,
0.03281795511221945,-0.011100301955815472,
0.03286783042394015,0.0025352901086987643,
0.03291770573566085,-0.019031839235324817,
0.032967581047381546,-0.0014947752618086375,
0.03301745635910224,-0.032552814281656454,
0.033067331670822944,-0.005998191322680176,
0.03311720698254364,-0.020682236349175653,
0.03316708229426434,-0.0019762711047726558,
0.03321695760598504,-0.0033480046288139435,
0.033266832917705734,-0.012454063630470566,
0.03331670822942644,-0.02328754974358329,
0.03336658354114713,-0.017303173090147686,
0.03341645885286783,-0.017201164695147667,
0.03346633416458853,-0.021567117947259594,
0.033516209476309226,-0.04455064582384774,
0.03356608478802992,-0.012289880734385125,
0.033615960099750625,-0.004381405031511182,
0.03366583541147132,-0.024394614933867687,
0.03371571072319202,-0.017455237093371125,
0.03376558603491272,-0.02001237176363216,
0.033815461346633414,-0.0353876898904866,
0.03386533665835412,-0.007533615297098313,
0.03391521197007481,-0.030045303445511776,
0.03396508728179551,-0.03305627314847815,
0.03401496259351621,0.0040206500045838825,
0.03406483790523691,-0.02672227221875389,
0.0341147132169576,-0.004972086791531225,
0.034164588528678305,-0.0010017110878969646,
0.034214463840399,-0.021287147596940337,
0.034264339152119704,-0.008830403708291005,
0.0343142144638404,-0.021242428904015124,
0.034364089775561095,0.004995234620391087,
0.0344139650872818,-0.015512408453009984,
0.03446384039900249,-0.040018237538528775,
0.03451371571072319,-0.012436714075793127,
0.03456359102244389,-0.01440209138699279,
0.03461346633416459,-0.025922385401205124,
0.03466334164588529,-0.03600563868826272,
0.034713216957605986,-0.013976194123702584,
0.03476309226932668,-0.01492417838300249,
0.034812967581047384,-0.02520543976854444,
0.03486284289276808,-0.03582586670472836,
0.034912718204488775,0.026604672456668876,
0.03496259351620948,-0.013782031677515388,
0.035012468827930174,-0.027417641831613215,
0.03506234413965087,-0.02668958778690307,
0.03511221945137157,-0.009867825391481233,
0.03516209476309227,-0.03926941692603846,
0.03521197007481297,0.009571921073190333,
0.035261845386533666,0.009163106705499842,
0.03531172069825436,-0.01926642588387069,
0.035361596009975065,-0.02349140290620162,
0.03541147132169576,-0.019765259057880853,
0.035461346633416456,0.0019753982708070727,
0.03551122194513716,-0.029674846778148252,
0.035561097256857854,0.0023010662534277172,
0.03561097256857856,-0.004578826295883638,
0.03566084788029925,-0.034348757316597825,
0.03571072319201995,-0.02207768689468021,
0.03576059850374065,-0.029377803540608156,
0.03581047381546135,-0.021516717033171647,
0.03586034912718204,0.007904523499634403,
0.035910224438902745,-0.044273385282374,
0.03596009975062344,-0.02753927892109924,
0.036009975062344136,-0.003195073297761166,
0.03605985037406484,-0.01793455918409786,
0.036109725685785535,-0.017552632600077746,
0.03615960099750624,0.014058491604047083,
0.03620947630922693,-0.014242734139651457,
0.03625935162094763,-0.015051878944350738,
0.03630922693266833,-0.00932317763003425,
0.03635910224438903,0.03165782523252584,
0.03640897755610972,0.008513897124773642,
0.036458852867830426,-0.0017704866694770918,
0.03650872817955112,-0.019523255159956083,
0.036558603491271824,-0.007585669155848947,
0.03660847880299252,-0.001484719132805453,
0.036658354114713215,-0.006301017503617236,
0.03670822942643392,0.0013182696410787885,
0.036758104738154614,0.005010591007527066,
0.03680798004987531,0.0013779183521260572,
0.03685785536159601,0.009447588048229306,
0.03690773067331671,-0.03862509696237426,
0.0369576059850374,0.013747701642935003,
0.037007481296758106,-0.005876805042263837,
0.0370573566084788,-0.0038945116386375606,
0.037107231920199504,0.0047014867074074195,
0.0371571072319202,0.004803664249538766,
0.037206982543640896,0.022682669200392164,
0.0372568578553616,0.003247727346326013,
0.037306733167082294,-0.0033552308595073453,
0.03735660847880299,-0.021895885120255466,
0.03740648379052369,-0.01843113306461663,
0.03745635910224439,0.0008632596965151566,
0.037506234413965084,0.01913759271609635,
0.037556109725685786,0.013616020129185134,
0.03760598503740648,0.03941703543446576,
0.037655860349127185,0.011687155227028127,
0.03770573566084788,-0.02457047267726684,
0.037755610972568576,0.007718776636889968,
0.03780548628428928,0.005932568935006226,
0.037855361596009975,0.010108067398208444,
0.03790523690773067,-0.008768411728013067,
0.03795511221945137,0.010372683186003888,
0.03800498753117207,-0.009020275592597847,
0.03805486284289277,0.02986542190892371,
0.03810473815461347,0.016828598624394283,
0.03815461346633416,0.012484340851546682,
0.038204488778054865,0.0136675797330593,
0.03825436408977556,-0.010619428104114285,
0.03830423940149626,0.016127523134230208,
0.03835411471321696,0.008300181725513965,
0.038403990024937655,-0.016634447238317626,
0.03845386533665835,0.003466632998766604,
0.03850374064837905,-0.013340201042373016,
0.03855361596009975,0.013008501374898371,
0.03860349127182045,0.016605095869387958,
0.03865336658354115,0.022442421508748006,
0.03870324189526184,0.01672128160080914,
0.038753117206982546,0.0032918978704628388,
0.03880299251870324,-0.011048770291381817,
0.03885286783042394,0.0004314194429348257,
0.03890274314214464,-0.01722245242851312,
0.038952618453865336,0.01685502362860454,
0.03900249376558604,-0.013646234362389226,
0.039052369077306734,0.019535578130829217,
0.03910224438902743,-0.000548806434203521,
0.03915211970074813,-0.013327550960368485,
0.03920199501246883,0.015055407061209164,
0.039251870324189524,0.013426520380648586,
0.039301745635910226,0.009495451391905742,
0.03935162094763092,0.010894877794585821,
0.03940149625935162,0.042949027890615304,
0.03945137157107232,0.02439314502847094,
0.039501246882793016,0.024444105978698276,
0.03955112219451372,-0.003974168907815512,
0.039600997506234414,0.006629701793847855,
0.03965087281795511,0.01222990589312267,
0.03970074812967581,0.016761865502045566,
0.03975062344139651,0.009015588832860827,
0.039800498753117204,0.019136502243066702,
0.03985037406483791,0.002674817110721834,
0.0399002493765586,-0.008537413108489938,
0.039950124688279305,-0.007676724917071748,
0.04,0.0014621561777921638,
0.0400498753117207,0.037892033138122075,
0.0400997506234414,0.03328624572651228,
0.040149625935162095,0.012536203688186545,
0.04019950124688279,0.014872673996921826,
0.04024937655860349,0.012734204117561043,
0.04029925187032419,0.007669159958516011,
0.040349127182044885,0.034252430849366675,
0.04039900249376559,0.030723862717280195,
0.04044887780548628,0.03700305407202868,
0.040498753117206986,0.024759126130139027,
0.04054862842892768,0.014387459178806013,
0.04059850374064838,-0.004254097385271924,
0.04064837905236908,0.0215197810530649,
0.040698254364089775,-0.017054533235683428,
0.04074812967581047,0.004037239645977858,
0.040798004987531174,0.036912560444244666,
0.04084788029925187,0.01605358074539511,
0.040897755610972565,0.0016456187671330669,
0.04094763092269327,0.003942719871518039,
0.04099750623441396,0.010511211046337832,
0.041047381546134666,0.03575257383938986,
0.04109725685785536,0.015037948876881679,
0.04114713216957606,0.024280707242088445,
0.04119700748129676,0.03708022542324912,
0.041246882793017456,0.03174692238239914,
0.04129675810473815,0.028675816482181295,
0.041346633416458854,0.03260353779213167,
0.04139650872817955,-0.0208779053445515,
0.04144638403990025,0.022533989630865572,
0.04149625935162095,0.036940549956002766,
0.041546134663341644,0.03873998860156357,
0.04159600997506235,0.004276420871912646,
0.04164588528678304,0.011991483795161432,
0.04169576059850374,0.03483311558685639,
0.04174563591022444,0.009169827721103134,
0.041795511221945136,-0.006227815930990678,
0.04184538653366583,0.025308567504612307,
0.041895261845386535,0.044384536214587794,
0.04194513715710723,0.006929509359510824,
0.04199501246882793,0.032762124623283914,
0.04204488778054863,0.027279260389572485,
0.042094763092269324,-0.0001886254866041749,
0.04214463840399003,0.010683191404344433,
0.04219451371571072,0.02877625133546461,
0.04224438902743142,0.016493104268836614,
0.04229426433915212,0.014354713652382747,
0.04234413965087282,0.0033217137532050058,
0.04239401496259352,0.018510259603092792,
0.042443890274314215,0.010930782987403187,
0.04249376558603491,0.020792041237752457,
0.042543640897755614,0.03858222048762118,
0.04259351620947631,0.007605453880304754,
0.042643391521197005,-0.004215453535383367,
0.04269326683291771,-0.004051095857502771,
0.0427431421446384,0.03305964498516553,
0.0427930174563591,-0.012101364404597824,
0.0428428927680798,0.015867923972335232,
0.0428927680798005,0.02167010326797036,
0.0429426433915212,0.033314530500943434,
0.042992518703241896,0.01001811599619737,
0.04304239401496259,0.024466466385509672,
0.043092269326683294,0.01786556510642033,
0.04314214463840399,0.032034787934616865,
0.043192019950124685,0.024039885654515283,
0.04324189526184539,0.04330491689746724,
0.043291770573566084,0.014963612173574921,
0.043341645885286786,0.015093784776367077,
0.04339152119700748,0.02028142951464622,
0.04344139650872818,0.021001225357879464,
0.04349127182044888,0.04416824493632679,
0.043541147132169576,0.03294519461747342,
0.04359102244389027,0.0592893037207697,
0.043640897755610975,0.023763205989446395,
0.04369077306733167,0.017311842086701376,
0.043740648379052366,0.04842612397000349,
0.04379052369077307,0.015859885610214012,
0.043840399002493764,-0.003043346327471143,
0.04389027431421447,0.008186307738604215,
0.04394014962593516,0.01217418548641788,
0.04399002493765586,0.017189212189204835,
0.04403990024937656,0.0452398093119097,
0.04408977556109726,0.004291968784868233,
0.04413965087281795,0.002723611973796093,
0.044189526184538655,0.043209903945568826,
0.04423940149625935,-0.014552403937560791,
0.04428927680798005,0.02770252806557566,
0.04433915211970075,0.013303422722917145,
0.044389027431421445,0.023963594844461214,
0.04443890274314215,0.027384848997305356,
0.04448877805486284,0.0029509031698644918,
0.04453865336658354,0.004284821102540467,
0.04458852867830424,0.019496144250111903,
0.04463840399002494,0.02396640592081887,
0.04468827930174563,0.027226321877362555,
0.044738154613466335,0.03264948837092844,
0.04478802992518703,0.011893440204110444,
0.044837905236907734,0.03585566245925316,
0.04488778054862843,0.030677804769142045,
0.044937655860349125,0.012071599015248404,
0.04498753117206983,0.035062373780611195,
0.045037406483790524,0.03929791766519777,
0.04508728179551122,0.02165974267333207,
0.04513715710723192,0.030031043179737343,
0.04518703241895262,0.019320204362814276,
0.04523690773067331,0.021472517698365064,
0.045286783042394016,0.0010002638237983363,
0.04533665835411471,0.0217706431062905,
0.045386533665835414,0.0266309890204207,
0.04543640897755611,0.03188461656925423,
0.045486284289276806,0.0024597996677728877,
0.04553615960099751,0.01066968363940184,
0.045586034912718204,0.02630511473178265,
0.0456359102244389,0.025063057745325794,
0.0456857855361596,0.03499958090104652,
0.0457356608478803,0.011150464429416704,
0.045785536159601,0.024752555241855156,
0.045835411471321696,0.004444853258788992,
0.04588528678304239,0.011591655123266844,
0.045935162094763095,0.011362848671176807,
0.04598503740648379,0.02001854103489822,
0.046034912718204486,0.04056461251925714,
0.04608478802992519,0.008026496153901209,
0.046134663341645885,0.019979702486664454,
0.04618453865336658,0.01821084727308549,
0.04623441396508728,0.03267830965651593,
0.04628428927680798,0.023004990326191313,
0.04633416458852868,0.030248206532527654,
0.04638403990024938,0.006773342725105404,
0.04643391521197007,0.04149126655478281,
0.046483790523690775,0.025390258463987167,
0.04653366583541147,-0.011650746898026828,
0.04658354114713217,0.04653052412238057,
0.04663341645885287,0.009484755722919173,
0.046683291770573565,0.01104406182358592,
0.04673316708229427,0.033046660015230184,
0.04678304239401496,0.03190324744563827,
0.04683291770573566,0.0015858751406594082,
0.04688279301745636,0.00735471625640817,
0.04693266832917706,0.008275482140174466,
0.04698254364089775,0.014156577653070303,
0.047032418952618456,0.0307550749023869,
0.04708229426433915,-0.018723246524944594,
0.04713216957605985,0.007028070715661338,
0.04718204488778055,0.031802991353342885,
0.047231920199501246,-0.0038328309613641625,
0.04728179551122195,0.01600798530318058,
0.047331670822942644,-0.01146415148201664,
0.04738154613466334,0.019471807972988087,
0.04743142144638404,0.016757731214254813,
0.04748129675810474,0.005744218347587634,
0.047531172069825434,-0.017978644118215287,
0.047581047381546136,0.0034017441259455083,
0.04763092269326683,0.01114527931887181,
0.047680798004987535,-0.0033659825909009306,
0.04773067331670823,0.03155407962854687,
0.047780548628428926,0.0024950630328517873,
0.04783042394014963,0.020179602485126125,
0.047880299251870324,-0.012388038523563025,
0.04793017456359102,-0.008114254957070265,
0.04798004987531172,0.008405168799865711,
0.04802992518703242,9.679611068787002e-05,
0.048079800498753114,0.024852826701355798,
0.04812967581047382,-0.010010615531726145,
0.04817955112219451,0.01856865439536891,
0.048229426433915215,-0.000553607678738154,
0.04827930174563591,-0.001123836150424772,
0.048329177057356607,-0.0003494740098924148,
0.04837905236907731,-0.0025891146842469655,
0.048428927680798005,0.012755052723268481,
0.0484788029925187,-0.014330321673060194,
0.0485286783042394,-0.02098377273885,
0.0485785536159601,0.0036470575201732317,
0.048628428927680795,0.0022359889745478556,
0.0486783042394015,0.022828258265475517,
0.04872817955112219,-0.010318843724550312,
0.048778054862842896,0.012743587262143512,
0.04882793017456359,-0.007468201062013242,
0.04887780548628429,0.013469176834217736,
0.04892768079800499,0.011755105822812088,
0.048977556109725685,-0.0048096362369130724,
0.04902743142144638,0.003511013430187483,
0.049077306733167084,-0.014216462320338623,
0.04912718204488778,-0.021077634165341197,
0.04917705735660848,-0.004884988324701898,
0.04922693266832918,-0.013445539945988282,
0.04927680798004987,-0.0011472265107819687,
0.049326683291770576,-0.016615049588844577,
0.04937655860349127,-0.016665978877393045,
0.04942643391521197,0.005212053350834477,
0.04947630922693267,-0.029900375991141138,
0.049526184538653366,-0.03746915692415198,
0.04957605985037406,-0.0328676139167462,
0.049625935162094764,0.01145455568240961,
0.04967581047381546,0.01631816223741965,
0.04972568578553616,-0.01372465568500154,
0.04977556109725686,0.0028538726375277063,
0.049825436408977554,-0.019851018814202124,
0.04987531172069826,-0.01553144050939193,
0.04992518703241895,-0.0016079756417903832,
0.04997506234413965,0.007151642777855601,
0.05002493765586035,-0.022237267054944707,
0.050074812967581046,-0.018677210131189382,
0.05012468827930175,-0.0035335464276967663,
0.050174563591022445,0.011933540423164878,
0.05022443890274314,-0.01757319367130049,
0.05027431421446384,-0.006926958980462574,
0.05032418952618454,-0.009053322883341377,
0.050374064837905234,0.0028456221239919633,
0.05042394014962594,-0.022409446148453784,
0.05047381546134663,-0.011523530029214113,
0.05052369077306733,-0.0034629654518561143,
0.05057356608478803,0.022905988534408422,
0.05062344139650873,-0.008623571328126653,
0.05067331670822943,-0.0009476950747228288,
0.050723192019950125,-0.042911020511234965,
0.05077306733167082,-0.0018022456936271011,
0.050822942643391524,-0.034819818571481725,
0.05087281795511222,-0.024982017825092837,
0.050922693266832915,-0.02528958570968623,
0.05097256857855362,-0.018708026682939576,
0.05102244389027431,-0.02306438768607546,
0.051072319201995016,0.004185961012230909,
0.05112219451371571,0.00019322793732505505,
0.05117206982543641,-0.02722263805184824,
0.05122194513715711,-0.01670568697936973,
0.051271820448877806,-0.014492416619246518,
0.0513216957605985,-0.020217284889842105,
0.051371571072319204,-0.002903258228003573,
0.0514214463840399,0.017534166951649173,
0.051471321695760595,-0.028709341341342176,
0.0515211970074813,-0.013489155203169678,
0.051571072319201994,-0.006027669573613179,
0.051620947630922696,-0.017308166593977582,
0.05167082294264339,-0.007567681134195772,
0.05172069825436409,-0.0023985567933104013,
0.05177057356608479,-0.013380643209340935,
0.051820448877805486,0.016995296944049658,
0.05187032418952618,0.0017004118367476492,
0.051920199501246884,-0.004477681637626537,
0.05197007481296758,-0.026070182915904863,
0.052019950124688276,-0.029910274349504575,
0.05206982543640898,-0.006209012905139965,
0.052119700748129674,-0.009805261114972173,
0.05216957605985038,0.008288457489709142,
0.05221945137157107,0.005558969724850316,
0.05226932668329177,-0.019124141992571606,
0.05231920199501247,-0.03714647041020646,
0.05236907730673317,-0.02900180714220952,
0.05241895261845386,-0.010344937324788292,
0.052468827930174565,-0.010747052063122244,
0.05251870324189526,0.007869200060954845,
0.05256857855361596,-0.0205884104390602,
0.05261845386533666,-0.02197576006637397,
0.052668329177057355,-0.015865049423968144,
0.05271820448877806,0.008738324399975322,
0.05276807980049875,-0.023504829218165074,
0.05281795511221945,-0.036177147507724314,
0.05286783042394015,-0.013097806529296778,
0.05291770573566085,-0.020187436589473556,
0.05296758104738154,-0.022197075508576344,
0.053017456359102245,-0.013588548553934413,
0.05306733167082294,-0.021277864170990365,
0.053117206982543644,-0.015079885320013435,
0.05316708229426434,-0.02844852074789494,
0.053216957605985035,-0.014539141168550245,
0.05326683291770574,-0.01346389319762094,
0.053316708229426434,-0.03682386544925176,
0.05336658354114713,0.008711759283143165,
0.05341645885286783,-0.016136833602974535,
0.05346633416458853,-0.018384061051929048,
0.05351620947630923,-0.034820256941119426,
0.053566084788029926,-0.029778340324798272,
0.05361596009975062,-0.018953199374409407,
0.053665835411471324,0.0010202151098043163,
0.05371571072319202,-0.005457409008981838,
0.053765586034912716,-0.01656015227434427,
0.05381546134663342,-0.043126972252335555,
0.053865336658354114,-0.027320886526481653,
0.05391521197007481,-0.017764437793692692,
0.05396508728179551,0.006745629632322201,
0.05401496259351621,-0.007777313675128215,
0.05406483790523691,0.0065034519369426315,
0.054114713216957606,-0.04112338549180704,
0.0541645885286783,-0.005992888577893188,
0.054214463840399005,-0.016854596475005035,
0.0542643391521197,-0.012113276588847926,
0.054314214463840396,-0.0030947630243699092,
0.0543640897755611,0.0052864714605282345,
0.054413965087281795,-0.01586131752637996,
0.0544638403990025,-0.020778791087499554,
0.05451371571072319,-0.012789209499317142,
0.05456359102244389,-0.004785373413108699,
0.05461346633416459,-0.021600419578713823,
0.05466334164588529,-0.023957824719341395,
0.05471321695760598,-0.00897269660077502,
0.054763092269326685,-0.021156397775195998,
0.05481296758104738,-0.020429896653430195,
0.05486284289276808,-0.016250065100636975,
0.05491271820448878,-0.009152630729314937,
0.054962593516209475,0.005810210085925721,
0.05501246882793018,-0.03287380394995315,
0.05506234413965087,0.008913369864841496,
0.05511221945137157,-0.012192842934172549,
0.05516209476309227,-0.016922310290331234,
0.05521197007481297,-0.024596175334874563,
0.05526184538653366,-0.019956934796335268,
0.055311720698254366,-0.01601284095726735,
0.05536159600997506,-0.006207900057579907,
0.05541147132169576,-0.009599217682344473,
0.05546134663341646,-0.016143028510923273,
0.055511221945137156,0.003782715578121291,
0.05556109725685786,-0.026410282335784737,
0.055610972568578554,-0.01943717802040623,
0.05566084788029925,-0.028564140843295276,
0.05571072319201995,-0.0035971409873429804,
0.05576059850374065,-0.018064797256846805,
0.055810473815461344,0.012057331545665104,
0.055860349127182046,-0.0111632568601224,
0.05591022443890274,0.011324189063516621,
0.055960099750623445,-0.010226785805723317,
0.05600997506234414,0.013112725274421262,
0.056059850374064836,-0.008988047101377083,
0.05610972568578554,0.002531909969068248,
0.056159600997506234,-0.005453037808706312,
0.05620947630922693,-0.025997546387224145,
0.05625935162094763,-0.016183426382947563,
0.05630922693266833,-0.019845525694655402,
0.056359102244389024,0.001285162958781622,
0.05640897755610973,0.0001707509622201741,
0.05645885286783042,-0.024997273404567234,
0.056508728179551125,0.005857678203816902,
0.05655860349127182,-0.020642913189558076,
0.056608478802992516,0.004753444648363834,
0.05665835411471322,0.008521140823232819,
0.056708229426433915,-0.02896540296569757,
0.05675810473815461,0.0021934521242067077,
0.05680798004987531,-0.0038717383996255115,
0.05685785536159601,-0.011588559881083564,
0.05690773067331671,-0.02101248669438747,
0.05695760598503741,-0.010383138503767847,
0.0570074812967581,0.02093003718302395,
0.057057356608478806,-0.002778805414376438,
0.0571072319201995,-0.0003765985079826346,
0.0571571072319202,-0.009509926235560514,
0.0572069825436409,0.017420967992719777,
0.057256857855361595,0.008479266063861051,
0.05730673316708229,0.01327097447838533,
0.057356608478802994,-0.010531357226735963,
0.05740648379052369,-3.6697660063284986e-05,
0.05745635910224439,0.008416092465839454,
0.05750623441396509,-0.014309477169519264,
0.05755610972568578,0.015262854318362582,
0.057605985037406486,0.0007204719677992476,
0.05765586034912718,-0.007646141990592157,
0.05770573566084788,-0.012810425865799144,
0.05775561097256858,0.0020340367029948823,
0.057805486284289276,-0.0013674761770243395,
0.05785536159600998,0.009698692274894376,
0.057905236907730674,-0.025229444812096453,
0.05795511221945137,-0.010506232903909807,
0.05800498753117207,-0.002703232683850269,
0.05805486284289277,-0.021798696033467707,
0.058104738154613464,0.01328033369276314,
0.05815461346633417,-0.0013905518826074952,
0.05820448877805486,0.017237293596167453,
0.05825436408977556,0.010738474495789633,
0.05830423940149626,0.0015778869086260409,
0.058354114713216956,0.0069585350844231526,
0.05840399002493766,0.037430929565054935,
0.058453865336658355,-0.013591181689182885,
0.05850374064837905,-0.0052766543387210854,
0.05855361596009975,0.007627213280367675,
0.05860349127182045,0.0023223012344005395,
0.058653366583541144,0.000149051348852197,
0.05870324189526185,-0.021592823367394723,
0.05875311720698254,0.0007531524699047349,
0.05880299251870324,-0.001655204627055219,
0.05885286783042394,0.006213009430160099,
0.05890274314214464,0.03603906930407047,
0.05895261845386534,-0.0011055078912736924,
0.059002493765586035,-7.554915698820656e-05,
0.05905236907730673,-0.0008756462077273135,
0.059102244389027433,0.021818602231944977,
0.05915211970074813,0.006436806915444209,
0.059201995012468825,-0.006035769887890631,
0.05925187032418953,0.007941013101736212,
0.05930174563591022,0.005996772506106628,
0.059351620947630926,0.006716683539240904,
0.05940149625935162,0.014298060040287826,
0.05945137157107232,0.008727871925152397,
0.05950124688279302,0.0038669875223914397,
0.059551122194513716,-0.005488741666001034,
0.05960099750623441,0.028671912181612583,
0.059650872817955114,-0.0012374376481868836,
0.05970074812967581,-0.0008786349466763117,
0.059750623441396505,0.013538366582644946,
0.05980049875311721,0.026733288257915173,
0.059850374064837904,0.022129486320190395,
0.059900249376558606,0.0037765868599098397,
0.0599501246882793,0.015530098988189736,
0.06,0.009188902990585487,
0.0600498753117207,0.014700006751428699,
0.060099750623441396,0.026116284306117957,
0.06014962593516209,0.04309568027897133,
0.060199501246882794,0.01683908019942143,
0.06024937655860349,0.049185872623046065,
0.06029925187032419,0.022154995380476963,
0.06034912718204489,0.027580644870629598,
0.060399002493765584,0.005661557403467715,
0.06044887780548629,0.007338839992756866,
0.06049875311720698,0.022397670619672693,
0.06054862842892768,0.0029026641334046754,
0.06059850374064838,0.008482431944960307,
0.06064837905236908,0.022007377370618527,
0.06069825436408977,0.01822202694338756,
0.060748129675810475,0.026264523581002383,
0.06079800498753117,-0.00037233983727051265,
0.06084788029925187,0.0023811561701866553,
0.06089775561097257,0.03208104732825116,
0.060947630922693265,0.024467014581689192,
0.06099750623441397,0.009834775351792367,
0.06104738154613466,0.029388501906960348,
0.06109725685785536,0.04888634126355927,
0.06114713216957606,-0.004442826006352464,
0.06119700748129676,0.005118244116403992,
0.06124688279301746,0.02232627501404737,
0.061296758104738155,0.03514285604715492,
0.06134663341645885,0.007677767154644756,
0.061396508728179554,0.03207985169436202,
0.06144638403990025,0.019058898645595533,
0.061496259351620945,-0.009879472296356759,
0.06154613466334165,0.01612543353833633,
0.061596009975062344,0.024914676267782203,
0.06164588528678304,0.019148084939203558,
0.06169576059850374,0.056021584742405,
0.06174563591022444,0.007882359540778733,
0.06179551122194514,0.017459055344418935,
0.061845386533665836,0.0275231922146068,
0.06189526184538653,0.021598145524761334,
0.061945137157107234,0.01910520078754159,
0.06199501246882793,0.016555144246001924,
0.062044887780548626,0.002282698555151383,
0.06209476309226933,0.030907459996326145,
0.062144638403990024,0.02002278029496692,
0.06219451371571072,0.013724842415831879,
0.06224438902743142,0.00019982443274213155,
0.06229426433915212,-0.016703707972129125,
0.06234413965087282,0.03140726892680709,
0.062394014962593516,0.07039841302577177,
0.06244389027431421,0.03119185192857997,
0.062493765586034915,0.030304363816187535,
0.06254364089775562,0.009382355728119894,
0.06259351620947631,0.020390152100140668,
0.06264339152119701,0.059758562043718766,
0.0626932668329177,0.04037638061370782,
0.0627431421446384,0.0470243953127148,
0.0627930174563591,0.0013851772272201537,
0.0628428927680798,0.06769266143316267,
0.0628927680798005,0.0026182066949510772,
0.0629426433915212,0.008317458802520907,
0.06299251870324189,0.016682306957621126,
0.06304239401496259,0.058289238786683954,
0.0630922693266833,0.01961261451816155,
0.063142144638404,0.037994520374631094,
0.06319201995012469,0.03557863630007665,
0.06324189526184539,0.035148495869005744,
0.06329177057356608,0.009307660430807174,
0.06334164588528678,0.015556959029038985,
0.06339152119700749,0.03934692723974157,
0.06344139650872818,0.03540459483470452,
0.06349127182044888,0.012466424104995296,
0.06354114713216957,0.020285376455345644,
0.06359102244389027,0.048239806883610764,
0.06364089775561098,0.05294407923068023,
0.06369077306733167,0.011370635727492272,
0.06374064837905237,0.010457902907853707,
0.06379052369077307,0.012288064457089489,
0.06384039900249376,0.04667117153184452,
0.06389027431421446,0.020792917719010973,
0.06394014962593517,0.035598042061548346,
0.06399002493765586,0.01979811873527904,
0.06403990024937656,0.012876345109046299,
0.06408977556109725,0.0261922265617145,
0.06413965087281795,0.02152964849439485,
0.06418952618453866,0.010546931204759576,
0.06423940149625935,0.03747573262307658,
0.06428927680798005,0.017113215086794153,
0.06433915211970075,0.03552042812629677,
0.06438902743142144,0.04699411435611123,
0.06443890274314215,0.037100219019652644,
0.06448877805486285,0.014599540201928987,
0.06453865336658354,0.02406069583514848,
0.06458852867830424,0.02409659749848409,
0.06463840399002493,0.02274706102162656,
0.06468827930174563,0.0453056384810945,
0.06473815461346634,0.02600636109301684,
0.06478802992518704,0.0023358054981290344,
0.06483790523690773,0.00810959700841906,
0.06488778054862843,0.031215197190730314,
0.06493765586034912,0.03625116849658342,
0.06498753117206983,0.02043805552339406,
0.06503740648379053,0.02601879936549844,
0.06508728179551122,0.012959565445637346,
0.06513715710723192,0.01454135616820363,
0.06518703241895261,0.07743617112833187,
0.06523690773067331,0.01484029332174991,
0.06528678304239402,0.01665520229163187,
0.06533665835411472,0.03623273579117145,
0.06538653366583541,0.0392896716260875,
0.06543640897755611,0.019374269648635815,
0.0654862842892768,0.024820091472133286,
0.06553615960099751,0.010947503058886063,
0.06558603491271821,0.04856787866548845,
0.0656359102244389,0.01861396516785435,
0.0656857855361596,0.024379462699728266,
0.0657356608478803,0.04643832275187941,
0.06578553615960099,0.01989546560075932,
0.0658354114713217,0.012210782697856793,
0.0658852867830424,0.0033392730037697296,
0.06593516209476309,0.019701848314328644,
0.06598503740648379,0.03205742445131991,
0.06603491271820448,0.0028432170501545544,
0.06608478802992519,0.04298812197826117,
0.06613466334164589,-0.021684881353186334,
0.06618453865336658,-0.008325861493614778,
0.06623441396508728,0.027622208317439823,
0.06628428927680798,0.004602816478431521,
0.06633416458852869,0.017185608363467508,
0.06638403990024938,0.023492265118137984,
0.06643391521197008,0.022362997250418907,
0.06648379052369077,0.04114387020445888,
0.06653366583541147,0.016270619127756937,
0.06658354114713216,-0.0010073883004602345,
0.06663341645885287,0.008844376286685118,
0.06668329177057357,0.004617496070207961,
0.06673316708229426,0.010318958487915414,
0.06678304239401496,0.008619411485425759,
0.06683291770573566,0.02456546173033473,
0.06688279301745637,0.010708969670033049,
0.06693266832917706,0.01696071392580694,
0.06698254364089776,0.011903985671909114,
0.06703241895261845,0.03607067391813171,
0.06708229426433915,-0.007956571100818096,
0.06713216957605984,0.027157403263044284,
0.06718204488778055,0.006135368549112381,
0.06723192019950125,0.011513375334085266,
0.06728179551122195,-0.010930540136242764,
0.06733167082294264,-0.00807662541709505,
0.06738154613466334,0.0018460265575419316,
0.06743142144638405,0.030481978464471024,
0.06748129675810474,0.01453134871220876,
0.06753117206982544,0.005119036315051402,
0.06758104738154613,0.00801371147476359,
0.06763092269326683,0.022036804419698866,
0.06768079800498752,0.017496026821771433,
0.06773067331670823,0.026459557109074033,
0.06778054862842893,0.023896742464668077,
0.06783042394014963,-0.0033720320200249926,
0.06788029925187032,0.022365162818995414,
0.06793017456359102,0.009667483639075058,
0.06798004987531173,-0.0176074752870821,
0.06802992518703242,-0.004497562983209492,
0.06807980049875312,0.027019698386576408,
0.06812967581047381,0.0023968454965995795,
0.06817955112219451,0.014302662249138433,
0.0682294264339152,0.009171871682674212,
0.06827930174563591,-0.0040107582617768915,
0.06832917705735661,-0.004581491608786346,
0.0683790523690773,0.0039000635530660136,
0.068428927680798,-0.0022966064624308424,
0.0684788029925187,-0.016126217312447157,
0.06852867830423941,0.0014945001956032443,
0.0685785536159601,-0.009942892715885816,
0.0686284289276808,0.016826761436032397,
0.0686783042394015,0.0031905536061950755,
0.06872817955112219,0.01781432865470957,
0.0687780548628429,0.007029057675488771,
0.0688279301745636,-0.029482974377034864,
0.06887780548628429,0.0034062872833555144,
0.06892768079800499,-0.02615714072981499,
0.06897755610972568,-0.015267196297066302,
0.06902743142144638,-0.02845210520400316,
0.06907730673316709,0.004404373526059255,
0.06912718204488778,0.007060121829219177,
0.06917705735660848,0.0024268063023360894,
0.06922693266832917,0.009305887516418428,
0.06927680798004987,-0.002177838712737059,
0.06932668329177058,0.0024824506341062933,
0.06937655860349128,0.0110075191907293,
0.06942643391521197,0.013697706965236256,
0.06947630922693267,-0.0016975846907568203,
0.06952618453865336,-0.015487307234787449,
0.06957605985037406,0.003372124478005057,
0.06962593516209477,-0.003570929544990403,
0.06967581047381546,-0.020239018335087955,
0.06972568578553616,-0.012482896615186576,
0.06977556109725686,-0.004354998053323519,
0.06982543640897755,-0.010178697983150884,
0.06987531172069826,0.0007622565452672266,
0.06992518703241896,-0.003910095581192737,
0.06997506234413965,0.010196212517770064,
0.07002493765586035,0.00971681952886002,
0.07007481296758104,0.00919023916188229,
0.07012468827930174,-0.02023865307791623,
0.07017456359102245,0.012423263462973453,
0.07022443890274314,-0.018800538849718412,
0.07027431421446384,-0.011753799184600872,
0.07032418952618454,-0.031085885514157637,
0.07037406483790523,-0.008608297167259601,
0.07042394014962594,-0.021569696599364523,
0.07047381546134664,-0.006744663539691783,
0.07052369077306733,0.026057807702800282,
0.07057356608478803,-0.0038466466380947016,
0.07062344139650872,-0.028124137326933345,
0.07067331670822943,0.00741568618163525,
0.07072319201995013,0.0009910399525728617,
0.07077306733167082,-0.0045499713131840775,
0.07082294264339152,-0.04037726799271387,
0.07087281795511222,-0.017231681573253062,
0.07092269326683291,-0.0007828791960518711,
0.07097256857855362,-0.012121153525905357,
0.07102244389027432,0.00476090851375649,
0.07107231920199501,-0.00479797607981519,
0.07112219451371571,0.04102163503065441,
0.0711720698254364,-0.012794000510534857,
0.07122194513715711,-0.01671367632952532,
0.07127182044887781,-0.021685800490033935,
0.0713216957605985,-0.03373627048553583,
0.0713715710723192,-0.030811093198395364,
0.0714214463840399,-0.015842612196976916,
0.07147132169576059,-0.010530625080408222,
0.0715211970074813,-0.007293106346185791,
0.071571072319202,-0.02949808243866588,
0.0716209476309227,-0.017668787638650436,
0.07167082294264339,-0.009965693725900497,
0.07172069825436408,0.004116980189616842,
0.0717705735660848,-0.03778021704587269,
0.07182044887780549,0.006066103587093098,
0.07187032418952619,-0.007499481558184902,
0.07192019950124688,-0.028227550562926584,
0.07197007481296758,-0.012066541673467771,
0.07201995012468827,-0.011395274924908712,
0.07206982543640898,-0.008241746168257576,
0.07211970074812968,-0.027025669796825674,
0.07216957605985037,-0.013586184141469185,
0.07221945137157107,-0.023338114276909912,
0.07226932668329177,0.00754676415003085,
0.07231920199501247,0.0021599330534351653,
0.07236907730673317,-0.012655455089528408,
0.07241895261845387,-0.014521071285163797,
0.07246882793017456,-0.006311997711048573,
0.07251870324189526,-0.004110383438215202,
0.07256857855361595,0.007129894520780885,
0.07261845386533666,-0.012537945303298725,
0.07266832917705736,-0.0051619901059135175,
0.07271820448877805,0.005517569536435896,
0.07276807980049875,-0.01999524086620922,
0.07281795511221945,-0.025403553099376055,
0.07286783042394016,-0.005234698846418848,
0.07291770573566085,-0.03671409972771623,
0.07296758104738155,-0.03039877236971429,
0.07301745635910224,-0.027025502494581136,
0.07306733167082294,-0.01588281882452558,
0.07311720698254365,-0.01126029618101414,
0.07316708229426434,-0.029486097368889942,
0.07321695760598504,-0.04268255930408733,
0.07326683291770573,0.0026832391347501074,
0.07331670822942643,-0.017132912970831353,
0.07336658354114713,0.011888985776016651,
0.07341645885286784,-0.008556115863473542,
0.07346633416458853,-0.03234953974677616,
0.07351620947630923,-0.030190048246796868,
0.07356608478802992,-0.013104286036963193,
0.07361596009975062,-0.03719731223647153,
0.07366583541147133,-0.022840738072289757,
0.07371571072319202,0.007783253224831092,
0.07376558603491272,-0.02374352038635756,
0.07381546134663342,-0.042257009139145596,
0.07386533665835411,-0.0127661916915189,
0.0739152119700748,-0.03166513815775891,
0.07396508728179552,-0.013234801501182971,
0.07401496259351621,-0.02203179938144201,
0.07406483790523691,0.00368347614036027,
0.0741147132169576,-0.02428508835747961,
0.0741645885286783,-0.006360705841780729,
0.07421446384039901,0.00024773029804656815,
0.0742643391521197,-0.007962626761498745,
0.0743142144638404,-0.020849792698373483,
0.0743640897755611,-0.03991360100138616,
0.07441396508728179,-0.009102100189084113,
0.07446384039900249,-0.024383351248032994,
0.0745137157107232,-0.0009126311450128512,
0.07456359102244389,-0.0004179582486540656,
0.07461346633416459,-0.007846157613164324,
0.07466334164588528,-0.03737873059981765,
0.07471321695760598,-0.0045549265980953805,
0.07476309226932669,-0.024561010153502587,
0.07481296758104738,-0.0019459822774745596,
0.07486284289276808,-0.02672306621019729,
0.07491271820448878,0.007210241204555167,
0.07496259351620947,0.0035208445782672643,
0.07501246882793017,0.0006422809404070667,
0.07506234413965088,0.0009118568058325994,
0.07511221945137157,-0.013335901219185927,
0.07516209476309227,0.00781604779111611,
0.07521197007481296,-0.030617904639011057,
0.07526184538653366,-0.0006176750668526569,
0.07531172069825437,0.004017959878618289,
0.07536159600997507,-0.009479407779465801,
0.07541147132169576,-0.008679816894956827,
0.07546134663341646,0.012066401274073314,
0.07551122194513715,-0.03611752576403333,
0.07556109725685786,-0.007707186734171229,
0.07561097256857856,-0.020594104257648873,
0.07566084788029925,-0.026725680825982298,
0.07571072319201995,0.0009595369473620503,
0.07576059850374064,-0.008837781241154129,
0.07581047381546134,-0.02531512231334543,
0.07586034912718205,0.0008156096376184217,
0.07591022443890275,-0.01854007297170765,
0.07596009975062344,-0.012864679094846091,
0.07600997506234414,0.03974732389226911,
0.07605985037406483,-0.029590039209216164,
0.07610972568578554,-0.006900998139718267,
0.07615960099750624,-0.013250301732227562,
0.07620947630922693,-0.011104528285103717,
0.07625935162094763,0.010313665229594425,
0.07630922693266833,-0.014447641223490978,
0.07635910224438902,-0.03367665350795828,
0.07640897755610973,-0.0003578688856831344,
0.07645885286783043,-0.020473104322407357,
0.07650872817955112,-0.008278693237432765,
0.07655860349127182,-0.014605760522927027,
0.07660847880299251,0.016119801589332527,
0.07665835411471322,-0.00868140537667159,
0.07670822942643392,-0.005972387725825521,
0.07675810473815461,0.0041778480099457956,
0.07680798004987531,-0.013853065974515771,
0.076857855361596,-0.0007491542983864071,
0.0769077306733167,0.014800242674312337,
0.07695760598503741,0.02146157465126542,
0.0770074812967581,-0.009358056773647178,
0.0770573566084788,0.024623373674081295,
0.0771072319201995,0.00443350508561212,
0.0771571072319202,-0.021856774205043998,
0.0772069825436409,-0.01774559962933607,
0.0772568578553616,0.005358116048009184,
0.0773067331670823,0.012911899483028611,
0.07735660847880299,-0.007684532026386174,
0.07740648379052369,-0.020073015567832826,
0.0774563591022444,0.014158011255516051,
0.07750623441396509,0.014169375906662335,
0.07755610972568579,0.012237553400997693,
0.07760598503740648,-0.004606117757458597,
0.07765586034912718,0.006522826015637941,
0.07770573566084787,0.04638382531869181,
0.07775561097256858,0.01305644862505795,
0.07780548628428928,0.01731649157955315,
0.07785536159600998,0.013138604929146374,
0.07790523690773067,0.010242287392304952,
0.07795511221945137,-0.009205878385956313,
0.07800498753117208,-0.005293246608600617,
0.07805486284289277,0.01193215623842274,
0.07810473815461347,-0.002711585479714766,
0.07815461346633416,-0.03066580082977837,
0.07820448877805486,0.007011070239172525,
0.07825436408977555,-0.007507596210500279,
0.07830423940149626,0.010062442009708999,
0.07835411471321696,0.008528016507824893,
0.07840399002493766,0.002400534025457493,
0.07845386533665835,0.0046755248443879705,
0.07850374064837905,0.019120496943318133,
0.07855361596009976,0.006122045733074311,
0.07860349127182045,0.022900769105064486,
0.07865336658354115,0.022389853191242752,
0.07870324189526184,-0.005208284188019894,
0.07875311720698254,0.007207512395913316,
0.07880299251870324,-0.0006791240589828669,
0.07885286783042394,-0.002554383829782233,
0.07890274314214464,-0.0075934615297703675,
0.07895261845386534,-0.004447624566984972,
0.07900249376558603,0.018306190257335223,
0.07905236907730673,-0.012444600373070476,
0.07910224438902744,0.005910182320348957,
0.07915211970074813,0.015338730861742245,
0.07920199501246883,-0.0245931625274707,
0.07925187032418952,0.0006899759383285874,
0.07930174563591022,-0.0011528650642423262,
0.07935162094763092,0.010279820561246331,
0.07940149625935163,-0.012911686427923796,
0.07945137157107232,0.02724818699646027,
0.07950124688279302,0.006155078709532795,
0.07955112219451371,0.00039832701795397205,
0.07960099750623441,0.02511135753311877,
0.07965087281795512,0.0368832310058197,
0.07970074812967581,0.034081735535914495,
0.07975062344139651,0.0325769245759789,
0.0798004987531172,0.005029507049092448,
0.0798503740648379,0.02157099097525852,
0.07990024937655861,0.023592867998221217,
0.0799501246882793,0.001404990928452806,
0.08,0.028574073268902413,
0.0800498753117207,0.04815589824203487,
0.0800997506234414,0.012945241173546639,
0.08014962593516209,0.022434844348276216,
0.0801995012468828,0.027844378535039974,
0.0802493765586035,0.0017453871272805135,
0.08029925187032419,0.007386767337745707,
0.08034912718204489,-0.004064802614636147,
0.08039900249376558,0.0312317614661956,
0.08044887780548629,0.018003709201722815,
0.08049875311720699,0.012105063631091817,
0.08054862842892768,0.05534615996412652,
0.08059850374064838,0.043128315907545345,
0.08064837905236907,0.036971434435188646,
0.08069825436408977,0.015380430348479,
0.08074812967581048,0.026562480338565238,
0.08079800498753117,0.036252719719442196,
0.08084788029925187,0.009882379907162276,
0.08089775561097257,0.026391134297747518,
0.08094763092269326,0.0191155326653948,
0.08099750623441397,0.020877122071357182,
0.08104738154613467,0.0067123173488557175,
0.08109725685785536,0.024879519083850533,
0.08114713216957606,0.01306192789050797,
0.08119700748129675,0.032361065688721,
0.08124688279301745,0.015075630755134198,
0.08129675810473816,0.043036432090793234,
0.08134663341645886,0.028889970334858066,
0.08139650872817955,-0.016695044207956453,
0.08144638403990025,0.0433691070446479,
0.08149625935162094,0.027218187542342252,
0.08154613466334165,0.02213622898270747,
0.08159600997506235,0.03472122543227437,
0.08164588528678304,0.04456504927724826,
0.08169576059850374,0.034679308969711,
0.08174563591022443,0.024102853730246964,
0.08179551122194513,0.027749441554511596,
0.08184538653366584,0.040559391104911635,
0.08189526184538654,0.050252636962411716,
0.08194513715710723,0.023955567373596335,
0.08199501246882793,0.05579297419092885,
0.08204488778054862,0.027511150516162472,
0.08209476309226933,0.02259842993943898,
0.08214463840399003,0.0350480273244193,
0.08219451371571072,0.014904441303436749,
0.08224438902743142,0.008967373515136705,
0.08229426433915212,0.028087295547222408,
0.08234413965087282,0.039941488922674094,
0.08239401496259352,0.027624780551413864,
0.08244389027431422,0.03588122385005866,
0.08249376558603491,0.034996123365993455,
0.08254364089775561,0.03186238791460264,
0.0825935162094763,0.010020108981596575,
0.08264339152119701,0.03143626383524516,
0.08269326683291771,0.022771578103898862,
0.0827431421446384,0.05943277778696135,
0.0827930174563591,0.016530533480770847,
0.0828428927680798,0.017407076229356385,
0.0828927680798005,0.026944354415911424,
0.0829426433915212,0.02661781539764834,
0.0829925187032419,0.02759185749718082,
0.08304239401496259,0.03447906318287713,
0.08309226932668329,0.03855310314760764,
0.08314214463840398,0.034672170110877934,
0.0831920199501247,0.0022888204532083394,
0.08324189526184539,0.04577296593613511,
0.08329177057356608,-0.025275203190687587,
0.08334164588528678,0.02237746116241165,
0.08339152119700748,0.0037736327133143822,
0.08344139650872819,0.041610309105528986,
0.08349127182044888,0.038366359057050464,
0.08354114713216958,0.060511628468001566,
0.08359102244389027,0.02171998031286467,
0.08364089775561097,-0.002807264772497313,
0.08369077306733166,0.05397660912271535,
0.08374064837905237,0.026955626654794933,
0.08379052369077307,0.03687291327363463,
0.08384039900249377,0.0006406361007437848,
0.08389027431421446,0.010652910674772354,
0.08394014962593516,0.01751320437101733,
0.08399002493765587,0.045828618011872144,
0.08403990024937656,0.03803092024530176,
0.08408977556109726,0.02833507681924404,
0.08413965087281795,0.008415005762267232,
0.08418952618453865,0.007752100477582756,
0.08423940149625936,0.02843250819130988,
0.08428927680798005,0.020598388892229202,
0.08433915211970075,0.005406246442375223,
0.08438902743142145,0.031201747517209104,
0.08443890274314214,0.023651156035360908,
0.08448877805486284,0.021789718615257428,
0.08453865336658355,0.0478278995729175,
0.08458852867830424,0.01994411045751782,
0.08463840399002494,0.028894541872358886,
0.08468827930174563,-0.001741479122613656,
0.08473815461346633,0.007104051439534888,
0.08478802992518704,0.01845726226756145,
0.08483790523690773,0.03019351890343701,
0.08488778054862843,0.027674825459224398,
0.08493765586034913,0.0745124883157754,
0.08498753117206982,0.015936725087211088,
0.08503740648379052,0.01609832105461996,
0.08508728179551123,0.02286812029440254,
0.08513715710723192,0.017045321549972483,
0.08518703241895262,0.04815142530553035,
0.08523690773067331,0.028502399916063955,
0.08528678304239401,0.0028314215435360918,
0.08533665835411472,0.02311424287358366,
0.08538653366583542,0.0068363944384363055,
0.08543640897755611,0.039112063386753756,
0.0854862842892768,0.029820150301096453,
0.0855361596009975,0.02799802639518703,
0.0855860349127182,0.03168947365514602,
0.08563591022443891,0.027992281820553425,
0.0856857855361596,0.01871766867725025,
0.0857356608478803,0.006546314252654967,
0.085785536159601,0.005809329407705611,
0.08583541147132169,0.022086321696831078,
0.0858852867830424,0.02337751318912183,
0.0859351620947631,0.03267666855996873,
0.08598503740648379,0.026204022157343534,
0.08603491271820449,0.038225461553074366,
0.08608478802992518,0.028192382072776717,
0.08613466334164588,0.02452430220902304,
0.08618453865336659,0.006986177812967882,
0.08623441396508728,0.013864135720652761,
0.08628428927680798,0.007697952280288942,
0.08633416458852868,0.026631281248146437,
0.08638403990024937,0.01903188244946417,
0.08643391521197008,0.046509197189955075,
0.08648379052369078,0.045393840335882486,
0.08653366583541147,0.029142651730109125,
0.08658354114713217,0.031175123864919066,
0.08663341645885286,-0.013081816537993701,
0.08668329177057357,-0.014340347201924796,
0.08673316708229427,0.009879085405151396,
0.08678304239401496,0.01835724120574779,
0.08683291770573566,0.00384460827483233,
0.08688279301745636,0.008775032744632007,
0.08693266832917705,0.026805544764203222,
0.08698254364089776,0.0033204496330030853,
0.08703241895261846,0.012901962883572052,
0.08708229426433915,0.004706991571762947,
0.08713216957605985,0.022610536411413883,
0.08718204488778054,0.0027788314819028673,
0.08723192019950125,-0.0019295935829597953,
0.08728179551122195,0.01741424961462376,
0.08733167082294264,0.02476235642442532,
0.08738154613466334,0.01791619619582824,
0.08743142144638404,0.02798639368901344,
0.08748129675810473,0.010365641466786603,
0.08753117206982544,0.015253619557196712,
0.08758104738154614,0.0009842316148229724,
0.08763092269326683,0.02185956056903178,
0.08768079800498753,0.04377038475882972,
0.08773067331670822,0.005506359231637424,
0.08778054862842893,-0.015818071883554823,
0.08783042394014963,-0.006082222280243108,
0.08788029925187033,0.02247420554828765,
0.08793017456359102,0.0017764461956592797,
0.08798004987531172,0.017661012624344906,
0.08802992518703241,0.02505903118294296,
0.08807980049875312,0.00030733442814954905,
0.08812967581047382,-0.022595557404759232,
0.08817955112219451,0.009688075145921925,
0.08822942643391521,-0.0033656544090718363,
0.0882793017456359,0.014150277761609488,
0.08832917705735661,0.0007008878829530682,
0.08837905236907731,0.007251286421817719,
0.088428927680798,0.010804536391733444,
0.0884788029925187,-0.017568926346380867,
0.0885286783042394,0.005861264517495022,
0.0885785536159601,0.00044206129773672167,
0.0886284289276808,0.014706751869562123,
0.0886783042394015,0.0038760142714376867,
0.0887281795511222,-0.01562691126065659,
0.08877805486284289,-0.003848976238786975,
0.08882793017456359,0.014595191282717402,
0.0888778054862843,-0.010690536222009286,
0.08892768079800499,0.008763179732290346,
0.08897755610972569,0.014589159904382837,
0.08902743142144638,0.011687685457076779,
0.08907730673316708,0.011007401927360676,
0.08912718204488779,0.000500947515415195,
0.08917705735660848,0.025920410549736442,
0.08922693266832918,0.016330930087773615,
0.08927680798004987,0.010298253289281259,
0.08932668329177057,-0.010765420651173897,
0.08937655860349127,0.007169812013007971,
0.08942643391521198,-2.2071541393396937e-05,
0.08947630922693267,-0.020666574143801724,
0.08952618453865337,-0.008392090993657647,
0.08957605985037406,-0.036858699501620504,
0.08962593516209476,0.00287001206141163,
0.08967581047381547,-0.01397040743598094,
0.08972568578553616,-0.024990251797415337,
0.08977556109725686,-0.007231263796015028,
0.08982543640897755,0.01935446102363811,
0.08987531172069825,-0.014379841424458646,
0.08992518703241895,0.005706861935455765,
0.08997506234413966,-0.004010284815229518,
0.09002493765586035,-0.02465585510929747,
0.09007481296758105,-0.010044411809345462,
0.09012468827930174,0.009219633505710041,
0.09017456359102244,-0.006986029785869584,
0.09022443890274315,-0.003151410478031797,
0.09027431421446384,-0.004258207340720015,
0.09032418952618454,0.007684377611141068,
0.09037406483790524,0.003001561600334557,
0.09042394014962593,-0.037020637463864414,
0.09047381546134663,-0.017643914535301633,
0.09052369077306734,-0.01964807863051109,
0.09057356608478803,-0.004081962520428679,
0.09062344139650873,-0.01924315744720693,
0.09067331670822942,-0.007515771960961727,
0.09072319201995012,-0.032476597568262565,
0.09077306733167083,-0.015227408984838126,
0.09082294264339152,0.013826860827201514,
0.09087281795511222,-0.006057475514461015,
0.09092269326683292,0.00019248720767121516,
0.09097256857855361,-0.016583877790796626,
0.09102244389027432,-0.014504601016619927,
0.09107231920199502,0.007530265492799778,
0.09112219451371571,0.019947035382963763,
0.09117206982543641,0.019774764900537332,
0.0912219451371571,-0.022583667682204447,
0.0912718204488778,-0.0051965609138768425,
0.09132169576059851,-0.026015800140246025,
0.0913715710723192,-0.019262186138052,
0.0914214463840399,-0.02800132662668902,
0.0914713216957606,-0.017064860418106047,
0.09152119700748129,-0.013464943207858219,
0.091571072319202,0.008100342519645252,
0.0916209476309227,-0.02550379523817483,
0.09167082294264339,0.030720709446662695,
0.09172069825436409,-0.007327043214375845,
0.09177057356608478,-0.018073178211426538,
0.09182044887780548,0.004381584418442757,
0.09187032418952619,-0.028860528334086887,
0.09192019950124689,-0.02472665362913188,
0.09197007481296758,-0.005632804772372284,
0.09201995012468828,-0.025716671386674203,
0.09206982543640897,-0.042453862878284634,
0.09211970074812968,-0.05101356004000733,
0.09216957605985038,-0.02077445449413059,
0.09221945137157107,-0.03440840045533574,
0.09226932668329177,0.009757895629861287,
0.09231920199501246,0.018949558981154285,
0.09236907730673316,-0.02966888267067002,
0.09241895261845387,-0.01666657652948348,
0.09246882793017457,-0.017135035769084088,
0.09251870324189526,-0.01874958167899006,
0.09256857855361596,-0.010983136742866238,
0.09261845386533665,-0.011783276774082117,
0.09266832917705736,0.017128660063672002,
0.09271820448877806,0.021117546391588648,
0.09276807980049875,-0.0010658853757277622,
0.09281795511221945,-0.022928510637430247,
0.09286783042394015,0.015833565767668603,
0.09291770573566084,-0.01054388962406326,
0.09296758104738155,-0.02883026939881078,
0.09301745635910225,-0.01890674504620181,
0.09306733167082294,-0.011884300418877537,
0.09311720698254364,-0.016985589472232637,
0.09316708229426433,-0.015169950768795635,
0.09321695760598504,-0.027726670252954878,
0.09326683291770574,-0.04002735567493708,
0.09331670822942643,-0.0434325120386365,
0.09336658354114713,0.004067848864214248,
0.09341645885286783,-0.022575041772644574,
0.09346633416458854,-0.028577598659061235,
0.09351620947630923,-0.005899988421494911,
0.09356608478802993,-0.023255545047874228,
0.09361596009975062,-0.021147545301018457,
0.09366583541147132,0.01164773543875758,
0.09371571072319201,-0.004325435517203434,
0.09376558603491272,-0.022178484628768765,
0.09381546134663342,-0.02004570838833827,
0.09386533665835411,-0.017492160265973826,
0.09391521197007481,-0.011863981590691018,
0.0939650872817955,0.000988522474316843,
0.09401496259351622,-0.004300820142435088,
0.09406483790523691,-0.008656071549278494,
0.09411471321695761,-0.0018298986981388453,
0.0941645885286783,-0.0009670896616023016,
0.094214463840399,-0.02140076287983308,
0.0942643391521197,-0.008006989325343702,
0.0943142144638404,-0.01596425655048548,
0.0943640897755611,-0.0011106492651262422,
0.0944139650872818,-0.009448793018059322,
0.09446384039900249,-0.009178008309393627,
0.09451371571072319,-0.013686877196003037,
0.0945635910224439,-0.021699499625902237,
0.09461346633416459,-0.018886566743661008,
0.09466334164588529,-0.017798061032817027,
0.09471321695760598,0.01635976353066981,
0.09476309226932668,-0.008240066261911354,
0.09481296758104737,-0.017006432814460296,
0.09486284289276808,-0.02926646181831913,
0.09491271820448878,0.003757137779582382,
0.09496259351620948,-0.0009558445214178733,
0.09501246882793017,-0.004774937544187942,
0.09506234413965087,-0.021631608991974645,
0.09511221945137158,-0.005015515483256682,
0.09516209476309227,-0.01940433655052371,
0.09521197007481297,-0.018850523470088722,
0.09526184538653366,-0.0018803342468357229,
0.09531172069825436,-0.013860494813861845,
0.09536159600997507,-0.018215960572982238,
0.09541147132169576,-0.006657122794195239,
0.09546134663341646,-0.033644920581808374,
0.09551122194513716,0.0038267702455553115,
0.09556109725685785,-0.018254018559216982,
0.09561097256857855,-0.008643926662770664,
0.09566084788029926,-0.00099498217788081,
0.09571072319201995,0.011231055973990583,
0.09576059850374065,0.00017004123022390082,
0.09581047381546134,-0.003401792533159621,
0.09586034912718204,-0.021469579653441713,
0.09591022443890275,-0.006813050926055395,
0.09596009975062345,0.0050296048348699674,
0.09600997506234414,0.028278001156010507,
0.09605985037406484,-0.022288907929938404,
0.09610972568578553,-0.013878885173955555,
0.09615960099750623,-0.0020525302209559605,
0.09620947630922694,0.0038083976595808307,
0.09625935162094763,0.003144457186766904,
0.09630922693266833,-0.018692571718731774,
0.09635910224438902,0.004312533685799631,
0.09640897755610972,0.0018762798570059105,
0.09645885286783043,0.0017399393942723546,
0.09650872817955113,-0.00620881124242223,
0.09655860349127182,-0.007529236489828516,
0.09660847880299252,-0.009846824828443793,
0.09665835411471321,0.00047363516055551596,
0.09670822942643391,0.01928861756284132,
0.09675810473815462,0.014344106889538539,
0.09680798004987531,-0.007229044296238736,
0.09685785536159601,0.004469572321429418,
0.0969077306733167,-0.007308035503687901,
0.0969576059850374,-0.029320059259833393,
0.09700748129675811,0.026698285588645083,
0.0970573566084788,-0.0013228058931655069,
0.0971072319201995,0.008320019454672825,
0.0971571072319202,-0.013208106986150332,
0.0972069825436409,0.010723335099882063,
0.09725685785536159,-0.010681854609655844,
0.0973067331670823,0.015686638457972323,
0.097356608478803,0.0016079125403911205,
0.09740648379052369,0.02908601219338157,
0.09745635910224439,-0.0030619648905025384,
0.09750623441396508,0.004157394174956606,
0.09755610972568579,0.010927935809162891,
0.09760598503740649,0.008694843166627218,
0.09765586034912718,0.010015300954682777,
0.09770573566084788,0.005499095364547045,
0.09775561097256857,-0.013131504114359442,
0.09780548628428928,0.015287907889878641,
0.09785536159600998,-0.0032467047083258793,
0.09790523690773068,-0.0037727701666197596,
0.09795511221945137,0.020191613706663634,
0.09800498753117207,-0.006645883944099054,
0.09805486284289276,-0.012516147807670875,
0.09810473815461347,0.0011575057690386059,
0.09815461346633417,0.004095410780357089,
0.09820448877805486,0.02773446545457836,
0.09825436408977556,0.017354231641763605,
0.09830423940149625,0.017513111064432027,
0.09835411471321696,-0.002569559992543692,
0.09840399002493766,-0.003947393523983125,
0.09845386533665836,-0.0006955906080400587,
0.09850374064837905,-0.0021125249318374034,
0.09855361596009975,0.01943811606860814,
0.09860349127182044,0.012852988577549154,
0.09865336658354115,0.016990938567232543,
0.09870324189526185,0.02174528629525144,
0.09875311720698254,0.01007765475547865,
0.09880299251870324,0.02768776055793328,
0.09885286783042393,0.010040153926349335,
0.09890274314214464,0.021628304948561695,
0.09895261845386534,0.004988853169396819,
0.09900249376558604,-0.018128424885295702,
0.09905236907730673,0.0004901927381693073,
0.09910224438902743,0.00936160345474573,
0.09915211970074812,-0.004688150460590481,
0.09920199501246883,-0.01595469619717657,
0.09925187032418953,0.04180976001983347,
0.09930174563591022,0.017988002698577664,
0.09935162094763092,0.015444561454317505,
0.09940149625935162,0.012108245243401988,
0.09945137157107233,0.04597328957695293,
0.09950124688279302,-5.1733710023531276e-05,
0.09955112219451372,0.015450394276107029,
0.09960099750623441,0.018946416614905415,
0.09965087281795511,0.0019525660189292464,
0.0997007481296758,-0.02126964123801807,
0.09975062344139651,0.039763990245845156,
0.09980049875311721,0.02319314164826086,
0.0998503740648379,0.02928419144256889,
0.0999002493765586,0.008997476656799366,
0.0999501246882793,0.0028057085702727583,
0.1,0.02993555856571619,
0.1000498753117207,-0.013282377519416206,
0.1000997506234414,0.02252209374036399,
0.10014962593516209,0.048123028543898674,
0.10019950124688279,0.04679033420304286,
0.1002493765586035,0.037983870144813,
0.1002992518703242,0.018155667353480478,
0.10034912718204489,0.027391173230644605,
0.10039900249376559,0.01626052950804492,
0.10044887780548628,0.019563341308152384,
0.10049875311720698,-0.00428654813828417,
0.10054862842892769,0.04223350805944119,
0.10059850374064838,0.0037783064051233606,
0.10064837905236908,0.02727243821898125,
0.10069825436408977,0.02189436332954318,
0.10074812967581047,0.027473531733831217,
0.10079800498753118,0.04781470639510739,
0.10084788029925187,0.017425090414075788,
0.10089775561097257,0.012815345432429856,
0.10094763092269327,0.015357450695615216,
0.10099750623441396,0.009701021168927635,
0.10104738154613466,0.05026111954294456,
0.10109725685785537,0.03340135011159368,
0.10114713216957606,0.04090819466276066,
0.10119700748129676,0.02015818982978769,
0.10124688279301745,0.049035900239412525,
0.10129675810473815,0.030879327878601894,
0.10134663341645886,0.007237889309615959,
0.10139650872817955,0.012091189338232642,
0.10144638403990025,0.029028081486867266,
0.10149625935162095,0.034433240490023914,
0.10154613466334164,0.030109848691099537,
0.10159600997506234,0.03451072147062298,
0.10164588528678305,0.0018612902970707168,
0.10169576059850374,0.023615106728473473,
0.10174563591022444,0.036181454214546466,
0.10179551122194513,0.043365878277126124,
0.10184538653366583,0.03143776860056003,
0.10189526184538654,-0.007056439687394705,
0.10194513715710724,0.03576420615879431,
0.10199501246882793,0.01417391128004342,
0.10204488778054863,0.01457887261998599,
0.10209476309226932,0.03577807160157573,
0.10214463840399003,0.028749241198184797,
0.10219451371571073,0.030524107762011518,
0.10224438902743142,0.00122401168776895,
0.10229426433915212,0.03873422675494033,
0.10234413965087281,0.028499060332230538,
0.10239401496259351,-0.0030674318292373756,
0.10244389027431422,0.03259016363036939,
0.10249376558603492,0.03759309342934371,
0.10254364089775561,0.04572134507323519,
0.10259351620947631,-0.013967307212724225,
0.102643391521197,0.023399425621008732,
0.10269326683291771,0.0057192109181226705,
0.10274314214463841,0.04877625662588453,
0.1027930174563591,0.01157285871380511,
0.1028428927680798,0.00835891391127324,
0.1028927680798005,0.028335455408841477,
0.10294264339152119,0.05366656521976042,
0.1029925187032419,0.0020133708174308283,
0.1030423940149626,0.01950363747301554,
0.10309226932668329,0.023620540697354135,
0.10314214463840399,0.04716177768771514,
0.10319201995012468,0.01524382967602716,
0.10324189526184539,0.04217035879548822,
0.10329177057356609,0.02611012672748204,
0.10334164588528678,0.03562706497479086,
0.10339152119700748,0.017607455222392137,
0.10344139650872818,0.03770395384289875,
0.10349127182044887,0.03647840180279189,
0.10354114713216958,0.05127910112078417,
0.10359102244389028,0.01607225647314256,
0.10364089775561097,0.04832862644898066,
0.10369077306733167,0.01700185983402995,
0.10374064837905236,0.03242529705785589,
0.10379052369077307,0.02876645055500113,
0.10384039900249377,0.04486481993079828,
0.10389027431421446,-0.0006307910680915449,
0.10394014962593516,0.03256785150898339,
0.10399002493765586,0.027320690122169224,
0.10403990024937655,0.01846851509260998,
0.10408977556109726,0.04670910134651853,
0.10413965087281796,0.03293913564934064,
0.10418952618453865,0.04048190965573003,
0.10423940149625935,0.0354313036140727,
0.10428927680798004,0.01750321402835551,
0.10433915211970075,0.049864810871545456,
0.10438902743142145,0.03234651859764507,
0.10443890274314215,0.03436878157961598,
0.10448877805486284,0.020277240667583254,
0.10453865336658354,0.04027984654020395,
0.10458852867830425,0.03956041208879854,
0.10463840399002494,0.021943101432782396,
0.10468827930174564,0.013901306333876678,
0.10473815461346633,0.02202304885662778,
0.10478802992518703,0.042507465052410334,
0.10483790523690772,0.04261586173709382,
0.10488778054862843,0.03531669164006126,
0.10493765586034913,0.03613642301745332,
0.10498753117206983,0.007604912365812844,
0.10503740648379052,0.0037711189383170633,
0.10508728179551122,0.016328595506715067,
0.10513715710723193,0.02019648672445245,
0.10518703241895262,0.030788575066712558,
0.10523690773067332,0.011919847608953569,
0.10528678304239401,0.027793632102950716,
0.10533665835411471,0.027819898199178135,
0.1053865336658354,0.04476218942389874,
0.10543640897755611,0.01872779790114841,
0.10548628428927681,0.025260734419657857,
0.1055361596009975,0.028927651037099582,
0.1055860349127182,0.013611120997856873,
0.1056359102244389,0.029114376209712974,
0.10568578553615961,0.022986860876765162,
0.1057356608478803,0.01104412387772219,
0.105785536159601,0.025801275530171454,
0.1058354114713217,0.010945866650566542,
0.10588528678304239,0.01712898948996925,
0.10593516209476309,0.014618317362237475,
0.1059850374064838,0.011859482386444081,
0.10603491271820449,-0.0017109267266995007,
0.10608478802992519,0.009493090776593612,
0.10613466334164588,-0.013948533995188216,
0.10618453865336658,0.01053930309084183,
0.10623441396508729,0.0655308202432846,
0.10628428927680798,0.045034313234019116,
0.10633416458852868,0.013741613980706596,
0.10638403990024937,0.02578290075503824,
0.10643391521197007,0.017527499492067455,
0.10648379052369077,0.027531087096825044,
0.10653366583541148,0.03160597041371996,
0.10658354114713217,0.012942881493221455,
0.10663341645885287,0.011531948193676457,
0.10668329177057356,0.02800147482536015,
0.10673316708229426,0.0012769570961217863,
0.10678304239401497,0.008675924034787771,
0.10683291770573566,0.031008306710604307,
0.10688279301745636,0.022561678217641132,
0.10693266832917706,-0.010110131608324587,
0.10698254364089775,0.025943285347774542,
0.10703241895261846,0.0028515310294105548,
0.10708229426433916,0.010516103574864037,
0.10713216957605985,0.0005317892948571174,
0.10718204488778055,0.019612706184069087,
0.10723192019950124,0.025231657958244613,
0.10728179551122194,0.017428141894491413,
0.10733167082294265,0.012363498563776044,
0.10738154613466334,-0.0005127952071445705,
0.10743142144638404,0.00010529092498791359,
0.10748129675810474,-0.003774023402151142,
0.10753117206982543,0.039674591501634424,
0.10758104738154614,0.01152293024051951,
0.10763092269326684,0.023045821917218698,
0.10768079800498753,0.018200358380000694,
0.10773067331670823,0.012540994300218402,
0.10778054862842892,0.01914673226819895,
0.10783042394014962,0.01503845219476345,
0.10788029925187033,0.030350033329428,
0.10793017456359102,0.013256958516498395,
0.10798004987531172,0.0027263102998608055,
0.10802992518703242,0.008431923841898802,
0.10807980049875311,-0.00031750200272012,
0.10812967581047382,0.012882317008941886,
0.10817955112219452,0.029169129543246995,
0.10822942643391521,-0.005879877809657149,
0.10827930174563591,0.02199208534398909,
0.1083291770573566,0.0036917193914796165,
0.1083790523690773,0.006432401613229764,
0.10842892768079801,0.00853570092616337,
0.1084788029925187,0.01629628810030717,
0.1085286783042394,-0.023740829007701088,
0.1085785536159601,0.015543410997741645,
0.10862842892768079,-0.0189978188070824,
0.1086783042394015,-0.01164973876959739,
0.1087281795511222,-0.026544118431843695,
0.1087780548628429,-0.005484658595924308,
0.10882793017456359,0.00330447240322545,
0.10887780548628428,0.013317701927203636,
0.108927680798005,-0.013992360143499845,
0.10897755610972569,0.005073190258191723,
0.10902743142144639,0.029081250893221926,
0.10907730673316708,0.03490564273390247,
0.10912718204488778,0.005068932301298996,
0.10917705735660847,-0.002396574870138282,
0.10922693266832918,0.017617658299939144,
0.10927680798004988,0.006928091477511015,
0.10932668329177057,0.013023732998190526,
0.10937655860349127,-0.010920724085969441,
0.10942643391521197,0.00837846479749999,
0.10947630922693267,-0.0020807677672617553,
0.10952618453865337,-0.003381045456376756,
0.10957605985037407,-0.018866091605986172,
0.10962593516209476,0.008734870800742409,
0.10967581047381546,0.02284715328187291,
0.10972568578553615,-0.00936751472635332,
0.10977556109725686,-0.009665772004805456,
0.10982543640897756,-0.005167610534087399,
0.10987531172069825,0.01109364397517181,
0.10992518703241895,-0.016835328727896542,
0.10997506234413965,0.02447675389213108,
0.11002493765586036,0.002756552998693284,
0.11007481296758105,-0.03446628279052685,
0.11012468827930175,-0.014988377847287633,
0.11017456359102244,0.0028106559403045135,
0.11022443890274314,-0.006362781255119579,
0.11027431421446383,-0.0012991243418434572,
0.11032418952618454,-0.01723429489022068,
0.11037406483790524,-0.012138536539728729,
0.11042394014962593,-0.001806885556094397,
0.11047381546134663,0.005026204912201413,
0.11052369077306733,-0.024464949203579223,
0.11057356608478804,0.0018922219856108051,
0.11062344139650873,-0.013564649028350218,
0.11067331670822943,0.02344388565280559,
0.11072319201995012,-0.025148147966041944,
0.11077306733167082,-0.020204874599798077,
0.11082294264339151,0.006534998082264598,
0.11087281795511222,-0.04470388177836447,
0.11092269326683292,0.010046390970775138,
0.11097256857855362,-0.019503625081895355,
0.11102244389027431,-0.002637059948356885,
0.111072319201995,-0.01423750591668392,
0.11112219451371572,-0.024971136583970932,
0.11117206982543641,-0.016085545682338595,
0.11122194513715711,-0.003104775635771281,
0.1112718204488778,-0.0018936847117205953,
0.1113216957605985,-0.014983505368090436,
0.11137157107231921,-0.023394980466666493,
0.1114214463840399,-0.006407251004165572,
0.1114713216957606,-0.01687596317000991,
0.1115211970074813,-0.004594724081651918,
0.11157107231920199,0.006130461215333727,
0.11162094763092269,-0.012273044317286489,
0.1116708229426434,-0.03549737371028159,
0.11172069825436409,0.015360154345296364,
0.11177057356608479,-0.010750878327865627,
0.11182044887780548,-0.019951098393190717,
0.11187032418952618,-0.009137273772302843,
0.11192019950124689,-0.0018834515574520615,
0.11197007481296758,-0.039031406031157324,
0.11201995012468828,-0.014819139190271884,
0.11206982543640898,-0.015149838577149202,
0.11211970074812967,0.004237665947976213,
0.11216957605985037,-0.011674331480936835,
0.11221945137157108,-0.00979399138039126,
0.11226932668329177,0.0011680266678418018,
0.11231920199501247,-0.009676362075707982,
0.11236907730673316,-0.018217558946608724,
0.11241895261845386,-0.003877143673111482,
0.11246882793017457,-0.008426091908750351,
0.11251870324189527,-0.01546951748395102,
0.11256857855361596,-0.024195700579723638,
0.11261845386533666,-0.03304136074556079,
0.11266832917705735,-0.011158522535358113,
0.11271820448877805,-0.03295431188867875,
0.11276807980049876,0.006260326921636264,
0.11281795511221945,0.00037940373758564225,
0.11286783042394015,-0.02115990990929699,
0.11291770573566084,0.003407080176169107,
0.11296758104738154,-0.009434600067309003,
0.11301745635910225,-0.01557653883207501,
0.11306733167082295,0.009290285127959512,
0.11311720698254364,-0.031564595394462935,
0.11316708229426434,-0.021423217302573634,
0.11321695760598503,0.0037945373920715095,
0.11326683291770574,-0.004103275206101933,
0.11331670822942644,0.013608931554825182,
0.11336658354114713,0.005301878231787174,
0.11341645885286783,-0.02964510270979282,
0.11346633416458853,-0.011580774588684405,
0.11351620947630922,-0.031411537279142206,
0.11356608478802993,-0.003932856990866444,
0.11361596009975063,0.019328748307406052,
0.11366583541147132,-0.03395889257405659,
0.11371571072319202,-0.0359124034648244,
0.11376558603491271,0.008965726161718228,
0.11381546134663342,-0.02453245958606214,
0.11386533665835412,-0.017120725144570675,
0.11391521197007481,-0.002210521513609608,
0.11396508728179551,0.0018846316269761614,
0.1140149625935162,-0.011523847842909716,
0.1140648379052369,-0.004243959082071813,
0.11411471321695761,-0.004488404657751775,
0.1141645885286783,-0.002453555188696846,
0.114214463840399,0.005999346779306544,
0.1142643391521197,-0.018743384632078343,
0.1143142144638404,-0.03719945780134136,
0.1143640897755611,0.004308978612864733,
0.1144139650872818,-0.001508939081915961,
0.1144638403990025,-0.004029090480111811,
0.11451371571072319,-0.01121211128247893,
0.11456359102244389,0.012219352047588575,
0.11461346633416458,0.0064381429084810655,
0.11466334164588529,-0.014394671070452336,
0.11471321695760599,0.0023138568978802766,
0.11476309226932668,-0.01478435326466582,
0.11481296758104738,-0.02297437052739476,
0.11486284289276807,0.00861347766715459,
0.11491271820448878,-0.009523765865651283,
0.11496259351620948,-0.008007380629246757,
0.11501246882793018,-0.008869146556979873,
0.11506234413965087,0.0033801226371948812,
0.11511221945137157,-0.014172160479640846,
0.11516209476309226,-0.025703505935612186,
0.11521197007481297,-0.013381756047969377,
0.11526184538653367,-0.010063448341631052,
0.11531172069825436,-0.02298866716442021,
0.11536159600997506,0.0007306277699178484,
0.11541147132169575,0.02141804523561338,
0.11546134663341646,-0.008188591377181642,
0.11551122194513716,-0.014872425922218874,
0.11556109725685786,-0.038164633711862135,
0.11561097256857855,-0.015584403129739681,
0.11566084788029925,-0.021045686192783835,
0.11571072319201996,-0.020004100807319045,
0.11576059850374065,-0.00017147334522652543,
0.11581047381546135,-0.021735273181789062,
0.11586034912718204,-0.006876683348042044,
0.11591022443890274,-0.015700406176963815,
0.11596009975062344,0.011506937479703218,
0.11600997506234415,-0.002290158909479699,
0.11605985037406484,-0.020691830386573924,
0.11610972568578554,-0.0012442886715327839,
0.11615960099750623,0.011750062151139716,
0.11620947630922693,0.02012343974377021,
0.11625935162094764,-0.02361998719703397,
0.11630922693266833,-0.009322698645319576,
0.11635910224438903,0.010848880797759029,
0.11640897755610972,0.0005418558519524734,
0.11645885286783042,0.00756761354574138,
0.11650872817955112,0.009580324431970546,
0.11655860349127183,0.022540428240345217,
0.11660847880299252,0.01529687892633591,
0.11665835411471322,-0.023011356398012682,
0.11670822942643391,-0.011454850644458878,
0.11675810473815461,0.008134738631393319,
0.11680798004987532,0.018667489745390384,
0.11685785536159601,-0.036903824732571755,
0.11690773067331671,-0.03673937346673799,
0.1169576059850374,0.0011651396281141537,
0.1170074812967581,-0.0013397590017361002,
0.1170573566084788,0.011292422304535702,
0.1171072319201995,-0.007033716804752166,
0.1171571072319202,0.022599247122689445,
0.1172069825436409,0.013309962823935172,
0.1172568578553616,-0.0035992386285451598,
0.11730673316708229,0.016963690662937066,
0.117356608478803,0.014258315861967494,
0.1174064837905237,-0.01374042229978024,
0.11745635910224439,0.016413758719720634,
0.11750623441396509,0.023663511455673657,
0.11755610972568578,-0.00851511579950111,
0.11760598503740648,0.004019653415300993,
0.11765586034912719,-0.014186537069084855,
0.11770573566084788,0.009145117874877732,
0.11775561097256858,-0.004865744612738072,
0.11780548628428927,0.02522128570106283,
0.11785536159600997,0.004569929172837356,
0.11790523690773068,0.01776050217793144,
0.11795511221945137,0.009516423319772396,
0.11800498753117207,0.006902953979602526,
0.11805486284289277,0.008479411825817821,
0.11810473815461346,-0.011065585329517397,
0.11815461346633417,0.004965965198228385,
0.11820448877805487,0.0008507876089916856,
0.11825436408977556,0.0030745158441450897,
0.11830423940149626,0.04530572575831412,
0.11835411471321695,0.008730226013360185,
0.11840399002493765,0.02821227156553102,
0.11845386533665836,0.009473712901344387,
0.11850374064837906,0.0006523414796010246,
0.11855361596009975,0.005607227509491747,
0.11860349127182045,0.025503353012843323,
0.11865336658354114,-0.007112887556010897,
0.11870324189526185,0.007431516933652117,
0.11875311720698255,0.0027230829006555553,
0.11880299251870324,0.009237163909003223,
0.11885286783042394,0.011939049845958291,
0.11890274314214463,0.020103081701681014,
0.11895261845386533,0.041292412512821286,
0.11900249376558604,0.007600239739644837,
0.11905236907730674,0.02406116022895957,
0.11910224438902743,0.009261786956329357,
0.11915211970074813,0.03207663382021703,
0.11920199501246882,0.04957158800064828,
0.11925187032418953,-0.0004171728286473768,
0.11930174563591023,0.009870983930460372,
0.11935162094763092,0.026554117934953013,
0.11940149625935162,0.03014714918925429,
0.11945137157107232,0.0071615501582005855,
0.11950124688279301,0.030286644034288143,
0.11955112219451372,0.01118183158186222,
0.11960099750623442,0.013414446203937747,
0.11965087281795511,0.008096600083634328,
0.11970074812967581,0.01170909106794794,
0.1197506234413965,0.013706612009740743,
0.11980049875311721,0.032791860858628674,
0.11985037406483791,0.008294982467848213,
0.1199002493765586,0.012111806148662033,
0.1199501246882793,0.036520437049554835,
0.12,0.016633459476047392,
0.1200498753117207,0.029757706990016133,
0.1200997506234414,0.015922416746123904,
0.1201496259351621,0.025476430492535194,
0.12019950124688279,0.023841532142202027,
0.12024937655860349,0.021651252369098106,
0.12029925187032418,0.02817759425068361,
0.1203491271820449,0.004559342502821674,
0.12039900249376559,0.03153817805844032,
0.12044887780548628,0.030687547386429478,
0.12049875311720698,0.02566096449135135,
0.12054862842892768,0.014260510613016742,
0.12059850374064839,0.0325771448303462,
0.12064837905236908,0.020988472489182473,
0.12069825436408978,0.028013348027115338,
0.12074812967581047,0.04744691325358118,
0.12079800498753117,0.025386136984820586,
0.12084788029925186,0.032231313862030195,
0.12089775561097257,0.030400599668594385,
0.12094763092269327,0.010155599597529916,
0.12099750623441397,0.001854621875961228,
0.12104738154613466,0.001661999898764404,
0.12109725685785536,0.004734824276814157,
0.12114713216957607,0.06329097067826886,
0.12119700748129676,0.024524426042413696,
0.12124688279301746,0.03200024289127558,
0.12129675810473815,0.06473916452112696,
0.12134663341645885,0.004689704421882445,
0.12139650872817954,0.034763102011265805,
0.12144638403990025,0.020663248563790773,
0.12149625935162095,0.014448697697698418,
0.12154613466334165,0.028905059339413498,
0.12159600997506234,0.015484140085999652,
0.12164588528678304,0.00394167760309096,
0.12169576059850375,0.04706985706261821,
0.12174563591022444,0.010550284545310075,
0.12179551122194514,0.013731786604992564,
0.12184538653366583,0.0080374573641597,
0.12189526184538653,0.018897886855259394,
0.12194513715710723,0.008216710350746326,
0.12199501246882793,0.02151671124856218,
0.12204488778054863,0.04253922926597377,
0.12209476309226933,0.035428180850607296,
0.12214463840399002,0.029618845058523812,
0.12219451371571072,0.04476146518044237,
0.12224438902743143,-0.002141999038773112,
0.12229426433915212,0.03333016610987979,
0.12234413965087282,0.056082003759926995,
0.12239401496259351,0.045309487607280555,
0.12244389027431421,0.005334017863540503,
0.12249376558603492,0.037318962717625886,
0.12254364089775562,0.01008989319954794,
0.12259351620947631,0.025832060912631315,
0.122643391521197,0.047816037490611876,
0.1226932668329177,0.02814128210171643,
0.1227431421446384,0.032868793971697945,
0.12279301745635911,0.03185529593541696,
0.1228428927680798,0.013094596984399066,
0.1228927680798005,0.04251719154434432,
0.1229426433915212,0.038958812832695214,
0.12299251870324189,0.043146769057597394,
0.1230423940149626,0.024864920602457118,
0.1230922693266833,0.0363480099366737,
0.12314214463840399,-0.0021921129225039512,
0.12319201995012469,0.03631699711704252,
0.12324189526184538,0.02253214581077989,
0.12329177057356608,0.016320106717065415,
0.12334164588528679,0.03398741120388547,
0.12339152119700748,0.017236196311475112,
0.12344139650872818,0.05609961822682458,
0.12349127182044888,0.04272342533718439,
0.12354114713216957,0.02747556619462021,
0.12359102244389028,0.0106413277066453,
0.12364089775561098,0.01395802703723375,
0.12369077306733167,0.0433860847812426,
0.12374064837905237,0.04435116099977057,
0.12379052369077306,0.02030718607952329,
0.12384039900249376,0.038078309372094624,
0.12389027431421447,0.04552373947173953,
0.12394014962593516,0.01751619010021866,
0.12399002493765586,0.03515125283947332,
0.12403990024937656,0.05378813621896008,
0.12408977556109725,0.021067521411806702,
0.12413965087281796,0.001181149413519749,
0.12418952618453866,0.030163021185502924,
0.12423940149625935,0.016236027396085477,
0.12428927680798005,0.035887741899176144,
0.12433915211970074,0.044555341903456745,
0.12438902743142144,0.03102089935411601,
0.12443890274314215,0.04557470166779336,
0.12448877805486284,0.0031906422603169005,
0.12453865336658354,0.012263325365505322,
0.12458852867830424,0.015743212257815834,
0.12463840399002493,0.012958017463859776,
0.12468827930174564,0.033422122567295806,
0.12473815461346634,0.008988682762394406,
0.12478802992518703,0.013417696869030526,
0.12483790523690773,0.028006784330490683,
0.12488778054862842,0.034318714956581724,
0.12493765586034913,0.02576704841949919,
0.12498753117206983,0.02855137481749822,
0.12503740648379053,0.012521985691368998,
0.12508728179551123,0.014609083205548361,
0.12513715710723192,0.0069797919476103434,
0.12518703241895263,0.025052685661011584,
0.1252369077306733,0.013509713670196724,
0.12528678304239402,0.04541980848058985,
0.1253366583541147,0.01737046848610034,
0.1253865336658354,0.010788444845346181,
0.12543640897755612,0.032336301867045135,
0.1254862842892768,0.04543506206653959,
0.1255361596009975,0.02902078206657916,
0.1255860349127182,0.02136197875919451,
0.1256359102244389,0.04738732124548514,
0.1256857855361596,0.03461090081230694,
0.1257356608478803,0.030247213565319973,
0.125785536159601,5.6769300335504647e-05,
0.12583541147132168,0.024893456261961138,
0.1258852867830424,0.009566475433660444,
0.1259351620947631,0.007211050522220557,
0.12598503740648379,0.03799621317797181,
0.1260349127182045,-0.0007617651509640166,
0.12608478802992518,0.01118426248681579,
0.1261346633416459,0.02026213917284408,
0.1261845386533666,0.0218523735186914,
0.12623441396508728,0.018067516854597107,
0.126284289276808,0.020723403576265783,
0.12633416458852867,0.021680328977897855,
0.12638403990024938,0.016551126694929915,
0.1264339152119701,0.025122124481847707,
0.12648379052369077,0.011350503269526836,
0.12653366583541148,0.016831998711024553,
0.12658354114713216,0.014467787197100911,
0.12663341645885287,-0.002347605152133579,
0.12668329177057355,0.021879265933582463,
0.12673316708229426,0.0016477153927815444,
0.12678304239401497,0.04460686883891585,
0.12683291770573565,0.018999549963740998,
0.12688279301745636,0.007565965060562226,
0.12693266832917705,0.014967813041745498,
0.12698254364089775,0.017153009067187548,
0.12703241895261846,0.035771203736689294,
0.12708229426433915,0.014859333052216313,
0.12713216957605986,0.0228842909794994,
0.12718204488778054,0.017737998414778213,
0.12723192019950125,0.02015794959937931,
0.12728179551122196,0.04351820149915009,
0.12733167082294264,0.010123139030938578,
0.12738154613466335,0.00597992178022793,
0.12743142144638403,0.010444339237087612,
0.12748129675810474,0.010122372876451458,
0.12753117206982545,0.007962012953536293,
0.12758104738154613,0.013366034783318948,
0.12763092269326684,-0.0016476673860965716,
0.12768079800498752,-0.0002552350078041214,
0.12773067331670823,0.02328671772406808,
0.1277805486284289,-0.015602491318943555,
0.12783042394014962,-0.002455029476799951,
0.12788029925187033,0.060231125937099284,
0.12793017456359101,0.000421768950541258,
0.12798004987531172,-0.014180986256924056,
0.1280299251870324,0.019109343378700135,
0.12807980049875312,-0.004807361653504243,
0.12812967581047383,0.008942509641979486,
0.1281795511221945,-0.006067833784605762,
0.12822942643391522,0.009660363333668738,
0.1282793017456359,-0.006375874275545939,
0.1283291770573566,-0.003081872682919337,
0.12837905236907732,0.029487243511732028,
0.128428927680798,-0.011057657750755102,
0.1284788029925187,-0.024862693873680324,
0.1285286783042394,0.0023840262482137534,
0.1285785536159601,0.011692302174296036,
0.1286284289276808,0.03941005346986434,
0.1286783042394015,0.011053591986092827,
0.1287281795511222,0.0006175229158677875,
0.12877805486284288,-0.006827157423309129,
0.1288279301745636,-0.00012256104242841254,
0.1288778054862843,-0.009510457278977813,
0.12892768079800498,-0.012674294459044121,
0.1289775561097257,0.00033039864314037513,
0.12902743142144638,-0.018483930813604273,
0.12907730673316709,0.053721699626897296,
0.12912718204488777,0.008955253123833651,
0.12917705735660848,-0.0034671268926426083,
0.1292269326683292,0.0007548537188992754,
0.12927680798004987,0.008691211295256728,
0.12932668329177058,-0.0007849453339499727,
0.12937655860349126,-0.03218497538635786,
0.12942643391521197,0.017799533453927586,
0.12947630922693268,0.018699412345630283,
0.12952618453865336,0.03077854282549461,
0.12957605985037407,0.0189300308195644,
0.12962593516209475,-0.012285939720814768,
0.12967581047381546,0.0030836547547219186,
0.12972568578553617,-0.012318212674161624,
0.12977556109725685,-0.007721165270394077,
0.12982543640897756,0.001910204576872287,
0.12987531172069824,-0.009072667297628513,
0.12992518703241895,-0.012867385994904314,
0.12997506234413966,-0.00537503547830012,
0.13002493765586035,-0.00030257251739055214,
0.13007481296758105,-0.033998819779514,
0.13012468827930174,0.023182903275848987,
0.13017456359102245,-0.00784680440274635,
0.13022443890274316,0.013391371647234302,
0.13027431421446384,-0.03106632261686575,
0.13032418952618455,0.008327056385301266,
0.13037406483790523,-0.03232324785727302,
0.13042394014962594,-0.008362443320689285,
0.13047381546134662,0.02077689237173764,
0.13052369077306733,0.020513097258411776,
0.13057356608478804,-0.05481023179739833,
0.13062344139650872,-0.003925092443132962,
0.13067331670822943,-0.02678131699240291,
0.1307231920199501,-0.011287877822561122,
0.13077306733167082,-0.019558232801282667,
0.13082294264339153,-0.005074367532791759,
0.13087281795511221,-0.01991771723451366,
0.13092269326683292,0.010212177751536796,
0.1309725685785536,-0.016069136839168434,
0.13102244389027431,-0.013526685360859683,
0.13107231920199502,-0.048042269074914254,
0.1311221945137157,-0.020138335072086025,
0.13117206982543642,-0.012641838237325644,
0.1312219451371571,0.00205345672728649,
0.1312718204488778,-0.00977947081331381,
0.13132169576059852,0.018949043707712408,
0.1313715710723192,-0.021007030518516795,
0.1314214463840399,0.00655464903956041,
0.1314713216957606,0.009750478186658211,
0.1315211970074813,-0.0062545177902451465,
0.13157107231920198,-0.026941779694004665,
0.1316209476309227,-0.005828492148422727,
0.1316708229426434,-0.031041651817803717,
0.13172069825436408,-0.028821230549128843,
0.1317705735660848,-0.0032494587459299057,
0.13182044887780547,-0.01650685534879149,
0.13187032418952618,-0.027418659381857585,
0.1319201995012469,-0.009486453094443572,
0.13197007481296757,-0.003964211016898565,
0.13201995012468828,0.01509660984250721,
0.13206982543640897,-0.023800648351987475,
0.13211970074812968,-0.011198625162325613,
0.13216957605985039,0.007395643507987458,
0.13221945137157107,-0.013905602129932484,
0.13226932668329178,-0.01525725013056492,
0.13231920199501246,-0.012145680712761155,
0.13236907730673317,-0.01678340436755832,
0.13241895261845388,-0.012474475827985795,
0.13246882793017456,-0.0214035179536744,
0.13251870324189527,0.006886206708686147,
0.13256857855361595,-0.02113307116919569,
0.13261845386533666,-0.008646768748709678,
0.13266832917705737,0.0010707256415737106,
0.13271820448877805,-0.015253300103587381,
0.13276807980049876,-0.01566525574938877,
0.13281795511221944,-0.015036933731685714,
0.13286783042394015,-0.023283989918137595,
0.13291770573566083,-0.009657722986896447,
0.13296758104738154,-0.007620848381160627,
0.13301745635910225,-0.01891328142631117,
0.13306733167082294,-0.01835886481657613,
0.13311720698254365,0.01282768275201517,
0.13316708229426433,-0.006949824694038227,
0.13321695760598504,0.0051889089193387795,
0.13326683291770575,-0.001892665946417696,
0.13331670822942643,0.0018197738214776066,
0.13336658354114714,-0.0035660551361298707,
0.13341645885286782,0.006065791461253417,
0.13346633416458853,0.008420061078308342,
0.13351620947630924,-0.04383309973922674,
0.13356608478802992,0.011520180527390116,
0.13361596009975063,-0.027479340896420762,
0.1336658354114713,0.010275576499092758,
0.13371571072319202,-0.024824588745817642,
0.13376558603491273,-0.014469888931497345,
0.1338154613466334,0.008768597711690992,
0.13386533665835412,0.0041000024985670454,
0.1339152119700748,-0.04005595930018001,
0.13396508728179551,-0.0007105974640959686,
0.1340149625935162,-0.027180646231418904,
0.1340648379052369,-0.00343250815962261,
0.13411471321695762,-0.0007879960454387266,
0.1341645885286783,0.0005438067219976448,
0.134214463840399,0.019279021261082427,
0.1342643391521197,-0.0009767218823210659,
0.1343142144638404,0.005360707533957183,
0.1343640897755611,0.004052075117654945,
0.1344139650872818,0.0018011320974062172,
0.1344638403990025,-0.010204452006352907,
0.13451371571072318,0.0033025627100707385,
0.1345635910224439,-0.002349731256782706,
0.1346134663341646,-0.0016732991710871033,
0.13466334164588528,0.0002199620876462277,
0.134713216957606,0.0132618191899284,
0.13476309226932667,-0.0316367287562745,
0.13481296758104738,-0.004032942681014702,
0.1348628428927681,-0.0047220628306859835,
0.13491271820448877,0.015010482830134968,
0.13496259351620948,-0.031739693094938695,
0.13501246882793017,0.006633303062147468,
0.13506234413965088,0.004907797671142159,
0.13511221945137158,-0.007900741909521114,
0.13516209476309227,-0.014087095410632694,
0.13521197007481298,0.0004200643307093223,
0.13526184538653366,-0.022043549755848508,
0.13531172069825437,-0.01811584047420329,
0.13536159600997505,-0.03203813783528734,
0.13541147132169576,-0.006683513703015292,
0.13546134663341647,-0.016680157878513936,
0.13551122194513715,-0.012881309316226183,
0.13556109725685786,0.035242424005942914,
0.13561097256857854,-0.011525203042235803,
0.13566084788029925,-0.015305470260344822,
0.13571072319201996,0.005396683358450491,
0.13576059850374064,-0.01564487690874114,
0.13581047381546135,-0.03167205425038373,
0.13586034912718203,-0.033953841934393506,
0.13591022443890274,0.02651740679545503,
0.13596009975062345,-0.024261521124803193,
0.13600997506234414,-0.0025301750839620443,
0.13605985037406484,-0.007270531500369252,
0.13610972568578553,-0.01738680325334116,
0.13615960099750624,-0.022251134384388232,
0.13620947630922695,0.00846987259444499,
0.13625935162094763,-0.02393018759653534,
0.13630922693266834,-0.010991311921813523,
0.13635910224438902,0.0011004124506098234,
0.13640897755610973,0.016811091267143516,
0.1364588528678304,-0.010684838346936561,
0.13650872817955112,-0.008666982726208099,
0.13655860349127183,-0.007341649419196353,
0.1366084788029925,0.004867620491225427,
0.13665835411471322,0.016399599961858857,
0.1367082294264339,-0.01968531841902866,
0.1367581047381546,0.013556927169880615,
0.13680798004987532,-0.01305593459350003,
0.136857855361596,0.02173111981996264,
0.1369077306733167,0.01593268432899752,
0.1369576059850374,-0.007998173548460438,
0.1370074812967581,0.02649810302423179,
0.13705735660847881,0.01017247152913953,
0.1371072319201995,0.031422669426844865,
0.1371571072319202,0.04113157577402949,
0.1372069825436409,0.004611714913052365,
0.1372568578553616,0.016227870673961847,
0.1373067331670823,0.010296285174486573,
0.137356608478803,0.002927863917530462,
0.1374064837905237,-0.009246639892919909,
0.13745635910224438,0.005145705235187851,
0.1375062344139651,0.03246020785149696,
0.1375561097256858,0.0324811590755499,
0.13760598503740648,-0.0030607276812059953,
0.1376558603491272,0.009603426874709477,
0.13770573566084787,-0.014851264653673316,
0.13775561097256858,0.011686151043019653,
0.13780548628428926,0.010390874339973875,
0.13785536159600997,0.0006007698448733997,
0.13790523690773068,-0.007656877718414293,
0.13795511221945136,0.020606231652361064,
0.13800498753117207,0.0340321562040046,
0.13805486284289276,0.01600050516236501,
0.13810473815461347,-0.010234268443998879,
0.13815461346633418,0.02613429604419209,
0.13820448877805486,0.021074309226011837,
0.13825436408977557,-0.0013149079064756885,
0.13830423940149625,0.0077286818056034315,
0.13835411471321696,0.00788636385470555,
0.13840399002493767,0.0174383805048584,
0.13845386533665835,0.014730643960177309,
0.13850374064837906,0.02141862511070718,
0.13855361596009974,0.026006454072053993,
0.13860349127182045,0.00010438567413435275,
0.13865336658354116,0.005506284154427544,
0.13870324189526184,-0.025210156874044484,
0.13875311720698255,0.00939080641871844,
0.13880299251870323,0.011645922098280793,
0.13885286783042394,0.011770893036143053,
0.13890274314214462,-0.011188228542837225,
0.13895261845386533,0.020931474159606306,
0.13900249376558604,0.025135463100213085,
0.13905236907730673,0.01431577273667978,
0.13910224438902744,-0.00623352371581579,
0.13915211970074812,0.028813559910645086,
0.13920199501246883,0.00926255370215785,
0.13925187032418954,-0.0004034561517764629,
0.13930174563591022,-0.0017261496821555575,
0.13935162094763093,0.03430596047562727,
0.1394014962593516,0.008748673550530698,
0.13945137157107232,0.020269592207024335,
0.13950124688279303,0.039166275134404335,
0.1395511221945137,0.028189136229726644,
0.13960099750623442,0.001261435977858237,
0.1396508728179551,0.011037427552683894,
0.1397007481296758,0.003210853420629281,
0.13975062344139652,0.024512585547042446,
0.1398004987531172,0.019711703872471068,
0.1398503740648379,0.0039807817241006085,
0.1399002493765586,0.01457328914462927,
0.1399501246882793,0.018319371943441486,
0.14,0.04110854835159611,
0.1400498753117207,0.034131730038559856,
0.1400997506234414,0.045554771482436855,
0.1401496259351621,0.015970293120032578,
0.1401995012468828,0.049569138314376655,
0.14024937655860348,0.005675559026601523,
0.1402992518703242,0.011943191609075329,
0.1403491271820449,0.04160198711885482,
0.14039900249376558,0.015512818984922327,
0.1404488778054863,0.03802137688509062,
0.14049875311720697,0.03243919664717207,
0.14054862842892768,0.017985996464039526,
0.1405985037406484,0.015534971183105073,
0.14064837905236907,0.036798114733145024,
0.14069825436408978,0.011182430783903519,
0.14074812967581046,0.009709870554990658,
0.14079800498753117,0.03202835319338835,
0.14084788029925188,0.034543820753953625,
0.14089775561097256,0.03728976662395482,
0.14094763092269327,0.039328551154066714,
0.14099750623441396,0.052570132371091975,
0.14104738154613466,0.01186540093585437,
0.14109725685785537,0.020022070308509873,
0.14114713216957606,0.04150445650002304,
0.14119700748129677,0.03194863633976774,
0.14124688279301745,0.031542032579591775,
0.14129675810473816,0.03640698933352326,
0.14134663341645887,0.04840275711170093,
0.14139650872817955,0.00952522297226142,
