time,amplitude,label
0.0,-0.0017366134248674885,
4.987531172069826e-05,-0.0006148424272866726,
9.975062344139652e-05,0.018409719047277683,
0.00014962593516209475,-0.035411684076266006,
0.00019950124688279303,0.01795530389344751,
0.00024937655860349125,-0.0027331906707569933,
0.0002992518703241895,0.0010733948277691853,
0.00034912718204488776,0.012076392266870229,
0.00039900249376558606,-0.006111746864464806,
0.0004488778054862843,0.032967366193800904,
0.0004987531172069825,0.008998049302003756,
0.0005486284289276808,-0.01954077355221851,
0.000598503740648379,-0.009655132330210151,
0.0006483790523690773,0.0187390021945948,
0.0006982543640897755,-0.019410123900508176,
0.0007481296758104738,-0.012279453850660399,
0.0007980049875311721,-0.010070017368372047,
0.0008478802992518703,-0.0015596051450344805,
0.0008977556109725686,0.0050992715685814925,
0.0009476309226932668,0.0022585120483677697,
0.000997506234413965,0.021046392060062633,
0.0010473815461346633,-0.004838618660604584,
0.0010972568578553616,0.0016343661963430529,
0.00114713216957606,0.002483448723373364,
0.001197007481296758,0.007107856873642444,
0.0012468827930174563,-0.002676760568838351,
0.0012967581047381546,0.0011803544282934248,
0.001346633416458853,0.04192755984634233,
0.001396508728179551,-0.004853671838741797,
0.0014463840399002493,-0.01645494882458956,
0.0014962593516209476,0.01756220842266249,
0.001546134663341646,-0.027002622627225872,
0.0015960099750623442,-0.017298492137220397,
0.0016458852867830423,-0.027269139326750923,
0.0016957605985037406,-0.019200819059504493,
0.001745635910224439,-0.028405831353263508,
0.0017955112219451373,-0.021662477391057228,
0.0018453865336658353,0.011065236511887738,
0.0018952618453865336,-0.01641563904695842,
0.001945137157107232,-0.004576913830413342,
0.00199501246882793,-0.02576445661224798,
0.0020448877805486283,-0.020838902567973834,
0.0020947630922693266,-0.016922301601675425,
0.002144638403990025,-0.012414859888428074,
0.0021945137157107233,-0.026653050278569762,
0.0022443890274314216,-0.008465027037643222,
0.00229426433915212,-0.026267592516109405,
0.0023441396508728177,0.005941398741230824,
0.002394014962593516,-0.039224701292090214,
0.0024438902743142144,-0.025298010050562092,
0.0024937655860349127,-0.031212174285401198,
0.002543640897755611,-0.0044240504637446335,
0.0025935162094763093,-0.01854171564529401,
0.0026433915211970076,7.314142003777072e-05,
0.002693266832917706,-0.0011053153916118236,
0.002743142144638404,-0.028697234770336304,
0.002793017456359102,0.000144065376905457,
0.0028428927680798004,-0.0431596752208991,
0.0028927680798004987,0.005026904776353147,
0.002942643391521197,-0.03733225415388457,
0.0029925187032418953,0.014876843574041457,
0.0030423940149625936,-0.04225457374863577,
0.003092269326683292,-0.0027849317007144093,
0.00314214463840399,-0.011710849979705389,
0.0031920199501246885,-0.028144841529989785,
0.0032418952618453864,0.018736691054166164,
0.0032917705735660847,-0.006769202592048957,
0.003341645885286783,-0.006619995634327594,
0.0033915211970074813,-0.03678779134407067,
0.0034413965087281796,-0.03985282805390347,
0.003491271820448878,-0.04549105614800723,
0.003541147132169576,0.015363000853186242,
0.0035910224438902745,-0.042270405751106827,
0.0036408977556109724,-0.002532187262052177,
0.0036907730673316707,-0.037741333571740185,
0.003740648379052369,-0.03449494278163193,
0.0037905236907730673,-0.024646418176117783,
0.0038403990024937656,-0.04150432167668621,
0.003890274314214464,-0.028635974961560177,
0.003940149625935162,0.007490875894081414,
0.00399002493765586,-0.00833361987313725,
0.004039900249376558,-0.03140089772812994,
0.004089775561097257,-0.05023258754414525,
0.004139650872817955,-0.030118144528698446,
0.004189526184538653,-0.02772916812751476,
0.004239401496259352,-0.020303244050046975,
0.00428927680798005,-0.029396943372339834,
0.004339152119700748,-0.0195201655273487,
0.0043890274314214465,-0.009791838617707367,
0.004438902743142145,-0.04296730691820453,
0.004488778054862843,-0.008443754838531643,
0.004538653366583541,-0.020176994504656404,
0.00458852867830424,0.0033632142957934,
0.004638403990024938,-0.017947977884938966,
0.0046882793017456355,-0.040872919084139994,
0.004738154613466334,0.009233317943958128,
0.004788029925187032,-0.010522478388520915,
0.00483790523690773,0.003289694044926704,
0.004887780548628429,-0.023658686397294397,
0.004937655860349127,-0.008244721705037145,
0.004987531172069825,-0.014460484825072124,
0.005037406483790524,0.021198441680070262,
0.005087281795511222,-0.0021522922266786863,
0.00513715710723192,-0.007742936373596,
0.0051870324189526185,-0.047435423324742085,
0.005236907730673317,-0.04312442923339772,
0.005286783042394015,-0.026974608828988514,
0.0053366583541147134,-0.022591715651864318,
0.005386533665835412,-0.030630152725846564,
0.00543640897755611,-0.006812020411803916,
0.005486284289276808,-0.0063579018092476645,
0.005536159600997507,-0.016228268911695893,
0.005586034912718204,-0.011472752084466391,
0.005635910224438902,-0.05556386093783007,
0.005685785536159601,0.009305561013800485,
0.005735660847880299,-0.04383116271755304,
0.005785536159600997,0.005071425942085962,
0.005835411471321696,-0.008254023554826092,
0.005885286783042394,-0.00815457309789919,
0.005935162094763092,-0.039565819842318606,
0.0059850374064837905,0.00044587602509025756,
0.006034912718204489,0.007310368798484051,
0.006084788029925187,-0.007168046783552361,
0.0061346633416458855,-0.00815995132711906,
0.006184538653366584,-0.013990960231002523,
0.006234413965087282,-0.03564749814515181,
0.00628428927680798,-0.026535835444335673,
0.006334164588528679,-0.00717848622264756,
0.006384039900249377,-0.034459751914909575,
0.006433915211970074,-0.02288485298659511,
0.006483790523690773,-0.025326250989183688,
0.006533665835411471,-0.01954703031756748,
0.006583541147132169,-0.012483256196032542,
0.006633416458852868,-0.019133544603514005,
0.006683291770573566,-0.0013510174645275722,
0.006733167082294264,-0.02693739550724676,
0.0067830423940149626,-0.012907707230321737,
0.006832917705735661,-0.010224413324521101,
0.006882793017456359,0.017015207635459335,
0.0069326683291770575,0.0034662231704599665,
0.006982543640897756,-0.002346824888434268,
0.007032418952618454,-0.011216379122772747,
0.007082294264339152,-0.028932463830868206,
0.007132169576059851,-0.023374973668613984,
0.007182044887780549,-0.03315906864224943,
0.007231920199501247,-0.0199222758642953,
0.007281795511221945,-0.011006965318638172,
0.007331670822942643,-0.015607882183947956,
0.007381546134663341,-0.008454729744868331,
0.00743142144638404,-0.007494831859238364,
0.007481296758104738,0.005125362249656838,
0.007531172069825436,0.0013903832853141354,
0.007581047381546135,0.017462513104161248,
0.007630922693266833,-0.03414854355162476,
0.007680798004987531,0.009697664676621351,
0.0077306733167082295,-0.030468648397376057,
0.007780548628428928,-0.024106476141079115,
0.007830423940149626,-0.02080422041770784,
0.007880299251870324,0.00043040646793836464,
0.007930174563591023,-0.008888930406737989,
0.00798004987531172,-0.028309604044579585,
0.00802992518703242,-0.010962010161453026,
0.008079800498753117,-0.02612266365706918,
0.008129675810473816,-0.01120472767116227,
0.008179551122194513,-0.024832798127440468,
0.008229426433915213,-0.02249781933519384,
0.00827930174563591,-0.00965956378700302,
0.00832917705735661,-0.006136379310848012,
0.008379052369077307,-0.028422327814311213,
0.008428927680798006,-0.03749016541640738,
0.008478802992518703,-0.007354354769187978,
0.0085286783042394,-0.015551031241686553,
0.0085785536159601,-0.01705920059240924,
0.008628428927680797,-0.01195430027242821,
0.008678304239401496,-0.011534470992168594,
0.008728179551122194,0.0012802105737114685,
0.008778054862842893,0.016675894359775553,
0.00882793017456359,-0.012429265919703357,
0.00887780548628429,0.008747331993729433,
0.008927680798004987,-0.040337147485719226,
0.008977556109725686,-0.008406491101865692,
0.009027431421446384,0.03166694277247096,
0.009077306733167083,-0.023939026334014256,
0.00912718204488778,-0.008889938965975255,
0.00917705735660848,0.0074594731749776655,
0.009226932668329177,-0.01498936524585834,
0.009276807980049876,0.028936133387604666,
0.009326683291770574,-0.01982416370491975,
0.009376558603491271,0.002928367858966124,
0.00942643391521197,-0.003890899520890833,
0.009476309226932668,0.00414304544925282,
0.009526184538653367,0.01056064684740952,
0.009576059850374064,0.00150785103787522,
0.009625935162094763,0.011896615434477481,
0.00967581047381546,0.01364245759265429,
0.00972568578553616,-0.009026669696369956,
0.009775561097256857,-0.02516489764310439,
0.009825436408977557,-0.028758654562239562,
0.009875311720698254,0.0016545552391053517,
0.009925187032418953,0.006616766213156034,
0.00997506234413965,0.022914501371279615,
0.01002493765586035,0.016966757707949087,
0.010074812967581047,-0.004310079654608725,
0.010124688279301746,0.014067136616548834,
0.010174563591022444,0.025298231818763162,
0.010224438902743141,0.043943692715311296,
0.01027431421446384,0.00837859100867664,
0.010324189526184538,0.0005691944404745343,
0.010374064837905237,0.0006595816774436695,
0.010423940149625935,0.013020275989401994,
0.010473815461346634,-0.012942630592215204,
0.010523690773067331,-0.008722703844278212,
0.01057356608478803,-0.01404879518466515,
0.010623441396508728,0.02587704559938652,
0.010673316708229427,-0.012230362891125784,
0.010723192019950124,-0.009925033693317323,
0.010773067331670824,-0.0005030211242710711,
0.010822942643391521,0.014065473144741505,
0.01087281795511222,0.014677218277093163,
0.010922693266832918,0.0188409317740435,
0.010972568578553617,0.00943184494094349,
0.011022443890274314,-0.0060484872775773395,
0.011072319201995013,0.002325707788253718,
0.01112219451371571,-0.017281945750507163,
0.011172069825436408,0.0044681295108356415,
0.011221945137157107,0.009291618858769285,
0.011271820448877805,0.0012763681273924004,
0.011321695760598504,0.015819569910338074,
0.011371571072319201,-0.0009352900796963312,
0.0114214463840399,0.024669553189337976,
0.011471321695760598,0.027972733731858494,
0.011521197007481297,0.015582588721204216,
0.011571072319201995,0.02277103778353188,
0.011620947630922694,0.004709614391954979,
0.011670822942643391,0.004730010218601722,
0.01172069825436409,0.0029071116319245513,
0.011770573566084788,-0.01444314796959141,
0.011820448877805487,0.015629381614308154,
0.011870324189526184,0.03309170604676244,
0.011920199501246884,0.017254099442178816,
0.011970074812967581,0.03181192538935028,
0.012019950124688279,0.03255121778405685,
0.012069825436408978,0.026407207827075736,
0.012119700748129675,0.0041653962705014685,
0.012169576059850374,0.018814266084194606,
0.012219451371571072,-0.020199206369267503,
0.012269326683291771,0.003614338844177766,
0.012319201995012468,0.024476358110401206,
0.012369077306733168,0.03663678243924913,
0.012418952618453865,0.007060197850294495,
0.012468827930174564,-0.01986503040770298,
0.012518703241895262,0.020109252543446393,
0.01256857855361596,0.028577035332908562,
0.012618453865336658,0.006234143366538755,
0.012668329177057357,0.004014488634288797,
0.012718204488778055,0.009025102587467772,
0.012768079800498754,0.007814910784208385,
0.012817955112219451,0.030001032647884375,
0.012867830423940149,0.039313496172803664,
0.012917705735660848,0.027850954417121813,
0.012967581047381545,0.01580274437739777,
0.013017456359102245,0.016263391009862075,
0.013067331670822942,0.024826566573808554,
0.013117206982543641,0.013605816942996146,
0.013167082294264339,-0.004791253448126847,
0.013216957605985038,0.022703538266295443,
0.013266832917705735,0.015233847908579476,
0.013316708229426434,-0.00019710866872592325,
0.013366583541147132,-0.016291953674535623,
0.013416458852867831,0.011046746645304268,
0.013466334164588529,-0.01634326268560548,
0.013516209476309228,-0.0005864897792145427,
0.013566084788029925,0.033713365110796714,
0.013615960099750624,0.04017105696529565,
0.013665835411471322,0.026078992948397786,
0.01371571072319202,0.001998878486584456,
0.013765586034912718,0.023736749641854543,
0.013815461346633416,0.008813290178718902,
0.013865336658354115,0.014087467166805694,
0.013915211970074812,0.0073481535939518994,
0.013965087281795512,0.01774728655629942,
0.014014962593516209,0.015008136854087924,
0.014064837905236908,0.03879965815185608,
0.014114713216957606,0.03616571232485967,
0.014164588528678305,0.0131877210493449,
0.014214463840399002,0.01658879560277205,
0.014264339152119701,0.013062776348184892,
0.014314214463840399,0.014064504123889274,
0.014364089775561098,0.008875873248370608,
0.014413965087281795,0.009248418026141892,
0.014463840399002495,0.006391257277272517,
0.014513715710723192,0.03700366619378152,
0.01456359102244389,0.008521960113506666,
0.014613466334164589,-0.007937576035911994,
0.014663341645885286,0.03381577168572397,
0.014713216957605985,0.006817870251635556,
0.014763092269326683,0.026037401370353472,
0.014812967581047382,0.013323148634564845,
0.01486284289276808,0.03003991039828278,
0.014912718204488778,0.03245151463855578,
0.014962593516209476,-0.009683556847175048,
0.015012468827930175,0.026613229893243797,
0.015062344139650873,0.02730474199326132,
0.015112219451371572,-0.0010210121900141485,
0.01516209476309227,-0.002666240166171556,
0.015211970074812968,0.0009433491587729076,
0.015261845386533666,0.020740188066886902,
0.015311720698254365,0.03878895142355017,
0.015361596009975062,-0.002483444565606348,
0.01541147132169576,0.013051464539509079,
0.015461346633416459,0.024716772265795744,
0.015511221945137156,0.014961679530556788,
0.015561097256857856,0.01865151806538508,
0.015610972568578553,0.01575107370020557,
0.015660847880299252,0.025574068186730404,
0.01571072319201995,0.0003453043729712696,
0.015760598503740647,0.03414600558004891,
0.015810473815461346,0.0337957285077818,
0.015860349127182045,0.034992022223061095,
0.015910224438902745,0.045271446171709154,
0.01596009975062344,-0.0037419285282535297,
0.01600997506234414,0.009962428924304823,
0.01605985037406484,0.02596541365552819,
0.016109725685785538,0.02433018049418367,
0.016159600997506234,0.041110470221145945,
0.016209476309226933,0.007477058122015224,
0.016259351620947632,0.012459606499592405,
0.016309226932668328,0.027465143926956648,
0.016359102244389027,0.01322551473684883,
0.016408977556109726,0.013146225179600088,
0.016458852867830425,0.01834209671041411,
0.01650872817955112,0.013436531121104794,
0.01655860349127182,0.0027294295739402827,
0.01660847880299252,0.02020558217195016,
0.01665835411471322,0.04366575254695651,
0.016708229426433914,0.021540050911936098,
0.016758104738154613,0.0233533065949972,
0.016807980049875312,0.002023777012428944,
0.01685785536159601,-0.01726195856719354,
0.016907730673316707,0.025108477995447423,
0.016957605985037406,-0.003746253955887343,
0.017007481296758106,0.03127241654670884,
0.0170573566084788,0.023845275766970188,
0.0171072319201995,0.008773047995840375,
0.0171571072319202,0.029684329634629317,
0.0172069825436409,0.0033624273668968613,
0.017256857855361595,-0.0029535216381131896,
0.017306733167082294,0.023184069985048014,
0.017356608478802993,-0.0067994291069858066,
0.017406483790523692,-0.004530670778278246,
0.017456359102244388,0.021243785365265524,
0.017506234413965087,0.0066626613705558025,
0.017556109725685786,0.05256187388412123,
0.017605985037406485,-0.009847118555230832,
0.01765586034912718,-0.0021077104601690926,
0.01770573566084788,0.04444005464463587,
0.01775561097256858,0.01526911235935377,
0.01780548628428928,0.01817208084302808,
0.017855361596009974,0.04088326570083123,
0.017905236907730673,0.017019860730350153,
0.017955112219451373,0.023946321943024183,
0.018004987531172068,0.014551102832441702,
0.018054862842892767,-0.019000176846672732,
0.018104738154613467,0.038160681583930406,
0.018154613466334166,0.010309540554867342,
0.01820448877805486,-0.0007894713382295641,
0.01825436408977556,0.0210304158417637,
0.01830423940149626,0.009963762038403448,
0.01835411471321696,0.025200367919694953,
0.018403990024937655,0.02302478903818511,
0.018453865336658354,-0.012176021717705402,
0.018503740648379053,0.010196992087374877,
0.018553615960099752,0.0015344539956945423,
0.018603491271820448,0.021164805609935985,
0.018653366583541147,0.00744482948766699,
0.018703241895261846,0.006849815624040682,
0.018753117206982542,3.7574745629992065e-06,
0.01880299251870324,-0.0027435126487121222,
0.01885286783042394,-0.01564251920083642,
0.01890274314214464,0.01062923409028999,
0.018952618453865335,0.02341640853395489,
0.019002493765586034,0.030291980375650087,
0.019052369077306733,0.007477837585085349,
0.019102244389027433,0.025379893365554917,
0.01915211970074813,-0.0049415236281636285,
0.019201995012468828,-0.01737020761692186,
0.019251870324189527,0.003857310003630113,
0.019301745635910226,0.002323785774514453,
0.01935162094763092,-0.004203883028799782,
0.01940149625935162,0.02798110050368388,
0.01945137157107232,0.010241603929692845,
0.01950124688279302,0.01990979524901662,
0.019551122194513715,0.0022465004362915027,
0.019600997506234414,0.007393839417090686,
0.019650872817955113,-0.021424280385055727,
0.01970074812967581,0.021394448799512175,
0.019750623441396508,0.00814467813343285,
0.019800498753117207,-0.01621043534359234,
0.019850374064837906,-0.01422675916995569,
0.019900249376558602,0.023311903228458407,
0.0199501246882793,0.03822906121093677,
0.02,0.022119230786781872,
0.0200498753117207,-0.006711160393331799,
0.020099750623441395,-0.007137320774875543,
0.020149625935162094,0.014004179510680387,
0.020199501246882794,-0.015944316287837886,
0.020249376558603493,0.03285546150144057,
0.02029925187032419,0.01174647616136141,
0.020349127182044888,0.020997678317374667,
0.020399002493765587,-0.021305042616887662,
0.020448877805486283,0.005213589076864137,
0.02049875311720698,-0.009774847184974662,
0.02054862842892768,0.01217340710309268,
0.02059850374064838,-0.007726075004732198,
0.020648379052369076,-0.02400076022140641,
0.020698254364089775,0.01729944501606156,
0.020748129675810474,0.021266981350555277,
0.020798004987531173,-0.023219579510458825,
0.02084788029925187,-0.01572030445147686,
0.020897755610972568,-0.011746523623925944,
0.020947630922693267,-0.01856462132931244,
0.020997506234413967,-0.004829684665580243,
0.021047381546134662,0.0153989832916368,
0.02109725685785536,0.010837312429805662,
0.02114713216957606,0.02014747361939056,
0.02119700748129676,-0.024275306184417055,
0.021246882793017455,-0.02688456410655583,
0.021296758104738155,0.0005560565406931631,
0.021346633416458854,-0.025386023783673037,
0.02139650872817955,-0.007951136938353458,
0.02144638403990025,-0.0034240191104765545,
0.021496259351620948,-0.02922645705766335,
0.021546134663341647,0.0008663064891058069,
0.021596009975062343,-0.0057819138151160125,
0.021645885286783042,-0.013747360439805428,
0.02169576059850374,-0.008371293295946299,
0.02174563591022444,-0.012518337412297338,
0.021795511221945136,-0.012757995699006288,
0.021845386533665835,-0.015084906730759368,
0.021895261845386534,0.011960405094606894,
0.021945137157107233,-0.0037048015973724395,
0.02199501246882793,0.013430185226585095,
0.02204488778054863,-0.006818851714017988,
0.022094763092269327,-0.022514350341316155,
0.022144638403990027,0.0026690061773953257,
0.022194513715710722,-0.013011534832940316,
0.02224438902743142,-0.006591786354975789,
0.02229426433915212,0.009582456279303622,
0.022344139650872816,-0.039075343837158036,
0.022394014962593516,-0.02175608119041465,
0.022443890274314215,-0.00719896233265997,
0.022493765586034914,-0.01685489591349585,
0.02254364089775561,-0.0015601074325326866,
0.02259351620947631,-0.008159069697818355,
0.022643391521197008,-0.016899552908192894,
0.022693266832917707,-0.005534621341284136,
0.022743142144638403,0.006784347230636024,
0.022793017456359102,-0.041079500006368536,
0.0228428927680798,-0.0009206373624569119,
0.0228927680798005,-0.009169611443225978,
0.022942643391521196,-0.021802775200075702,
0.022992518703241895,-0.003777157354044023,
0.023042394014962594,0.0005979367919117136,
0.02309226932668329,-0.015061440177564906,
0.02314214463840399,-0.015183653291229384,
0.02319201995012469,-0.025356935568031102,
0.023241895261845388,-0.03318925020794635,
0.023291770573566083,-0.02321728618781062,
0.023341645885286783,-0.021319606297214157,
0.02339152119700748,0.02860817904098517,
0.02344139650872818,-0.00570185976009571,
0.023491271820448877,-0.009650925505092384,
0.023541147132169576,-0.05338041690687067,
0.023591022443890275,0.0015428877861688936,
0.023640897755610974,-0.021158402203761483,
0.02369077306733167,-0.0004559170762569592,
0.02374064837905237,-0.02282277364424512,
0.023790523690773068,-0.01906506067538872,
0.023840399002493767,-0.04339514293349529,
0.023890274314214463,-0.03729635655466243,
0.023940149625935162,-0.0008227482827923085,
0.02399002493765586,-0.028729477284880275,
0.024039900249376557,-0.046817016295140956,
0.024089775561097256,-0.018743918908476546,
0.024139650872817955,-0.011177916187405306,
0.024189526184538655,-0.00028667579426812015,
0.02423940149625935,-0.02141528971347558,
0.02428927680798005,0.005231240996924676,
0.02433915211970075,-0.06038598124434945,
0.024389027431421448,-0.005770240129886115,
0.024438902743142144,-0.03807882623725904,
0.024488778054862843,0.010809479813531295,
0.024538653366583542,-0.01367693428066569,
0.02458852867830424,0.005520181959859444,
0.024638403990024937,0.015597591594485205,
0.024688279301745636,-0.025561543615634535,
0.024738154613466335,-0.004568065293309852,
0.02478802992518703,-0.03356866544506974,
0.02483790523690773,-0.014706111097706833,
0.02488778054862843,0.014014994651468212,
0.02493765586034913,-0.008546046139246727,
0.024987531172069824,-0.014932155652922347,
0.025037406483790523,0.00811992950213498,
0.025087281795511222,-0.03717049078901926,
0.02513715710723192,-0.03298086323101389,
0.025187032418952617,-0.022822103040599333,
0.025236907730673316,-0.01588885418662899,
0.025286783042394016,-0.019940369268663362,
0.025336658354114715,-0.005280861029999676,
0.02538653366583541,-0.01087186873698274,
0.02543640897755611,-0.06072740327304193,
0.02548628428927681,-0.028905725741792135,
0.025536159600997508,-0.03725254124268803,
0.025586034912718204,-0.0309787738654541,
0.025635910224438903,-0.0036499128943928687,
0.025685785536159602,0.002227953224859809,
0.025735660847880298,-0.006229963240203754,
0.025785536159600997,-0.03380090378147224,
0.025835411471321696,-0.026357529444503314,
0.025885286783042395,-0.014606131152529785,
0.02593516209476309,-0.011568058818353889,
0.02598503740648379,0.004364072472371864,
0.02603491271820449,-0.0004683778052566208,
0.02608478802992519,-0.020170772189911687,
0.026134663341645884,-0.023076440811255698,
0.026184538653366583,-0.010852632194457406,
0.026234413965087282,0.004446673664320579,
0.02628428927680798,-0.0057925788687032236,
0.026334164588528677,-0.023927869859921985,
0.026384039900249377,-0.020863485196425002,
0.026433915211970076,-0.01951088542924301,
0.02648379052369077,-0.02497315918197983,
0.02653366583541147,-0.024081574389402276,
0.02658354114713217,-0.016660430172092504,
0.02663341645885287,-0.03330787469518656,
0.026683291770573565,-0.028897208307917963,
0.026733167082294264,-0.01853013919619324,
0.026783042394014963,-0.0031232786665283466,
0.026832917705735662,0.0026708595472019515,
0.026882793017456358,-0.01596750056521941,
0.026932668329177057,-0.01047021406892271,
0.026982543640897756,-0.01938860400436139,
0.027032418952618455,-0.016408498308221154,
0.02708229426433915,-0.02303441685137715,
0.02713216957605985,-0.025481894246788046,
0.02718204488778055,-0.0372559500910822,
0.02723192019950125,-0.004147000105947164,
0.027281795511221944,-0.0030819262966732906,
0.027331670822942643,0.006420811683062766,
0.027381546134663343,-0.03574608779554138,
0.02743142144638404,-0.0024232023785201867,
0.027481296758104738,-0.009215062111651389,
0.027531172069825437,-0.02569121369659004,
0.027581047381546136,-0.023404400151966293,
0.02763092269326683,0.003322546557288671,
0.02768079800498753,-0.014464215801315898,
0.02773067331670823,-0.005947539933775349,
0.02778054862842893,-0.004950665250338103,
0.027830423940149625,-0.011299983288857039,
0.027880299251870324,-0.012256555136772552,
0.027930174563591023,0.001718550883157267,
0.027980049875311722,-0.01673399377156322,
0.028029925187032418,-0.004999182169696316,
0.028079800498753117,0.027494141929308373,
0.028129675810473816,-0.025929914569331938,
0.028179551122194512,-0.01488801345416031,
0.02822942643391521,0.0004625664253605803,
0.02827930174563591,0.005457653398733024,
0.02832917705735661,0.024448661134069925,
0.028379052369077305,0.0028344840721659555,
0.028428927680798004,2.2210895182252915e-05,
0.028478802992518704,0.017632222610974135,
0.028528678304239403,-0.030192204342708837,
0.0285785536159601,-0.0016837076285634556,
0.028628428927680798,0.02141564897246696,
0.028678304239401497,-0.0004162926695773601,
0.028728179551122196,5.041221075620123e-05,
0.02877805486284289,0.01074711737115113,
0.02882793017456359,-0.014456985692349014,
0.02887780548628429,-0.008509753396421554,
0.02892768079800499,0.012045704564683549,
0.028977556109725685,0.015589829951979073,
0.029027431421446384,-0.02492107494286215,
0.029077306733167083,-0.0004937328810278817,
0.02912718204488778,0.017373744104164417,
0.029177057356608478,0.001029712606360365,
0.029226932668329177,-0.04860410285677108,
0.029276807980049877,0.023479345355156094,
0.029326683291770572,0.012152442232067386,
0.02937655860349127,-0.011871492730978924,
0.02942643391521197,0.026140919952926223,
0.02947630922693267,0.000589695097482446,
0.029526184538653365,-0.008015258278816864,
0.029576059850374065,0.016535394493027978,
0.029625935162094764,-0.020256507661414253,
0.029675810473815463,0.013267841158876014,
0.02972568578553616,0.008956556059986636,
0.029775561097256858,-0.01047725881291872,
0.029825436408977557,0.012710019623884712,
0.029875311720698253,0.02146234488673358,
0.029925187032418952,0.0185562038146949,
0.02997506234413965,0.00600802879080021,
0.03002493765586035,-0.004950854087591536,
0.030074812967581046,0.01554371486971538,
0.030124688279301745,0.014603517434404512,
0.030174563591022444,0.012243942156706237,
0.030224438902743143,0.004443366028114019,
0.03027431421446384,-0.019501868581088613,
0.03032418952618454,0.018221355232243476,
0.030374064837905237,-0.021370864433500482,
0.030423940149625937,-0.009735292532011318,
0.030473815461346632,0.012710236785302167,
0.03052369077306733,-0.004600800210364639,
0.03057356608478803,0.01357679376423516,
0.03062344139650873,0.010566332396771926,
0.030673316708229426,0.001889189396566026,
0.030723192019950125,0.02200670805479137,
0.030773067331670824,0.010994617602970278,
0.03082294264339152,-7.699382902603448e-05,
0.03087281795511222,-0.0029151786812801166,
0.030922693266832918,0.027509307376395585,
0.030972568578553617,-0.021537036284989142,
0.031022443890274313,-0.002946548833764816,
0.031072319201995012,-0.0401406988419109,
0.03112219451371571,0.006654413206106403,
0.03117206982543641,0.001353242798083477,
0.031221945137157106,-0.005374868003828866,
0.03127182044887781,0.006566539054155138,
0.031321695760598504,0.02496169334166634,
0.0313715710723192,-0.0007685752961483373,
0.0314214463840399,0.021142488038419803,
0.0314713216957606,0.013954823688831866,
0.031521197007481294,0.007226200835006738,
0.031571072319202,-0.006285474448491719,
0.03162094763092269,0.024237501394958668,
0.03167082294264339,0.01953173412088576,
0.03172069825436409,0.01661099664837939,
0.03177057356608479,0.008861094150771675,
0.03182044887780549,-0.02504018440458044,
0.031870324189526185,0.007157963227008582,
0.03192019950124688,9.087949916278953e-06,
0.03197007481296758,0.003412618570453385,
0.03201995012468828,0.04632725455555818,
0.032069825436408975,0.03617815408930053,
0.03211970074812968,-0.016765681357099424,
0.03216957605985037,-0.0067513236101164505,
0.032219451371571076,0.01985288092210321,
0.03226932668329177,0.007679106986814279,
0.03231920199501247,0.012149445748915747,
0.03236907730673317,0.01564145275561894,
0.032418952618453865,0.003845359271726299,
0.03246882793017456,0.020921282889972415,
0.032518703241895264,-0.006421028185398123,
0.03256857855361596,0.014979371798141988,
0.032618453865336655,0.04246926428277123,
0.03266832917705736,0.04686260735001507,
0.032718204488778053,0.035807115284093666,
0.032768079800498756,0.011271887332267316,
0.03281795511221945,0.020330301568895,
0.03286783042394015,0.018311536298331363,
0.03291770573566085,0.037969753671183604,
0.032967581047381546,0.008490612612752382,
0.03301745635910224,0.0040471397017450145,
0.033067331670822944,0.03500906751723078,
0.03311720698254364,-0.010696706578370494,
0.03316708229426434,0.007430462387154136,
0.03321695760598504,0.008569463378176996,
0.033266832917705734,0.02009222747589802,
0.03331670822942644,0.006773703119456076,
0.03336658354114713,0.06694015490730762,
0.03341645885286783,0.031624841699323024,
0.03346633416458853,-0.0030065174337163443,
0.033516209476309226,0.018040826516128424,
0.03356608478802992,0.018907754955057223,
0.033615960099750625,0.02102860662824088,
0.03366583541147132,0.0030475913364830486,
0.03371571072319202,0.0037812260348501665,
0.03376558603491272,0.031116193646281112,
0.033815461346633414,0.05030662806487585,
0.03386533665835412,0.003568063054679386,
0.03391521197007481,0.011846288507113802,
0.03396508728179551,0.0033812909767861436,
0.03401496259351621,0.03822776633260222,
0.03406483790523691,0.02888007841171613,
0.0341147132169576,0.023552377749474163,
0.034164588528678305,0.0017681425520987247,
0.034214463840399,0.012331411420975857,
0.034264339152119704,-0.0032927308301360265,
0.0343142144638404,0.036522710563999014,
0.034364089775561095,-0.004378244232421467,
0.0344139650872818,0.0240584852032678,
0.03446384039900249,0.038394565984726535,
0.03451371571072319,0.04340911901071679,
0.03456359102244389,0.024008973746002294,
0.03461346633416459,0.040743635014943866,
0.03466334164588529,0.012311430168452675,
0.034713216957605986,0.03754413278693922,
0.03476309226932668,0.044688912736923894,
0.034812967581047384,0.03665218042923272,
0.03486284289276808,0.0027553934605677732,
0.034912718204488775,-0.012404006021516492,
0.03496259351620948,0.03573745475308533,
0.035012468827930174,0.015227508329711273,
0.03506234413965087,0.0033950054693343765,
0.03511221945137157,0.03835286479382284,
0.03516209476309227,0.020075966425325237,
0.03521197007481297,0.03725233635111949,
0.035261845386533666,0.016998768672758437,
0.03531172069825436,0.044724869532275176,
0.035361596009975065,0.02800283638971876,
0.03541147132169576,0.014331530916125374,
0.035461346633416456,0.009355767178221208,
0.03551122194513716,0.019049545182608756,
0.035561097256857854,0.017157298846509076,
0.03561097256857856,0.03971566501995395,
0.03566084788029925,0.010780609981121186,
0.03571072319201995,0.024398378140349394,
0.03576059850374065,0.014930422234441037,
0.03581047381546135,0.04098562577965123,
0.03586034912718204,-0.0019201114467506351,
0.035910224438902745,0.01119171307306838,
0.03596009975062344,0.006675637095797868,
0.036009975062344136,0.035038975488509275,
0.03605985037406484,0.010695213832192687,
0.036109725685785535,0.030118645345009222,
0.03615960099750624,0.015614688020471565,
0.03620947630922693,-0.0026462346957167766,
0.03625935162094763,0.011061552035959902,
0.03630922693266833,0.007774948826543457,
0.03635910224438903,0.02578992590992303,
0.03640897755610972,0.03457063454138965,
0.036458852867830426,0.019477631440666464,
0.03650872817955112,0.004582736801432081,
0.036558603491271824,0.04123937720088568,
0.03660847880299252,0.020451581076460817,
0.036658354114713215,0.00629484682076039,
0.03670822942643392,0.039535052770935476,
0.036758104738154614,0.03389809403573703,
0.03680798004987531,-0.010430372452104417,
0.03685785536159601,0.0345664334775105,
0.03690773067331671,0.02374092583359741,
0.0369576059850374,-0.021075494579511418,
0.037007481296758106,0.03663603252028799,
0.0370573566084788,0.021903193936359415,
0.037107231920199504,0.011978198104613053,
0.0371571072319202,-0.004974330649931365,
0.037206982543640896,0.003932850646939693,
0.0372568578553616,0.028025183599238977,
0.037306733167082294,0.04395711027518987,
0.03735660847880299,0.026512559935456554,
0.03740648379052369,0.002525042749693479,
0.03745635910224439,0.02972419804610881,
0.037506234413965084,0.004822518037223425,
0.037556109725685786,-0.002434238263798249,
0.03760598503740648,0.02615620301618386,
0.037655860349127185,0.06386448383284943,
0.03770573566084788,-0.010581489572863857,
0.037755610972568576,0.03784081733345776,
0.03780548628428928,0.021102215347213397,
0.037855361596009975,0.004546754887691318,
0.03790523690773067,0.03696479915237495,
0.03795511221945137,0.01766037677046951,
0.03800498753117207,0.03168189621539111,
0.03805486284289277,0.011346193034156623,
0.03810473815461347,0.006071970392348907,
0.03815461346633416,0.0039574446759505204,
0.038204488778054865,0.026687720677646767,
0.03825436408977556,0.005236997324526007,
0.03830423940149626,0.012684011795119585,
0.03835411471321696,-0.005587249582273569,
0.038403990024937655,0.002386044379265182,
0.03845386533665835,-0.009109564014662192,
0.03850374064837905,0.029117502451134657,
0.03855361596009975,0.02789343432137665,
0.03860349127182045,0.009029105284147586,
0.03865336658354115,-0.009067231562924952,
0.03870324189526184,0.011428637473501087,
0.038753117206982546,0.01851420015241103,
0.03880299251870324,0.014163973192295818,
0.03885286783042394,0.010480644033555609,
0.03890274314214464,-0.0037392254341715326,
0.038952618453865336,-0.0007187071676763249,
0.03900249376558604,0.021793748738140786,
0.039052369077306734,0.03332441609913836,
0.03910224438902743,0.017460105341823885,
0.03915211970074813,-0.0020002939353627076,
0.03920199501246883,0.01584582008182691,
0.039251870324189524,0.0223038892557076,
0.039301745635910226,0.01727764254954567,
0.03935162094763092,0.014799442250494786,
0.03940149625935162,0.007915690954263904,
0.03945137157107232,0.002865750125042724,
0.039501246882793016,0.021414700534905927,
0.03955112219451372,-0.0011762803579146814,
0.039600997506234414,0.0029121367834445662,
0.03965087281795511,0.012847988767605121,
0.03970074812967581,0.026368316000139173,
0.03975062344139651,0.0177014260360066,
0.039800498753117204,-0.015481280666275275,
0.03985037406483791,-0.021925003131140423,
0.0399002493765586,0.04662934239249388,
0.039950124688279305,-0.005493317359360754,
0.04,-0.004973638800410149,
0.0400498753117207,0.011122978102378406,
0.0400997506234414,0.004564685424237429,
0.040149625935162095,-0.004943846818144118,
0.04019950124688279,0.02144729934700247,
0.04024937655860349,-0.023424109507735817,
0.04029925187032419,0.011232677777826775,
0.040349127182044885,0.011880465791553128,
0.04039900249376559,-0.004473778823754028,
0.04044887780548628,0.02720576275527531,
0.040498753117206986,-0.01563409507775415,
0.04054862842892768,0.003326035059611261,
0.04059850374064838,0.0010937369067924216,
0.04064837905236908,-0.0018508014634576416,
0.040698254364089775,0.03051751379026714,
0.04074812967581047,0.006573963009995734,
0.040798004987531174,-0.013473526253525258,
0.04084788029925187,0.011345729440009644,
0.040897755610972565,-0.017502039472195315,
0.04094763092269327,-0.00957222784208107,
0.04099750623441396,-0.03265872298867542,
0.041047381546134666,-0.007715868410810922,
0.04109725685785536,-0.0060528110299882375,
0.04114713216957606,-0.004122702819247638,
0.04119700748129676,-0.013043631020527628,
0.041246882793017456,-0.0050362813683312736,
0.04129675810473815,0.017785123373910534,
0.041346633416458854,-0.016004787538716644,
0.04139650872817955,-0.007227107137723806,
0.04144638403990025,0.01671493620565753,
0.04149625935162095,0.006177170752350181,
0.041546134663341644,0.01730032374661939,
0.04159600997506235,-0.0017629631297607406,
0.04164588528678304,0.013804908664991374,
0.04169576059850374,0.015193439212200437,
0.04174563591022444,0.006243006067929139,
0.041795511221945136,-0.0034849531420873825,
0.04184538653366583,-0.012192019524365279,
0.041895261845386535,0.011449780560275553,
0.04194513715710723,0.030163527802780657,
0.04199501246882793,0.01570605748199602,
0.04204488778054863,-0.006020258790805086,
0.042094763092269324,-0.023593648325641925,
0.04214463840399003,0.004344812781840962,
0.04219451371571072,-0.008735535142979247,
0.04224438902743142,-0.0006501936652885346,
0.04229426433915212,-0.03243139566454438,
0.04234413965087282,-0.01488703945093559,
0.04239401496259352,0.015756587171899275,
0.042443890274314215,-0.04650598247324051,
0.04249376558603491,-0.031516051004293076,
0.042543640897755614,-0.01939687347595401,
0.04259351620947631,-0.009663213090915921,
0.042643391521197005,0.01587028464056765,
0.04269326683291771,-0.022952766986679668,
0.0427431421446384,-0.016540731458203832,
0.0427930174563591,-0.0013318502744773652,
0.0428428927680798,0.0006398670879365822,
0.0428927680798005,-0.028571297172523154,
0.0429426433915212,-0.02748979871413276,
0.042992518703241896,-0.013837676623703964,
0.04304239401496259,-0.016261271975649173,
0.043092269326683294,-0.014387840638796596,
0.04314214463840399,-0.019240427815511184,
0.043192019950124685,-0.022330997253094037,
0.04324189526184539,-0.017370243007977394,
0.043291770573566084,-0.021464134194572534,
0.043341645885286786,-0.022734608869228345,
0.04339152119700748,-0.023038510468732294,
0.04344139650872818,-0.016781687835328893,
0.04349127182044888,0.0026080242833039797,
0.043541147132169576,-0.01684644681094337,
0.04359102244389027,-0.04597574330887076,
0.043640897755610975,-0.028086081309917542,
0.04369077306733167,-0.02416895442136142,
0.043740648379052366,-0.0011789455723546696,
0.04379052369077307,-0.018106837634115334,
0.043840399002493764,-0.02955547401103898,
0.04389027431421447,-0.021263906210815656,
0.04394014962593516,-0.01408263792675479,
0.04399002493765586,-0.02036704066336044,
0.04403990024937656,-0.022537034456203205,
0.04408977556109726,-0.016179963093339005,
0.04413965087281795,-0.02086567276328922,
0.044189526184538655,-0.02180834867194402,
0.04423940149625935,-0.023547397259193394,
0.04428927680798005,-0.02470311647350514,
0.04433915211970075,-0.011756273394643996,
0.044389027431421445,-0.02715114467686635,
0.04443890274314215,0.017627073258020758,
0.04448877805486284,-0.0031467494304029467,
0.04453865336658354,0.002754317832411271,
0.04458852867830424,-0.017686629535674396,
0.04463840399002494,-0.007256117003279229,
0.04468827930174563,-0.00496802987836713,
0.044738154613466335,-0.01783840958715379,
0.04478802992518703,-0.00765036539004799,
0.044837905236907734,-0.019368701342319296,
0.04488778054862843,-0.018322220271564636,
0.044937655860349125,-0.030571978626342262,
0.04498753117206983,-0.014977744771336742,
0.045037406483790524,-0.011301556878687453,
0.04508728179551122,-0.017710266887505786,
0.04513715710723192,-0.018830004758592735,
0.04518703241895262,-0.023577782334689497,
0.04523690773067331,0.010219363154658566,
0.045286783042394016,-0.01525052155357844,
0.04533665835411471,-0.015038191940236,
0.045386533665835414,-0.0040862960729992175,
0.04543640897755611,-0.012280746841779495,
0.045486284289276806,-0.021613479518419878,
0.04553615960099751,-0.008592955873955858,
0.045586034912718204,-0.02921637032030911,
0.0456359102244389,-0.027002472432427004,
0.0456857855361596,-0.008390787708180452,
0.0457356608478803,-0.038068195529363774,
0.045785536159601,-0.015105454622562218,
0.045835411471321696,-0.011235203007655176,
0.04588528678304239,-0.02399707624304604,
0.045935162094763095,-0.023128419196718472,
0.04598503740648379,-0.030942338548694617,
0.046034912718204486,0.00032635363852591935,
0.04608478802992519,-0.007915144042140108,
0.046134663341645885,-0.01245352804168575,
0.04618453865336658,-0.01645572882050661,
0.04623441396508728,-0.0051880626750261324,
0.04628428927680798,-0.033065660196025776,
0.04633416458852868,-0.008856304985942434,
0.04638403990024938,-0.02571812600575396,
0.04643391521197007,-0.020593812861231145,
0.046483790523690775,-0.009097163458275477,
0.04653366583541147,-0.006481977827626481,
0.04658354114713217,-0.011508408420475525,
0.04663341645885287,-0.009234370364324878,
0.046683291770573565,-0.032382040063850225,
0.04673316708229427,-0.05417339656377002,
0.04678304239401496,0.01672477751107042,
0.04683291770573566,0.008110845975428733,
0.04688279301745636,-0.010815361115455314,
0.04693266832917706,-0.037644496555187125,
0.04698254364089775,-0.03080426777102472,
0.047032418952618456,-0.007839243189490502,
0.04708229426433915,-0.0037654933675299127,
0.04713216957605985,0.0008864748251571665,
0.04718204488778055,-0.02946191056214992,
0.047231920199501246,-0.01366627789353718,
0.04728179551122195,-0.014384509594063857,
0.047331670822942644,-0.011184225867618657,
0.04738154613466334,-0.011995417305138301,
0.04743142144638404,-0.018091455632523186,
0.04748129675810474,-0.028647787197037387,
0.047531172069825434,0.00965922451330109,
0.047581047381546136,-0.0006043618883293193,
0.04763092269326683,-0.03634658786314571,
0.047680798004987535,-0.024859208825936004,
0.04773067331670823,-0.003906907375080562,
0.047780548628428926,-0.0007171194227549409,
0.04783042394014963,-0.02937532090460102,
0.047880299251870324,-0.031456036866197384,
0.04793017456359102,0.013557375419727645,
0.04798004987531172,0.001163863200397343,
0.04802992518703242,0.0005682056623456978,
0.048079800498753114,0.010362592932204366,
0.04812967581047382,-0.01225878042847616,
0.04817955112219451,-0.008126394020781795,
0.048229426433915215,-0.014072699707282244,
0.04827930174563591,-0.01598960486194439,
0.048329177057356607,-0.005311783172713161,
0.04837905236907731,-0.01371373042895129,
0.048428927680798005,0.0047008009661312685,
0.0484788029925187,-0.011225572671551665,
0.0485286783042394,0.009761858543360848,
0.0485785536159601,-0.002686798034389001,
0.048628428927680795,0.0142344930996674,
0.0486783042394015,0.005496097457611478,
0.04872817955112219,-0.003493349337741973,
0.048778054862842896,-0.005638087045645232,
0.04882793017456359,0.021486702392915405,
0.04887780548628429,0.012629900821391354,
0.04892768079800499,0.0073334782478864,
0.048977556109725685,-0.007679423203537902,
0.04902743142144638,-0.015668159009480796,
0.049077306733167084,0.01139146161470272,
0.04912718204488778,0.008129935054244947,
0.04917705735660848,0.01125830831364178,
0.04922693266832918,-0.0168687040093523,
0.04927680798004987,0.0003113008403610155,
0.049326683291770576,0.0267110645829948,
0.04937655860349127,-0.011876216241376556,
0.04942643391521197,0.004541123184563539,
0.04947630922693267,-0.010338977584400097,
0.049526184538653366,0.012863570995472556,
0.04957605985037406,-0.00015723680415579127,
0.049625935162094764,0.006632342529691183,
0.04967581047381546,0.017136074993615046,
0.04972568578553616,-0.029947228830304814,
0.04977556109725686,0.004474706642850611,
0.049825436408977554,-0.002176286227924415,
0.04987531172069826,0.02078383602384645,
0.04992518703241895,0.013724812345850814,
0.04997506234413965,-0.003827330194201727,
0.05002493765586035,-0.0111884517248561,
0.050074812967581046,-0.009514559284532239,
0.05012468827930175,0.004144244338695591,
0.050174563591022445,-0.0098937656592403,
0.05022443890274314,0.02409615642077239,
0.05027431421446384,-0.008433347294583091,
0.05032418952618454,0.013629380092016204,
0.050374064837905234,0.0391461753762773,
0.05042394014962594,0.019850414131038344,
0.05047381546134663,-0.0034773767208146726,
0.05052369077306733,0.015899650127480017,
0.05057356608478803,-0.0009182806043202731,
0.05062344139650873,-0.004179348502788997,
0.05067331670822943,0.027210205141770402,
0.050723192019950125,-0.019811869247719494,
0.05077306733167082,-0.0018874994773491055,
0.050822942643391524,0.006350938390116427,
0.05087281795511222,-0.004650139299391771,
0.050922693266832915,0.02350258516887941,
0.05097256857855362,0.004574942796429823,
0.05102244389027431,0.024443815902450077,
0.051072319201995016,0.010382647602387506,
0.05112219451371571,0.013993117644239664,
0.05117206982543641,-0.004062298618518211,
0.05122194513715711,0.010820698319579875,
0.051271820448877806,0.0003522732997310405,
0.0513216957605985,0.0011526815058612288,
0.051371571072319204,0.021246193012750044,
0.0514214463840399,-0.01806216752576744,
0.051471321695760595,0.0022128999976970976,
0.0515211970074813,-0.003277877995410187,
0.051571072319201994,-0.014866985443442546,
0.051620947630922696,-0.00463300361113439,
0.05167082294264339,0.027052479158536848,
0.05172069825436409,0.009624843206111088,
0.05177057356608479,0.017473887088273604,
0.051820448877805486,0.008932626501553322,
0.05187032418952618,0.013959302331517485,
0.051920199501246884,0.02694311833556143,
0.05197007481296758,0.026267624432018858,
0.052019950124688276,0.027210483845836596,
0.05206982543640898,0.0044409928041822515,
0.052119700748129674,-0.01747677399493135,
0.05216957605985038,-0.005006596757284414,
0.05221945137157107,0.003915959926861017,
0.05226932668329177,0.02202575941069142,
0.05231920199501247,0.013585863663197795,
0.05236907730673317,0.0462476769351731,
0.05241895261845386,0.023081920841051023,
0.052468827930174565,-0.0009122992896677881,
0.05251870324189526,0.011028147775832085,
0.05256857855361596,0.014922622281438917,
0.05261845386533666,0.022455951099030712,
0.052668329177057355,-0.006987718374414004,
0.05271820448877806,0.017741283684396713,
0.05276807980049875,0.020371083476361237,
0.05281795511221945,0.02083719850506052,
0.05286783042394015,0.016865524794516758,
0.05291770573566085,0.0374110297632905,
0.05296758104738154,-0.01395201964246839,
0.053017456359102245,0.005646197518496744,
0.05306733167082294,0.019677171632724005,
0.053117206982543644,0.002325774671658412,
0.05316708229426434,0.006199569569392426,
0.053216957605985035,0.014546890839545305,
0.05326683291770574,0.03320863741693937,
0.053316708229426434,0.00951516767952766,
0.05336658354114713,0.016197347369799706,
0.05341645885286783,0.0414572325460968,
0.05346633416458853,0.022036372646821643,
0.05351620947630923,0.03108112725969473,
0.053566084788029926,0.028200957848723222,
0.05361596009975062,0.009660614867944457,
0.053665835411471324,0.02355145869975275,
0.05371571072319202,0.02784327395855763,
0.053765586034912716,0.03526897229502564,
0.05381546134663342,0.018909461532940076,
0.053865336658354114,-0.0003796228404924426,
0.05391521197007481,0.014690527568612607,
0.05396508728179551,0.023024293203378073,
0.05401496259351621,0.03392566270717107,
0.05406483790523691,0.008303634015057942,
0.054114713216957606,0.017068619030337163,
0.0541645885286783,0.03306315702024847,
0.054214463840399005,0.025745023816647502,
0.0542643391521197,0.03972518407462821,
0.054314214463840396,0.01642255905520557,
0.0543640897755611,0.0009699760751472157,
0.054413965087281795,0.025934715865984323,
0.0544638403990025,0.0007407844449980987,
0.05451371571072319,0.027841818108705316,
0.05456359102244389,0.02560848344320835,
0.05461346633416459,0.0432070387420968,
0.05466334164588529,-0.0006103563232250919,
0.05471321695760598,0.02751450865131294,
0.054763092269326685,-0.004736844894489434,
0.05481296758104738,0.036995389316992686,
0.05486284289276808,0.03276149590554251,
0.05491271820448878,0.029841581602679496,
0.054962593516209475,0.004502307937674317,
0.05501246882793018,0.025006344152157405,
0.05506234413965087,0.019233956603102526,
0.05511221945137157,0.008897106826887463,
0.05516209476309227,0.024212424413039096,
0.05521197007481297,0.013472149390610881,
0.05526184538653366,0.02157845514345769,
0.055311720698254366,0.0348945031470889,
0.05536159600997506,0.03587884889088245,
0.05541147132169576,0.001959275828047332,
0.05546134663341646,0.05013061844552088,
0.055511221945137156,0.05009888242629408,
0.05556109725685786,0.03758338482599562,
0.055610972568578554,0.027621690668331967,
0.05566084788029925,0.017208019834241865,
0.05571072319201995,0.02770755168938592,
0.05576059850374065,0.009836814343596961,
0.055810473815461344,0.015985816929036754,
0.055860349127182046,0.02080463027128952,
0.05591022443890274,0.027644962610807785,
0.055960099750623445,0.03358662169292534,
0.05600997506234414,0.00840991923438917,
0.056059850374064836,0.018968615217818313,
0.05610972568578554,-0.0007092154829642545,
0.056159600997506234,0.003116661917354272,
0.05620947630922693,0.011414932504665723,
0.05625935162094763,0.0065674035491151694,
0.05630922693266833,0.037826946660558664,
0.056359102244389024,0.01923514986883216,
0.05640897755610973,0.009883679407397292,
0.05645885286783042,0.010989997154876944,
0.056508728179551125,-0.008897723796817782,
0.05655860349127182,0.0281623790201505,
0.056608478802992516,0.024566064166912538,
0.05665835411471322,0.05037479998539778,
0.056708229426433915,0.02830135315550873,
0.05675810473815461,-0.01022452023631171,
0.05680798004987531,0.0038282330519140984,
0.05685785536159601,0.0022441313841857803,
0.05690773067331671,0.01499485421090425,
0.05695760598503741,0.016030096135091355,
0.0570074812967581,0.03744552502713806,
0.057057356608478806,0.015726994239155814,
0.0571072319201995,0.01925751927889218,
0.0571571072319202,0.026948252884109625,
0.0572069825436409,-0.0045579729405927395,
0.057256857855361595,0.0036343154096412818,
0.05730673316708229,0.0020990850655268796,
0.057356608478802994,-0.026962728877142232,
0.05740648379052369,0.01413527889739633,
0.05745635910224439,0.017316119925446623,
0.05750623441396509,0.0034120526453032957,
0.05755610972568578,0.020730574470559898,
0.057605985037406486,0.009910837221672675,
0.05765586034912718,0.044020734801355765,
0.05770573566084788,0.0013414378603170095,
0.05775561097256858,0.01281001317273089,
0.057805486284289276,0.011644400129279205,
0.05785536159600998,0.02950814854407991,
0.057905236907730674,0.03225710732359793,
0.05795511221945137,-0.0080435865455389,
0.05800498753117207,0.056239001400115805,
0.05805486284289277,0.0015988772008056797,
0.058104738154613464,0.002918186141552124,
0.05815461346633417,0.005148185673295771,
0.05820448877805486,0.007099979172709933,
0.05825436408977556,0.014487046538878535,
0.05830423940149626,0.006690411524781161,
0.058354114713216956,0.01108267849279289,
0.05840399002493766,0.024881103298129027,
0.058453865336658355,0.007112083007369219,
0.05850374064837905,0.014619036837357326,
0.05855361596009975,-0.007788192176192175,
0.05860349127182045,0.0068063653072443255,
0.058653366583541144,0.016155771684917893,
0.05870324189526185,-0.020774779755484665,
0.05875311720698254,0.02190338481551818,
0.05880299251870324,-0.004149683313079872,
0.05885286783042394,-0.00885407107104191,
0.05890274314214464,0.023135434494088516,
0.05895261845386534,0.023432550167390518,
0.059002493765586035,-0.0064790077002034995,
0.05905236907730673,0.01918068865182284,
0.059102244389027433,0.018290249538552204,
0.05915211970074813,0.010841727034110571,
0.059201995012468825,-0.0015827101572737767,
0.05925187032418953,0.009361347421409478,
0.05930174563591022,-0.014820047195757441,
0.059351620947630926,0.004553210210761164,
0.05940149625935162,0.02126540756019031,
0.05945137157107232,0.006517645212973287,
0.05950124688279302,-0.00984836923680248,
0.059551122194513716,0.01615374849312607,
0.05960099750623441,-0.019348181703162687,
0.059650872817955114,-0.029669738988005043,
0.05970074812967581,-0.02132134396452886,
0.059750623441396505,-0.015429516321897277,
0.05980049875311721,-0.001942993502499787,
0.059850374064837904,0.006002386621954752,
0.059900249376558606,0.017491325366064504,
0.0599501246882793,-0.021267805010124718,
0.06,-0.0024656409045424256,
0.0600498753117207,-0.019062062325532092,
0.060099750623441396,0.00033075363534903254,
0.06014962593516209,0.027413445709511482,
0.060199501246882794,-0.020353480432783795,
0.06024937655860349,-0.0033223040944536067,
0.06029925187032419,-0.02521965296474369,
0.06034912718204489,0.005312583459898728,
0.060399002493765584,0.00842928131276246,
0.06044887780548629,-0.0014055875495898797,
0.06049875311720698,-0.019959326982822267,
0.06054862842892768,0.000517824850433134,
0.06059850374064838,0.01029292140304823,
0.06064837905236908,-0.00530114347246298,
0.06069825436408977,0.0014410165100007524,
0.060748129675810475,0.02353743489470263,
0.06079800498753117,-0.0015606007132538992,
0.06084788029925187,-0.01647092516501407,
0.06089775561097257,-0.016323796985031114,
0.060947630922693265,0.01620054874161211,
0.06099750623441397,-0.01453543810679468,
0.06104738154613466,-0.0005534451715810441,
0.06109725685785536,-0.0037843035244765036,
0.06114713216957606,-0.013890049663779665,
0.06119700748129676,0.002607182501594918,
0.06124688279301746,0.007897476942883078,
0.061296758104738155,-0.003658427471388537,
0.06134663341645885,0.012172067763746365,
0.061396508728179554,-0.0047643827344375665,
0.06144638403990025,-0.0026295066514994583,
0.061496259351620945,0.009020651986466224,
0.06154613466334165,-0.00395163157417067,
0.061596009975062344,-0.032992514585513076,
0.06164588528678304,-0.011740640085297148,
0.06169576059850374,0.047540422207000055,
0.06174563591022444,0.02907495823373374,
0.06179551122194514,0.01149644496563466,
0.061845386533665836,-0.02617383896831784,
0.06189526184538653,-0.005069356163881182,
0.061945137157107234,-0.019760046018014576,
0.06199501246882793,-0.011939700741916201,
0.062044887780548626,-0.009095908487578812,
0.06209476309226933,-0.002975862485073237,
0.062144638403990024,-0.0029732933829350345,
0.06219451371571072,-0.013587596770193378,
0.06224438902743142,0.009971385033254544,
0.06229426433915212,-0.020243914551542543,
0.06234413965087282,-0.01906372293647321,
0.062394014962593516,-0.011221808233338097,
0.06244389027431421,0.005080585599535843,
0.062493765586034915,-0.001925069323883746,
0.06254364089775562,-0.0008292322080462131,
0.06259351620947631,-0.012291771479341754,
0.06264339152119701,0.0024731625345292673,
0.0626932668329177,0.010099258899556575,
0.0627431421446384,-0.02816056864540057,
0.0627930174563591,-0.011143231964741415,
0.0628428927680798,0.00947284760184334,
0.0628927680798005,-0.019733652106425713,
0.0629426433915212,-0.016228933156228094,
0.06299251870324189,0.015397142008946419,
0.06304239401496259,-0.0011089184559758825,
0.0630922693266833,0.02325484593062792,
0.063142144638404,-0.03440565502308909,
0.06319201995012469,0.014874352554418432,
0.06324189526184539,-0.0330001734515913,
0.06329177057356608,-0.020150722332459504,
0.06334164588528678,-0.033898428925896645,
0.06339152119700749,-0.007786292042008179,
0.06344139650872818,-0.011836496533276168,
0.06349127182044888,-0.0015687112226227626,
0.06354114713216957,0.003715570898726959,
0.06359102244389027,-0.0034045463219816822,
0.06364089775561098,-0.022922237562421822,
0.06369077306733167,-0.035784821537627895,
0.06374064837905237,-0.02781119378333024,
0.06379052369077307,-0.015036399663437764,
0.06384039900249376,0.017874844614970527,
0.06389027431421446,0.002473039208107715,
0.06394014962593517,0.003285333086647994,
0.06399002493765586,-0.011018397763649157,
0.06403990024937656,-0.01453017139215564,
0.06408977556109725,0.007340765699841913,
0.06413965087281795,-0.02093944440914981,
0.06418952618453866,-0.04273234715525489,
0.06423940149625935,-0.022021114998025986,
0.06428927680798005,-0.012943792715118405,
0.06433915211970075,-0.029723761572940433,
0.06438902743142144,0.006593226342236209,
0.06443890274314215,-0.0072189160810873145,
0.06448877805486285,0.007289946723255548,
0.06453865336658354,0.009019965504156294,
0.06458852867830424,-0.01603234735432733,
0.06463840399002493,-0.009333620903467284,
0.06468827930174563,-0.028009205041844,
0.06473815461346634,-0.005094229228682769,
0.06478802992518704,-0.02460286214078281,
0.06483790523690773,-0.027471189358200206,
0.06488778054862843,-0.019997796986094947,
0.06493765586034912,-0.01527558888996576,
0.06498753117206983,-0.01185675264339389,
0.06503740648379053,0.018036033870061488,
0.06508728179551122,-0.03283322660127446,
0.06513715710723192,-0.03454548459193633,
0.06518703241895261,-0.007991182876670343,
0.06523690773067331,-0.01200284635316068,
0.06528678304239402,-0.032528516564794836,
0.06533665835411472,-0.01847419433461414,
0.06538653366583541,-0.013276214537388895,
0.06543640897755611,-0.01956086302899071,
0.0654862842892768,-0.0075965459538342925,
0.06553615960099751,-0.020290823639391553,
0.06558603491271821,0.01567895451935593,
0.0656359102244389,-0.026272534907865117,
0.0656857855361596,-0.006766166645116678,
0.0657356608478803,0.001632316966660663,
0.06578553615960099,-0.010295135588120426,
0.0658354114713217,-0.009596397539683485,
0.0658852867830424,-0.027643536080582936,
0.06593516209476309,0.02457486982735796,
0.06598503740648379,0.012641198493839462,
0.06603491271820448,-0.019660784097656085,
0.06608478802992519,-0.024854521953504266,
0.06613466334164589,-0.0007786403388363172,
0.06618453865336658,-0.014787016562260728,
0.06623441396508728,-0.046845556386978335,
0.06628428927680798,-0.03125776222232239,
0.06633416458852869,0.007948312875996837,
0.06638403990024938,-0.017537140906952915,
0.06643391521197008,-0.03168785890361734,
0.06648379052369077,-0.0200454835134347,
0.06653366583541147,-0.020032175977461226,
0.06658354114713216,0.0014242380177209042,
0.06663341645885287,-0.019341936603315648,
0.06668329177057357,0.013838751772779836,
0.06673316708229426,-0.017857357124599713,
0.06678304239401496,-0.030055662746892628,
0.06683291770573566,-0.015421161121645342,
0.06688279301745637,-0.025031726118846975,
0.06693266832917706,-0.025739597706812712,
0.06698254364089776,-0.019073861288366783,
0.06703241895261845,-0.006529078838339572,
0.06708229426433915,-0.01441812179105153,
0.06713216957605984,-0.021410093744767454,
0.06718204488778055,-0.002055949303242147,
0.06723192019950125,0.0009269763601638982,
0.06728179551122195,-0.012020045302918713,
0.06733167082294264,-0.015528129914462443,
0.06738154613466334,0.004381199007696072,
0.06743142144638405,-0.01087681613817592,
0.06748129675810474,-0.02171965365135603,
0.06753117206982544,0.008979803377080696,
0.06758104738154613,-0.02084788492452513,
0.06763092269326683,-0.004966685127505307,
0.06768079800498752,-0.012058567877341012,
0.06773067331670823,-0.023468888997742292,
0.06778054862842893,-0.0019046778778865504,
0.06783042394014963,0.0009865413920267093,
0.06788029925187032,0.00203785474164608,
0.06793017456359102,-0.022710646883543226,
0.06798004987531173,0.016274946970198458,
0.06802992518703242,0.01581398907434466,
0.06807980049875312,0.00204620847378235,
0.06812967581047381,0.03000271531297383,
0.06817955112219451,-0.010554646333816475,
0.0682294264339152,0.0009322233413115513,
0.06827930174563591,0.008682462510969557,
0.06832917705735661,-0.012762559932128666,
0.0683790523690773,-0.023924984077395343,
0.068428927680798,-0.019507283996075844,
0.0684788029925187,-0.032168500351041976,
0.06852867830423941,0.03425737538813557,
0.0685785536159601,0.01920820254859427,
0.0686284289276808,0.01660141276693664,
0.0686783042394015,-0.011334007183890077,
0.06872817955112219,0.0047738427797767375,
0.0687780548628429,-0.012787210776945408,
0.0688279301745636,0.00040281981913608904,
0.06887780548628429,-0.0054721117412499035,
0.06892768079800499,0.018207426156664708,
0.06897755610972568,-0.02620184690687828,
0.06902743142144638,0.0011518258972999147,
0.06907730673316709,0.00705331652650403,
0.06912718204488778,-0.0005285952460332582,
0.06917705735660848,0.014855259307695629,
0.06922693266832917,0.008006778749537258,
0.06927680798004987,0.009546327744890672,
0.06932668329177058,-0.011949002213898888,
0.06937655860349128,-0.007142709496080413,
0.06942643391521197,-0.0003765065116340372,
0.06947630922693267,0.009851035599802632,
0.06952618453865336,-0.005947527587234772,
0.06957605985037406,0.03231740744343897,
0.06962593516209477,0.00979317459889336,
0.06967581047381546,0.014384415703859774,
0.06972568578553616,0.03438489788749356,
0.06977556109725686,-0.002230571950492583,
0.06982543640897755,0.023785773297391354,
0.06987531172069826,0.008388663008963284,
0.06992518703241896,0.018057535709389217,
0.06997506234413965,0.03283868026525173,
0.07002493765586035,0.005128421344569863,
0.07007481296758104,0.029888949273398267,
0.07012468827930174,-0.011361536619832625,
0.07017456359102245,0.042770137527682314,
0.07022443890274314,0.022313970239776583,
0.07027431421446384,0.02210368840345004,
0.07032418952618454,0.007770863654534802,
0.07037406483790523,0.023549137068538603,
0.07042394014962594,0.023855505075468714,
0.07047381546134664,0.00023157934184183347,
0.07052369077306733,0.004042106599799093,
0.07057356608478803,0.025015373777463917,
0.07062344139650872,0.006584082338296135,
0.07067331670822943,0.029522977994452974,
0.07072319201995013,0.006825033406740712,
0.07077306733167082,-0.005064264048036919,
0.07082294264339152,0.029049275484910115,
0.07087281795511222,0.009294350120077047,
0.07092269326683291,0.010015105158634732,
0.07097256857855362,0.002802019069188073,
0.07102244389027432,0.02448660609837033,
0.07107231920199501,0.0016321285384163393,
0.07112219451371571,-0.013939029367724039,
0.0711720698254364,0.01737546683629945,
0.07122194513715711,0.020313540464263015,
0.07127182044887781,-0.004123225472107774,
0.0713216957605985,0.016324001617151942,
0.0713715710723192,0.016126528695228064,
0.0714214463840399,0.007215011689395529,
0.07147132169576059,0.015741855318345186,
0.0715211970074813,-0.011211582324423226,
0.071571072319202,0.021326632115275967,
0.0716209476309227,0.014908478485321657,
0.07167082294264339,0.020363789629650516,
0.07172069825436408,0.011333352348426723,
0.0717705735660848,0.02570259872653336,
0.07182044887780549,0.006833745638309062,
0.07187032418952619,0.036282923268038406,
0.07192019950124688,0.02511966676100696,
0.07197007481296758,-0.004099715412975238,
0.07201995012468827,0.02009271710278168,
0.07206982543640898,0.02128208591047749,
0.07211970074812968,-0.004685944749212228,
0.07216957605985037,0.016853200817570566,
0.07221945137157107,0.004240808674235316,
0.07226932668329177,0.015942848113093197,
0.07231920199501247,0.01174328496669709,
0.07236907730673317,0.017828983848996317,
0.07241895261845387,0.033458899188106794,
0.07246882793017456,0.0067144791900377795,
0.07251870324189526,0.04029045361991759,
0.07256857855361595,0.013694471079774733,
0.07261845386533666,-0.023942990911524256,
0.07266832917705736,0.030465684677287507,
0.07271820448877805,0.03454583319369246,
0.07276807980049875,0.0324680152818512,
0.07281795511221945,0.01627542899096333,
0.07286783042394016,0.021748987824887423,
0.07291770573566085,-0.0014745008876481669,
0.07296758104738155,0.03823976834300806,
0.07301745635910224,0.033296038082353874,
0.07306733167082294,0.0314411466754716,
0.07311720698254365,0.028802841845891988,
0.07316708229426434,0.046014351441154205,
0.07321695760598504,-0.001355868341642863,
0.07326683291770573,0.031998793019221504,
0.07331670822942643,0.008753772345225619,
0.07336658354114713,0.01536975549034671,
0.07341645885286784,0.03568970807626015,
0.07346633416458853,0.02371444456970573,
0.07351620947630923,0.026562279008630226,
0.07356608478802992,0.02343770392741127,
0.07361596009975062,0.017559869036325833,
0.07366583541147133,0.0032463331177799946,
0.07371571072319202,0.05731734883775102,
0.07376558603491272,0.012730992327186661,
0.07381546134663342,0.03437870052591378,
0.07386533665835411,0.034995836449840466,
0.0739152119700748,0.021105855937780818,
0.07396508728179552,0.01798760810615959,
0.07401496259351621,0.019081272802340406,
0.07406483790523691,0.019589851009716358,
0.0741147132169576,0.027153970291231715,
0.0741645885286783,0.03143498655642266,
0.07421446384039901,0.010337611507445188,
0.0742643391521197,0.01622969221370634,
0.0743142144638404,0.026034870023538787,
0.0743640897755611,0.011696990623297428,
0.07441396508728179,0.030507455179408057,
0.07446384039900249,0.019671225651096087,
0.0745137157107232,0.004484975181748764,
0.07456359102244389,0.030887735688471692,
0.07461346633416459,0.027927039684166877,
0.07466334164588528,-0.002507556040205444,
0.07471321695760598,-0.014645774310665993,
0.07476309226932669,0.043571409662008724,
0.07481296758104738,0.03429069097487228,
0.07486284289276808,-0.00042863238047726945,
0.07491271820448878,0.020897315199660094,
0.07496259351620947,0.015506902602166715,
0.07501246882793017,0.03285747950609653,
0.07506234413965088,0.006123158786466951,
0.07511221945137157,0.02020461781948599,
0.07516209476309227,0.032106721676532335,
0.07521197007481296,0.04888534624472573,
0.07526184538653366,0.04051300611063528,
0.07531172069825437,0.03089552264072593,
0.07536159600997507,0.019909144822328223,
0.07541147132169576,0.03850629260784057,
0.07546134663341646,0.006814906753917969,
0.07551122194513715,0.017058939768319292,
0.07556109725685786,0.013525322850607896,
0.07561097256857856,0.019372496506278706,
0.07566084788029925,0.029638703684407734,
0.07571072319201995,0.042084147783832,
0.07576059850374064,0.0322253619440191,
0.07581047381546134,0.00055420589061244,
0.07586034912718205,0.03218755941125231,
0.07591022443890275,0.035079638305325234,
0.07596009975062344,0.0007085272589400643,
0.07600997506234414,0.0543924773221751,
0.07605985037406483,0.014206453471543881,
0.07610972568578554,0.007692851260907636,
0.07615960099750624,0.03106270776612955,
0.07620947630922693,0.04656826859337795,
0.07625935162094763,0.013689041281120834,
0.07630922693266833,0.021284021262166407,
0.07635910224438902,0.03875650647092376,
0.07640897755610973,0.01888368588070135,
0.07645885286783043,0.021544617087520816,
0.07650872817955112,0.03030966888471061,
0.07655860349127182,-0.00030068477378009106,
0.07660847880299251,0.001823814306678117,
0.07665835411471322,0.008158216191318231,
0.07670822942643392,0.009029664953029383,
0.07675810473815461,0.021815623705982834,
0.07680798004987531,-0.017900937982172578,
0.076857855361596,0.012269680195102784,
0.0769077306733167,0.029083975741454375,
0.07695760598503741,0.0010673079346529661,
0.0770074812967581,0.03264923276892295,
0.0770573566084788,0.01864875181073826,
0.0771072319201995,0.02703496981387736,
0.0771571072319202,0.028940276646329095,
0.0772069825436409,0.021765751325925422,
0.0772568578553616,0.00718659335712706,
0.0773067331670823,0.018487846262506956,
0.07735660847880299,0.0125153568159764,
0.07740648379052369,0.013662874236754755,
0.0774563591022444,0.032660613538444766,
0.07750623441396509,6.319886163611704e-05,
0.07755610972568579,0.022449609672961245,
0.07760598503740648,0.014586114887254172,
0.07765586034912718,-0.004021450677955455,
0.07770573566084787,0.011266306237991203,
0.07775561097256858,0.014801720838072435,
0.07780548628428928,0.03354115926574827,
0.07785536159600998,0.02978324134702289,
0.07790523690773067,0.009459121925083722,
0.07795511221945137,0.01855043728014297,
0.07800498753117208,0.00771472292324861,
0.07805486284289277,0.022427479643044996,
0.07810473815461347,0.02256112359985393,
0.07815461346633416,0.01883590878034658,
0.07820448877805486,0.0010515624277841699,
0.07825436408977555,-0.018096945061572882,
0.07830423940149626,-0.006087413606257402,
0.07835411471321696,0.011314623891467252,
0.07840399002493766,0.010320969043337975,
0.07845386533665835,0.008486916590238307,
0.07850374064837905,0.03236301522564411,
0.07855361596009976,0.001843002255416698,
0.07860349127182045,-0.0164273331156123,
0.07865336658354115,-0.016786677888411917,
0.07870324189526184,0.011162713350076795,
0.07875311720698254,0.0010866190624238478,
0.07880299251870324,0.02756266841502087,
0.07885286783042394,0.008517288435802966,
0.07890274314214464,0.01770936064288804,
0.07895261845386534,0.019959567759031068,
0.07900249376558603,0.005100020208697158,
0.07905236907730673,0.01784748134143407,
0.07910224438902744,0.028566060423978946,
0.07915211970074813,0.02329140609785349,
0.07920199501246883,0.020986867674887756,
0.07925187032418952,-0.0072759015388645515,
0.07930174563591022,0.019179811465945277,
0.07935162094763092,0.012021921188399709,
0.07940149625935163,0.001216044068488356,
0.07945137157107232,0.0064898612647889785,
0.07950124688279302,0.008739063225620588,
0.07955112219451371,-0.00941734315461027,
0.07960099750623441,-0.020220506307739902,
0.07965087281795512,0.0327994309159283,
0.07970074812967581,0.0049598319110478965,
0.07975062344139651,0.009318184158262374,
0.0798004987531172,0.020578775280300318,
0.0798503740648379,0.03214399394736861,
0.07990024937655861,-0.016587812402515334,
0.0799501246882793,0.020055129307736383,
0.08,0.013549659914169229,
0.0800498753117207,-0.006964694389605634,
0.0800997506234414,-0.007363471111107631,
0.08014962593516209,-0.018364366143645623,
0.0801995012468828,0.005360016424201091,
0.0802493765586035,-0.015332516596666982,
0.08029925187032419,0.0018077604663141018,
0.08034912718204489,0.006292112971415813,
0.08039900249376558,0.004321408166926746,
0.08044887780548629,-0.0035201238848496076,
0.08049875311720699,0.018030707656560525,
0.08054862842892768,-0.019972004619337506,
0.08059850374064838,0.016885574549353594,
0.08064837905236907,0.03357432065811434,
0.08069825436408977,-0.012573051036101951,
0.08074812967581048,0.018434419575056357,
0.08079800498753117,-0.010329530877379325,
0.08084788029925187,-0.018221593630477012,
0.08089775561097257,0.017210096148374966,
0.08094763092269326,0.011130214204859979,
0.08099750623441397,0.012227197230964935,
0.08104738154613467,-0.01608477827668422,
0.08109725685785536,-0.02399029011070003,
0.08114713216957606,0.0055307690974307246,
0.08119700748129675,0.02300082212371376,
0.08124688279301745,-0.021933672584123654,
0.08129675810473816,0.01044536374120775,
0.08134663341645886,-0.0076382476434686195,
0.08139650872817955,0.0027318789175038733,
0.08144638403990025,0.025258690463571994,
0.08149625935162094,-0.02442325147012331,
0.08154613466334165,-0.009698489040989838,
0.08159600997506235,-0.0019942003336300435,
0.08164588528678304,0.004337349887104551,
0.08169576059850374,-0.009071598705181639,
0.08174563591022443,0.0016842828369963833,
0.08179551122194513,-0.013972708424708033,
0.08184538653366584,-0.013670580225501605,
0.08189526184538654,0.018338021949441168,
0.08194513715710723,-0.01717815068298689,
0.08199501246882793,0.016367075554601256,
0.08204488778054862,-0.018362157291085406,
0.08209476309226933,-0.02212410287058989,
0.08214463840399003,-0.002679900216037377,
0.08219451371571072,-0.009960920724170916,
0.08224438902743142,-0.003003558052535261,
0.08229426433915212,-0.05082095723361095,
0.08234413965087282,-0.007699103948382676,
0.08239401496259352,-0.011625939854207889,
0.08244389027431422,0.016720283739837628,
0.08249376558603491,-0.009148839552884227,
0.08254364089775561,-0.0033932326349344075,
0.0825935162094763,0.004571012478152538,
0.08264339152119701,-0.015902637461354292,
0.08269326683291771,-0.012657792965345131,
0.0827431421446384,-0.0205122522793588,
0.0827930174563591,-0.013996981039414144,
0.0828428927680798,-0.0014001959597117041,
0.0828927680798005,-0.009227345110006255,
0.0829426433915212,-0.037323597662388214,
0.0829925187032419,-0.004437140692929945,
0.08304239401496259,-0.012403261431396029,
0.08309226932668329,-0.02052800684354291,
0.08314214463840398,-0.00626969998162153,
0.0831920199501247,-0.00018897659369083997,
0.08324189526184539,-0.010200267192321552,
0.08329177057356608,-0.022313174499158983,
0.08334164588528678,-0.00954229100935294,
0.08339152119700748,0.011225686634004745,
0.08344139650872819,-0.0003924357177067916,
0.08349127182044888,-0.01060909137055068,
0.08354114713216958,-0.004366718800633171,
0.08359102244389027,-0.008350017273007874,
0.08364089775561097,-0.021089878319541858,
0.08369077306733166,-0.006593290203941765,
0.08374064837905237,-0.030402911116058716,
0.08379052369077307,-0.01578104946442262,
0.08384039900249377,-0.011577479992805562,
0.08389027431421446,-0.027286213502833914,
0.08394014962593516,0.007615796911043174,
0.08399002493765587,-0.021246272332514533,
0.08403990024937656,-0.013207118761097826,
0.08408977556109726,-0.0014802536054475141,
0.08413965087281795,-0.020512721545615273,
0.08418952618453865,-0.03398099036230401,
0.08423940149625936,-0.03053233218244343,
0.08428927680798005,-0.0275009775182306,
0.08433915211970075,0.005241049480285722,
0.08438902743142145,0.021144004930392937,
0.08443890274314214,-0.002317355693126546,
0.08448877805486284,-0.011028229901702657,
0.08453865336658355,0.010537796161108634,
0.08458852867830424,-0.01484715263656281,
0.08463840399002494,-0.003281941578355964,
0.08468827930174563,-0.011895995978795463,
0.08473815461346633,-0.0002796826385539665,
0.08478802992518704,-0.013376641864771187,
0.08483790523690773,-0.005912886725988261,
0.08488778054862843,-0.02347510271215924,
0.08493765586034913,-0.03785433199018057,
0.08498753117206982,-0.0019219201985798597,
0.08503740648379052,-0.027726170938611107,
0.08508728179551123,-0.02306169428684221,
0.08513715710723192,-0.02713246107576009,
0.08518703241895262,-0.01711521721028826,
0.08523690773067331,0.011423081018679351,
0.08528678304239401,-0.0181907300769628,
0.08533665835411472,-0.026878492431853456,
0.08538653366583542,-0.03665119395472921,
0.08543640897755611,-0.024577026460774642,
0.0854862842892768,0.006659551716866097,
0.0855361596009975,-0.031041751050621312,
0.0855860349127182,0.007821451718138951,
0.08563591022443891,-0.005252694679672573,
0.0856857855361596,-0.015062961494718828,
0.0857356608478803,-0.04679180189460594,
0.085785536159601,-0.014330752176994031,
0.08583541147132169,-0.03182837446589627,
0.0858852867830424,-0.020427140279929458,
0.0859351620947631,-0.018041068575090836,
0.08598503740648379,0.011284206208510495,
0.08603491271820449,0.022102418246734912,
0.08608478802992518,-0.006834622448714685,
0.08613466334164588,0.001479544005516257,
0.08618453865336659,-0.02747017034970115,
0.08623441396508728,-0.01413419819171647,
0.08628428927680798,-0.027045501266957477,
0.08633416458852868,-0.023500910178273382,
0.08638403990024937,0.004671461614382108,
0.08643391521197008,0.0013023143462549368,
0.08648379052369078,-0.019324337312426908,
0.08653366583541147,-0.039026195229697205,
0.08658354114713217,-0.04365797201139469,
0.08663341645885286,0.006604620963817798,
0.08668329177057357,-0.040136390812090694,
0.08673316708229427,-0.014900411172022704,
0.08678304239401496,0.03312098069379877,
0.08683291770573566,-0.0031226655526229215,
0.08688279301745636,-0.034318591447978886,
0.08693266832917705,0.010782543024219849,
0.08698254364089776,-0.009335070522261258,
0.08703241895261846,-0.0021303618244430302,
0.08708229426433915,0.016246872410289357,
0.08713216957605985,0.00981846395615681,
0.08718204488778054,-0.021733196358752753,
0.08723192019950125,-0.000544608575843558,
0.08728179551122195,-0.021787369080127714,
0.08733167082294264,-0.021661555400494,
0.08738154613466334,-0.017323403874407797,
0.08743142144638404,-0.0014973521793659045,
0.08748129675810473,0.020891044975570518,
0.08753117206982544,0.01011759061701156,
0.08758104738154614,-0.0023809027225530897,
0.08763092269326683,-0.009516911200525089,
0.08768079800498753,0.0033205973464156555,
0.08773067331670822,-0.005695135071613893,
0.08778054862842893,-0.004766137677110404,
0.08783042394014963,-0.012435409793524733,
0.08788029925187033,0.008051948803870524,
0.08793017456359102,-0.027319238358861724,
0.08798004987531172,-0.04009455871330238,
0.08802992518703241,0.007741892803206097,
0.08807980049875312,0.005313482131313325,
0.08812967581047382,0.01995203759592728,
0.08817955112219451,-0.00945724464550052,
0.08822942643391521,-0.01707136629896637,
0.0882793017456359,-0.0012869883941624225,
0.08832917705735661,0.02376943589650169,
0.08837905236907731,-0.02013535573138759,
0.088428927680798,0.01420473919327451,
0.0884788029925187,0.00021979147531082975,
0.0885286783042394,0.0026142478377848798,
0.0885785536159601,0.008547661501614654,
0.0886284289276808,-0.007690157802979813,
0.0886783042394015,-0.0170148246357189,
0.0887281795511222,0.022331486058838224,
0.08877805486284289,0.013796739319002823,
0.08882793017456359,0.015346610615367646,
0.0888778054862843,0.025994954504451894,
0.08892768079800499,0.021982260632820362,
0.08897755610972569,-0.02612340531842472,
0.08902743142144638,0.0004609734294754599,
0.08907730673316708,0.028563201023124814,
0.08912718204488779,0.005113536659040099,
0.08917705735660848,0.00916322808465168,
0.08922693266832918,0.0034430945057508534,
0.08927680798004987,-0.0009432677439367211,
0.08932668329177057,0.014599577517991387,
0.08937655860349127,0.028634805700831465,
0.08942643391521198,-0.004172369721179115,
0.08947630922693267,0.008600421345800151,
0.08952618453865337,0.024719326364810928,
0.08957605985037406,0.006049788400038482,
0.08962593516209476,0.0097914482335635,
0.08967581047381547,0.008491623134031507,
0.08972568578553616,-0.008525880968561548,
0.08977556109725686,0.025484825784490715,
0.08982543640897755,-0.02419942699063827,
0.08987531172069825,0.0008704474393723457,
0.08992518703241895,-0.0025513023090136984,
0.08997506234413966,0.027134219283308947,
0.09002493765586035,0.02297505793316303,
0.09007481296758105,0.0010802766209549878,
0.09012468827930174,0.038916702794914916,
0.09017456359102244,0.013322219228228894,
0.09022443890274315,0.005672716817383368,
0.09027431421446384,-0.01028024174971574,
0.09032418952618454,0.004035442879662008,
0.09037406483790524,-0.014091040734688316,
0.09042394014962593,0.049100997302143526,
0.09047381546134663,0.019653572320631477,
0.09052369077306734,0.020413527826584586,
0.09057356608478803,0.026485355803256,
0.09062344139650873,0.027839420930936137,
0.09067331670822942,-0.01824605657980881,
0.09072319201995012,0.017130509434448875,
0.09077306733167083,-0.000447356837231622,
0.09082294264339152,0.034710613494518094,
0.09087281795511222,0.01544663274725455,
0.09092269326683292,0.007967924235474651,
0.09097256857855361,0.02379695129363501,
0.09102244389027432,0.02167387165030888,
0.09107231920199502,0.01689553796269777,
0.09112219451371571,0.01702451833660868,
0.09117206982543641,0.002024625268198098,
0.0912219451371571,0.029867262176975287,
0.0912718204488778,-0.012739716019124336,
0.09132169576059851,0.014714497262673154,
0.0913715710723192,0.03694644410473236,
0.0914214463840399,0.02241432820133488,
0.0914713216957606,0.010296508918603314,
0.09152119700748129,0.015268212142952226,
0.091571072319202,0.0016501865999472877,
0.0916209476309227,0.035603766450370444,
0.09167082294264339,0.01218653614365944,
0.09172069825436409,0.011619114198277911,
0.09177057356608478,0.022329519810447084,
0.09182044887780548,0.004064182744386791,
0.09187032418952619,0.005628400111213216,
0.09192019950124689,0.019103254833477173,
0.09197007481296758,0.02228951851679969,
0.09201995012468828,0.015206124023244848,
0.09206982543640897,-0.004285942278157814,
0.09211970074812968,0.007526196822361756,
0.09216957605985038,0.0036227831766327684,
0.09221945137157107,0.0049714104087135585,
0.09226932668329177,0.020686057650697767,
0.09231920199501246,0.0042761463232554,
0.09236907730673316,-0.00015669120472771442,
0.09241895261845387,0.018714925371509955,
0.09246882793017457,-0.012540148093874794,
0.09251870324189526,0.01575132058691263,
0.09256857855361596,-0.013728123502661137,
0.09261845386533665,0.04683720051955265,
0.09266832917705736,0.0037613957844936687,
0.09271820448877806,0.0011163659872728167,
0.09276807980049875,0.024972918286826722,
0.09281795511221945,0.03141297881115482,
0.09286783042394015,0.0267284086575792,
0.09291770573566084,0.02617116478056942,
0.09296758104738155,0.018261308869585935,
0.09301745635910225,0.028126359707216265,
0.09306733167082294,0.043904766415072155,
0.09311720698254364,0.027761397034584693,
0.09316708229426433,0.049914508334427926,
0.09321695760598504,0.031133917985308842,
0.09326683291770574,0.043233643413191025,
0.09331670822942643,0.032403897624794696,
0.09336658354114713,0.031204908246622347,
0.09341645885286783,0.058007120373568755,
0.09346633416458854,0.060515956876493304,
0.09351620947630923,0.021030067329627644,
0.09356608478802993,0.020225899987751136,
0.09361596009975062,0.021250463384728524,
0.09366583541147132,0.032160600826971,
0.09371571072319201,0.02171949300371865,
0.09376558603491272,0.029443454156696476,
0.09381546134663342,0.025866979145900904,
0.09386533665835411,0.04178200987370182,
0.09391521197007481,0.058743530879417555,
0.0939650872817955,0.002714098759022756,
0.09401496259351622,0.030728423407763203,
0.09406483790523691,0.019412912883307112,
0.09411471321695761,0.02395626112932963,
0.0941645885286783,0.031243815990541275,
0.094214463840399,0.007165697661863386,
0.0942643391521197,0.024323905024312836,
0.0943142144638404,0.014735802360292084,
0.0943640897755611,0.021100021618759127,
0.0944139650872818,0.0112526503224342,
0.09446384039900249,0.021463149330488825,
0.09451371571072319,0.024482696122472995,
0.0945635910224439,0.03176184564403223,
0.09461346633416459,0.03462753966547255,
0.09466334164588529,0.05026595373371546,
0.09471321695760598,0.0347812490241965,
0.09476309226932668,0.008963305787209854,
0.09481296758104737,0.017225476112207184,
0.09486284289276808,0.03441255408708854,
0.09491271820448878,0.04231798901434221,
0.09496259351620948,0.03396387248875003,
0.09501246882793017,0.04227997940598842,
0.09506234413965087,0.03235361700930493,
0.09511221945137158,0.016790930731800713,
0.09516209476309227,0.035489705957659864,
0.09521197007481297,0.029886606262053847,
0.09526184538653366,0.037987471778195066,
0.09531172069825436,0.04641507803390767,
0.09536159600997507,0.05103612563293076,
0.09541147132169576,-0.009559339004609563,
0.09546134663341646,0.013743381722557898,
0.09551122194513716,0.054681595534757266,
0.09556109725685785,0.03836524174332201,
0.09561097256857855,0.03075728079036935,
0.09566084788029926,0.01937298150972845,
0.09571072319201995,0.010703578536819778,
0.09576059850374065,0.026352315795925858,
0.09581047381546134,0.0377696720099161,
0.09586034912718204,0.04349730789701164,
0.09591022443890275,0.02376516667101833,
0.09596009975062345,0.012259343687364269,
0.09600997506234414,0.014151168376643757,
0.09605985037406484,0.025342589394528808,
0.09610972568578553,0.002180365353514742,
0.09615960099750623,0.018336153098069203,
0.09620947630922694,0.014461975749458185,
0.09625935162094763,0.02255713970317122,
0.09630922693266833,0.07451067503558767,
0.09635910224438902,0.006350827997120754,
0.09640897755610972,0.006467942510490009,
0.09645885286783043,0.004859869827106997,
0.09650872817955113,0.029855741160137707,
0.09655860349127182,0.006138272230391841,
0.09660847880299252,0.020735472292458982,
0.09665835411471321,0.04267269011501286,
0.09670822942643391,0.048290391482580644,
0.09675810473815462,0.019801653866595218,
0.09680798004987531,0.0016732454499393291,
0.09685785536159601,0.010144891702668114,
0.0969077306733167,0.02277849177468046,
0.0969576059850374,0.030279981736706867,
0.09700748129675811,0.01184364304602365,
0.0970573566084788,0.021246020981672862,
0.0971072319201995,0.015983357041176913,
0.0971571072319202,0.029291448587727628,
0.0972069825436409,0.027784599005378007,
0.09725685785536159,0.01733324202704844,
0.0973067331670823,0.02331191453943841,
0.097356608478803,-0.001829110642768795,
0.09740648379052369,0.011270018179057513,
0.09745635910224439,0.017176583354115437,
0.09750623441396508,0.012445710692820858,
0.09755610972568579,0.012937842576944211,
0.09760598503740649,0.0016585014521298229,
0.09765586034912718,0.03351612120446265,
0.09770573566084788,0.015816106237781354,
0.09775561097256857,0.04229792939478499,
0.09780548628428928,0.02986959744328037,
0.09785536159600998,0.02981744086655807,
0.09790523690773068,0.029808391506185847,
0.09795511221945137,0.015223416707084313,
0.09800498753117207,-0.02488938686645338,
0.09805486284289276,-0.013548174666572287,
0.09810473815461347,0.006225413895519187,
0.09815461346633417,0.009067655961869698,
0.09820448877805486,0.006211858022301434,
0.09825436408977556,0.031026598057858706,
0.09830423940149625,0.0021766624928483552,
0.09835411471321696,0.03612225832330844,
0.09840399002493766,0.015254879013841384,
0.09845386533665836,0.025185939996784895,
0.09850374064837905,0.038090690283518414,
0.09855361596009975,0.020523859585978712,
0.09860349127182044,0.01412304513891435,
0.09865336658354115,0.03165280387290498,
0.09870324189526185,0.00812496152469043,
0.09875311720698254,0.03328127322762795,
0.09880299251870324,0.011127444735834189,
0.09885286783042393,0.038895357991730876,
0.09890274314214464,0.030247565888193648,
0.09895261845386534,0.01450601846421126,
0.09900249376558604,0.01797437828299376,
0.09905236907730673,-0.0017828927079540594,
0.09910224438902743,-0.008640350491913003,
0.09915211970074812,0.010342409181901059,
0.09920199501246883,-0.0032831528194825488,
0.09925187032418953,0.041027293288358316,
0.09930174563591022,0.04366017005283998,
0.09935162094763092,0.006005208851605255,
0.09940149625935162,0.030643125895115718,
0.09945137157107233,0.024350180665181374,
0.09950124688279302,-0.02068093415514792,
0.09955112219451372,0.028312477356877454,
0.09960099750623441,-0.004292631567576546,
0.09965087281795511,0.004921620127208294,
0.0997007481296758,0.001726940517386151,
0.09975062344139651,0.011448213513774345,
0.09980049875311721,0.02761725814106168,
0.0998503740648379,0.0045687808337714535,
0.0999002493765586,-0.0027524111780921137,
0.0999501246882793,0.007430266530685544,
0.1,-0.014053821909773678,
0.1000498753117207,-0.0030551379423845934,
0.1000997506234414,-0.021134845960049282,
0.10014962593516209,0.03191402272052781,
0.10019950124688279,-0.010110516280768124,
0.1002493765586035,-0.0011366034037196219,
0.1002992518703242,0.0029597660664009446,
0.10034912718204489,0.025686755439100137,
0.10039900249376559,-0.005759812982966062,
0.10044887780548628,-0.004499990295339266,
0.10049875311720698,0.03401985390237477,
0.10054862842892769,0.0014321110101348509,
0.10059850374064838,0.01453805045377269,
0.10064837905236908,0.006186159864679857,
0.10069825436408977,-0.03290816963233441,
0.10074812967581047,0.009437354891489023,
0.10079800498753118,-0.01077100681198718,
0.10084788029925187,0.017163409162782504,
0.10089775561097257,0.01733930593017296,
0.10094763092269327,0.01150300135778369,
0.10099750623441396,0.021859036027196663,
0.10104738154613466,0.002592362792610285,
0.10109725685785537,0.018123720551189652,
0.10114713216957606,-0.009713853209958233,
0.10119700748129676,0.005002459569817296,
0.10124688279301745,-0.027265684492002923,
0.10129675810473815,0.007980825034724543,
0.10134663341645886,-0.012070143399076201,
0.10139650872817955,0.0017430898134358904,
0.10144638403990025,0.0037879332082445885,
0.10149625935162095,-0.006733690602373367,
0.10154613466334164,0.0036882722306729896,
0.10159600997506234,0.016021175067574937,
0.10164588528678305,-0.006062626115661464,
0.10169576059850374,0.009083391163681205,
0.10174563591022444,-0.02495150930086344,
0.10179551122194513,0.00725286281041511,
0.10184538653366583,0.012420239436402225,
0.10189526184538654,0.02551480603085645,
0.10194513715710724,0.01284713444483273,
0.10199501246882793,-0.02010887075699473,
0.10204488778054863,-0.0016975756492544763,
0.10209476309226932,0.0035152330258139183,
0.10214463840399003,-0.038374161230245646,
0.10219451371571073,0.013828803018791365,
0.10224438902743142,0.010885829600091285,
0.10229426433915212,0.01990196493268252,
0.10234413965087281,-0.019129071550218514,
0.10239401496259351,-0.010534377039457319,
0.10244389027431422,0.010294115645302651,
0.10249376558603492,-0.0076279937856407075,
0.10254364089775561,-0.008361222644062239,
0.10259351620947631,-0.018312391080464466,
0.102643391521197,0.0030619495111036555,
0.10269326683291771,0.00964427284826118,
0.10274314214463841,-0.011254824443263737,
0.1027930174563591,-0.008657146458822984,
0.1028428927680798,0.00880325585543351,
0.1028927680798005,-0.00995532717166636,
0.10294264339152119,-0.0008629798221025473,
0.1029925187032419,-0.0213014704213891,
0.1030423940149626,0.022956960985731634,
0.10309226932668329,-0.008658295511558925,
0.10314214463840399,-0.005211664228431137,
0.10319201995012468,-0.032082054629046355,
0.10324189526184539,0.014825680374350763,
0.10329177057356609,-0.013966962249201456,
0.10334164588528678,-0.028447593303914324,
0.10339152119700748,-0.008346482004669106,
0.10344139650872818,-0.02368525411524488,
0.10349127182044887,-0.021215399085853258,
0.10354114713216958,-0.011720617447585222,
0.10359102244389028,-0.015080621867263926,
0.10364089775561097,0.016063676216286512,
0.10369077306733167,-0.007650671493321657,
0.10374064837905236,-0.001837100076671313,
0.10379052369077307,0.0025654856856453367,
0.10384039900249377,0.013371533274636156,
0.10389027431421446,-0.03940127487261545,
0.10394014962593516,-0.022950210000885873,
0.10399002493765586,-0.03155468737487853,
0.10403990024937655,-0.012526579519886932,
0.10408977556109726,-0.008079076040859137,
0.10413965087281796,-0.031502973499054586,
0.10418952618453865,0.004894784406383548,
0.10423940149625935,0.001992418930652202,
0.10428927680798004,0.017331802346455115,
0.10433915211970075,-0.003659862700342586,
0.10438902743142145,-0.043358766313288784,
0.10443890274314215,-0.007261401299521545,
0.10448877805486284,-0.03449994776364236,
0.10453865336658354,-0.0011469953479596902,
0.10458852867830425,-0.03338608253515231,
0.10463840399002494,-0.01972233975400178,
0.10468827930174564,0.01080874257921731,
0.10473815461346633,-0.02122382423860831,
0.10478802992518703,-0.00519953508247138,
0.10483790523690772,-0.03020524760253295,
0.10488778054862843,-0.022182922091430586,
0.10493765586034913,0.0033017094773296098,
0.10498753117206983,-0.04236557541853176,
0.10503740648379052,-0.005344005134956421,
0.10508728179551122,-0.007940157123764205,
0.10513715710723193,-0.029385199337161154,
0.10518703241895262,-0.028132964057294464,
0.10523690773067332,-0.02842530617208563,
0.10528678304239401,0.03350303722506273,
0.10533665835411471,6.891581325583866e-05,
0.1053865336658354,-0.007795965901663762,
0.10543640897755611,-0.017504550880628626,
0.10548628428927681,-0.013351505021245767,
0.1055361596009975,-0.0149917678637824,
0.1055860349127182,-0.01557570843187853,
0.1056359102244389,-0.015091103321147045,
0.10568578553615961,0.006507321728583324,
0.1057356608478803,-0.027820831151088327,
0.105785536159601,-0.012085572135914808,
0.1058354114713217,0.011285353492043489,
0.10588528678304239,-0.012433901003857419,
0.10593516209476309,-0.02270636448258271,
0.1059850374064838,-0.007233295726812401,
0.10603491271820449,-0.04274206659064316,
0.10608478802992519,-0.0013245325312205534,
0.10613466334164588,-0.007519960761481806,
0.10618453865336658,0.00041753660476816223,
0.10623441396508729,-0.007485866136059236,
0.10628428927680798,0.006775393420067978,
0.10633416458852868,-0.008915292542876417,
0.10638403990024937,-0.02217832021496494,
0.10643391521197007,-0.04045648577027454,
0.10648379052369077,-0.02090250670575132,
0.10653366583541148,-0.0236613474825652,
0.10658354114713217,-0.021067618617000183,
0.10663341645885287,-0.012990229656564318,
0.10668329177057356,0.014519784256568904,
0.10673316708229426,-0.02170240402076482,
0.10678304239401497,-0.010486558958216428,
0.10683291770573566,0.008193845235246347,
0.10688279301745636,-0.021477547715467386,
0.10693266832917706,-0.008725714523020916,
0.10698254364089775,-0.02564352926069746,
0.10703241895261846,-0.007536004474851504,
0.10708229426433916,0.006019141418737994,
0.10713216957605985,-0.024582164245920416,
0.10718204488778055,-0.027749138496880044,
0.10723192019950124,0.010190531709856423,
0.10728179551122194,-0.00999829530378881,
0.10733167082294265,-0.002632630323603867,
0.10738154613466334,0.0016641358964721983,
0.10743142144638404,0.004811443509495191,
0.10748129675810474,0.0024166332982234317,
0.10753117206982543,0.0065891787536960875,
0.10758104738154614,-0.004155164715477737,
0.10763092269326684,-0.015701978836631443,
0.10768079800498753,-0.02515603714595141,
0.10773067331670823,-0.04188585645209103,
0.10778054862842892,0.014094589919145879,
0.10783042394014962,0.008750587346406305,
0.10788029925187033,-0.0006986938644452634,
0.10793017456359102,-0.009059160812427816,
0.10798004987531172,-0.02173873426053563,
0.10802992518703242,-0.009509034622444243,
0.10807980049875311,0.005499674659932038,
0.10812967581047382,-0.0191344884559998,
0.10817955112219452,-0.03727493016978787,
0.10822942643391521,-0.006858464673873067,
0.10827930174563591,0.012228205651289879,
0.1083291770573566,0.004889189384004024,
0.1083790523690773,0.006004463360701688,
0.10842892768079801,-0.011776022875968888,
0.1084788029925187,0.0008065246321568662,
0.1085286783042394,-0.01324565864970638,
0.1085785536159601,-0.011350343691016986,
0.10862842892768079,0.017476229869600353,
0.1086783042394015,-0.0058115921758159555,
0.1087281795511222,-0.019057457751021436,
0.1087780548628429,-0.002826705026165932,
0.10882793017456359,0.009541870305242506,
0.10887780548628428,-0.011400918709436748,
0.108927680798005,0.01101458989590166,
0.10897755610972569,0.008875430944579904,
0.10902743142144639,-0.01897040766397991,
0.10907730673316708,-0.0005374985815495862,
0.10912718204488778,-0.022885305826340557,
0.10917705735660847,0.035641753269486556,
0.10922693266832918,0.011850173651817071,
0.10927680798004988,0.011598761243997259,
0.10932668329177057,0.03908051293124068,
0.10937655860349127,-0.008712814852851372,
0.10942643391521197,0.002263184505139885,
0.10947630922693267,0.0040986674589349546,
0.10952618453865337,-0.015144276400427833,
0.10957605985037407,0.008449447198536856,
0.10962593516209476,-0.00020696135746962538,
0.10967581047381546,0.029771355446261225,
0.10972568578553615,0.004470401523116179,
0.10977556109725686,0.002114885856128155,
0.10982543640897756,0.011178440507559792,
0.10987531172069825,-0.0037848043146005324,
0.10992518703241895,0.003352065606542872,
0.10997506234413965,0.011407789158585285,
0.11002493765586036,0.007805253828392654,
0.11007481296758105,0.031345141964547664,
0.11012468827930175,-0.007066763733050261,
0.11017456359102244,0.009668238586961874,
0.11022443890274314,0.007938080662497616,
0.11027431421446383,-0.009923158553388337,
0.11032418952618454,0.005418540590480976,
0.11037406483790524,0.013525951494447727,
0.11042394014962593,0.040502070475658916,
0.11047381546134663,0.002149010339421366,
0.11052369077306733,-0.008799245527430138,
0.11057356608478804,-0.026226616397278,
0.11062344139650873,-0.005045436962701516,
0.11067331670822943,0.019368332408335687,
0.11072319201995012,0.0039506786199831525,
0.11077306733167082,0.007366230675481817,
0.11082294264339151,0.019045126264760688,
0.11087281795511222,-0.0026303424612148726,
0.11092269326683292,-0.0011999131772238436,
0.11097256857855362,0.03934142807891879,
0.11102244389027431,0.031064076954587756,
0.111072319201995,-0.0019024372057835429,
0.11112219451371572,0.005944244002588188,
0.11117206982543641,0.013043310738007668,
0.11122194513715711,0.023523121111335376,
0.1112718204488778,0.030629112616951483,
0.1113216957605985,0.03473157120976835,
0.11137157107231921,0.01798421656046398,
0.1114214463840399,0.022038951501294514,
0.1114713216957606,0.02460208386807765,
0.1115211970074813,0.02083120329400658,
0.11157107231920199,0.0309616115799444,
0.11162094763092269,0.020039212972070758,
0.1116708229426434,-0.02999004671565894,
0.11172069825436409,0.028122548307879594,
0.11177057356608479,-0.006196720849770514,
0.11182044887780548,0.03126313997701102,
0.11187032418952618,0.029925154465436296,
0.11192019950124689,0.026954717779465082,
0.11197007481296758,0.02533792837697146,
0.11201995012468828,0.018471267629004064,
0.11206982543640898,0.03813448811698878,
0.11211970074812967,0.030787511995110504,
0.11216957605985037,0.02973580085243349,
0.11221945137157108,0.04415748179793536,
0.11226932668329177,-0.0005318597927567378,
0.11231920199501247,0.04750261318634902,
0.11236907730673316,0.022609435357143975,
0.11241895261845386,0.010908907774738642,
0.11246882793017457,0.00904351373723422,
0.11251870324189527,0.028848362255778387,
0.11256857855361596,0.008012658217624667,
0.11261845386533666,0.04501442339403626,
0.11266832917705735,0.022888397628829757,
0.11271820448877805,0.037811669626968525,
0.11276807980049876,0.013788245782175615,
0.11281795511221945,-0.0061813523619404925,
0.11286783042394015,0.0205141870799337,
0.11291770573566084,0.019878504266686334,
0.11296758104738154,0.01650957376080208,
0.11301745635910225,0.037837869144205886,
0.11306733167082295,0.04925633455442183,
0.11311720698254364,0.03451429349155931,
0.11316708229426434,0.00855468142566172,
0.11321695760598503,0.05166730740158202,
0.11326683291770574,0.02865955780265341,
0.11331670822942644,0.01915029411350328,
0.11336658354114713,0.036973971028519244,
0.11341645885286783,0.006980507273231823,
0.11346633416458853,0.061702588882144,
0.11351620947630922,0.0415051654969006,
0.11356608478802993,0.03665600925227737,
0.11361596009975063,0.02835561037698418,
0.11366583541147132,0.020352958856609187,
0.11371571072319202,0.03203327302833481,
0.11376558603491271,0.0461338013783949,
0.11381546134663342,0.03127969272828815,
0.11386533665835412,0.038875613284552954,
0.11391521197007481,-0.0010247587597866786,
0.11396508728179551,0.04902494558118321,
0.1140149625935162,0.04022819599694619,
0.1140648379052369,0.05638404277146612,
0.11411471321695761,0.04485076339981328,
0.1141645885286783,0.040006283320118304,
0.114214463840399,0.034045715942938204,
0.1142643391521197,0.05285326688922948,
0.1143142144638404,0.0015572440146448645,
0.1143640897755611,0.02647922051655078,
0.1144139650872818,0.04089901317577158,
0.1144638403990025,0.0023225382932930486,
0.11451371571072319,0.03628155719792265,
0.11456359102244389,0.03467495625265332,
0.11461346633416458,0.025173530517695396,
0.11466334164588529,0.04135067266405267,
0.11471321695760599,0.02796399432651083,
0.11476309226932668,0.014221221511341848,
0.11481296758104738,0.011720790022220245,
0.11486284289276807,0.04605653126820117,
0.11491271820448878,0.03599401204650827,
0.11496259351620948,0.010175073008735897,
0.11501246882793018,0.06238631222954486,
0.11506234413965087,0.020674413653959434,
0.11511221945137157,0.02226111840467376,
0.11516209476309226,0.021168131796000994,
0.11521197007481297,0.03675284988958187,
0.11526184538653367,0.02409317274622807,
0.11531172069825436,0.022272562614091752,
0.11536159600997506,0.048790444014945505,
0.11541147132169575,0.05241232794398398,
0.11546134663341646,0.04199230572979347,
0.11551122194513716,0.030913749149913298,
0.11556109725685786,0.02041930451520028,
0.11561097256857855,0.007802303858622694,
0.11566084788029925,0.013609780916994066,
0.11571072319201996,0.02799331378002089,
0.11576059850374065,0.030038800038298223,
0.11581047381546135,0.00988436044411407,
0.11586034912718204,0.03677044027168953,
0.11591022443890274,0.01241617018626593,
0.11596009975062344,0.02159900283785409,
0.11600997506234415,0.024168559117490038,
0.11605985037406484,0.024682448135654338,
0.11610972568578554,0.023590603624986637,
0.11615960099750623,0.02487203380079426,
0.11620947630922693,-0.005676392660652736,
0.11625935162094764,0.039067680535157814,
0.11630922693266833,0.025572751105605696,
0.11635910224438903,0.020641283896488935,
0.11640897755610972,-0.0023596223259373973,
0.11645885286783042,0.01458040459994593,
0.11650872817955112,0.030596190674848187,
0.11655860349127183,0.031207072346267937,
0.11660847880299252,0.023444053690817594,
0.11665835411471322,0.048388508304414435,
0.11670822942643391,0.022665678047842315,
0.11675810473815461,0.021759098800813635,
0.11680798004987532,0.03247050568014037,
0.11685785536159601,0.02145050281051139,
0.11690773067331671,0.017777644625782407,
0.1169576059850374,0.006193722174264418,
0.1170074812967581,0.022758786479171903,
0.1170573566084788,0.02053465705292159,
0.1171072319201995,0.058290600491843314,
0.1171571072319202,0.028428645286754563,
0.1172069825436409,0.030098233179761853,
0.1172568578553616,0.04375073108302803,
0.11730673316708229,0.007964098224454774,
0.117356608478803,0.0075374710396195685,
0.1174064837905237,0.013357374052690807,
0.11745635910224439,0.002126285232459193,
0.11750623441396509,0.0322780493881555,
0.11755610972568578,0.0379564169067826,
0.11760598503740648,0.003965800723881471,
0.11765586034912719,0.022951228496842883,
0.11770573566084788,0.036152138461190086,
0.11775561097256858,0.014896750315084514,
0.11780548628428927,0.026447455728478172,
0.11785536159600997,0.034187987191708,
0.11790523690773068,0.019880366709109205,
0.11795511221945137,0.01884584688134518,
0.11800498753117207,0.0169449841958621,
0.11805486284289277,0.03375945825888907,
0.11810473815461346,0.0002727329903898304,
0.11815461346633417,0.02597586740426404,
0.11820448877805487,0.009637505050748011,
0.11825436408977556,0.013391734448670294,
0.11830423940149626,0.026879745801489666,
0.11835411471321695,0.02293031674362719,
0.11840399002493765,-0.010480033329207755,
0.11845386533665836,0.03252559577993588,
0.11850374064837906,-0.0030594104778618077,
0.11855361596009975,0.019851890566259158,
0.11860349127182045,-0.008753094995715874,
0.11865336658354114,0.019520891114083515,
0.11870324189526185,0.018462564735244623,
0.11875311720698255,0.019887963346642185,
0.11880299251870324,0.014617073593798578,
0.11885286783042394,-0.003962810416634165,
0.11890274314214463,0.013202400185032815,
0.11895261845386533,0.014297679630830005,
0.11900249376558604,0.0007743140616664236,
0.11905236907730674,0.007568427205762475,
0.11910224438902743,-0.012596303173380499,
0.11915211970074813,0.021532894704623294,
0.11920199501246882,0.019013294227342926,
0.11925187032418953,-0.006766219219444765,
0.11930174563591023,0.006126702044256567,
0.11935162094763092,-0.0006351429275269719,
0.11940149625935162,0.006545169748849879,
0.11945137157107232,-0.01119605910208505,
0.11950124688279301,0.002170774087677919,
0.11955112219451372,0.008647981381025115,
0.11960099750623442,0.026415624109533947,
0.11965087281795511,0.022517637036785703,
0.11970074812967581,-0.0003043139431856811,
0.1197506234413965,0.01985887269394608,
0.11980049875311721,-0.00430381400204289,
0.11985037406483791,0.027977254643976674,
0.1199002493765586,-0.00019528608488435933,
0.1199501246882793,0.020152187719300187,
0.12,0.0027683863736727814,
0.1200498753117207,-0.011615032319176176,
0.1200997506234414,-0.013418018208932085,
0.1201496259351621,0.024305205986521104,
0.12019950124688279,0.008399801309669875,
0.12024937655860349,0.015899336357584164,
0.12029925187032418,-0.005822845592605952,
0.1203491271820449,-0.010804454295183858,
0.12039900249376559,0.014506499826087227,
0.12044887780548628,0.011123976665926068,
0.12049875311720698,-0.009067398999361818,
0.12054862842892768,-0.000581816044171935,
0.12059850374064839,0.0037088092851359383,
0.12064837905236908,0.00010401410243992973,
0.12069825436408978,0.01740597157404748,
0.12074812967581047,-0.004014100647347366,
0.12079800498753117,0.00855618817692393,
0.12084788029925186,-0.005313035279437873,
0.12089775561097257,0.026432680259988954,
0.12094763092269327,0.018565472517955605,
0.12099750623441397,0.021138821916811424,
0.12104738154613466,0.0016049780087540005,
0.12109725685785536,-0.017492554552090887,
0.12114713216957607,-0.005751065251408474,
0.12119700748129676,-0.00017652364665337423,
0.12124688279301746,-0.007884843434973757,
0.12129675810473815,-0.013844635576073006,
0.12134663341645885,0.0006239136329598419,
0.12139650872817954,-0.00809914817886679,
0.12144638403990025,-0.014505595940376377,
0.12149625935162095,-0.0028870300968277295,
0.12154613466334165,0.0009411906895764348,
0.12159600997506234,0.011921824025670586,
0.12164588528678304,0.016410688606717093,
0.12169576059850375,-0.010707670841372328,
0.12174563591022444,-0.005218136235102274,
0.12179551122194514,-0.0076229439517321715,
0.12184538653366583,-0.009172556120539962,
0.12189526184538653,0.00369403773287355,
0.12194513715710723,-0.0317113419910419,
0.12199501246882793,0.0018140201866237134,
0.12204488778054863,0.0219925325736249,
0.12209476309226933,-0.019381350651716887,
0.12214463840399002,0.003402293699765752,
0.12219451371571072,0.00681805712709108,
0.12224438902743143,-0.018426083257121608,
0.12229426433915212,-0.008514311188606516,
0.12234413965087282,-0.026500234193116465,
0.12239401496259351,-0.0002690418726140958,
0.12244389027431421,-0.01468527133643579,
0.12249376558603492,-0.005397025625797493,
0.12254364089775562,-0.004566106995170297,
0.12259351620947631,-0.009313462296374073,
0.122643391521197,-0.01988029789983217,
0.1226932668329177,0.0183390871008669,
0.1227431421446384,0.014098279813206606,
0.12279301745635911,0.02133548290075488,
0.1228428927680798,-0.030440932106564053,
0.1228927680798005,0.00013540647391393698,
0.1229426433915212,-0.009679361235417069,
0.12299251870324189,0.005501711595954188,
0.1230423940149626,-0.027439258178536208,
0.1230922693266833,-0.008422491046178837,
0.12314214463840399,0.011789691029281535,
0.12319201995012469,-0.018240622845169002,
0.12324189526184538,0.006635319112582853,
0.12329177057356608,-0.021807840292243513,
0.12334164588528679,-0.021002950930686968,
0.12339152119700748,0.0037011185031072154,
0.12344139650872818,0.0003305505984782641,
0.12349127182044888,-0.003528596248703412,
0.12354114713216957,-0.02130388945493656,
0.12359102244389028,0.01773230659328503,
0.12364089775561098,-0.047192415601686764,
0.12369077306733167,0.006652663072563399,
0.12374064837905237,-0.0072532986578115405,
0.12379052369077306,-0.014251850942478474,
0.12384039900249376,-0.010241178205783808,
0.12389027431421447,-0.014088521200904952,
0.12394014962593516,-0.01830990057508194,
0.12399002493765586,-0.01979608517818944,
0.12403990024937656,-0.02625671981745821,
0.12408977556109725,-0.004501528969504737,
0.12413965087281796,-0.0043278293258470785,
0.12418952618453866,-0.050698388681580143,
0.12423940149625935,-0.008576210814491954,
0.12428927680798005,-0.006264496995364348,
0.12433915211970074,-0.010526732473053595,
0.12438902743142144,0.00012411733911681447,
0.12443890274314215,0.0003321105892872163,
0.12448877805486284,-0.0029232186861649625,
0.12453865336658354,-0.0016694713926865938,
0.12458852867830424,0.008562458069963927,
0.12463840399002493,-0.0163583309433684,
0.12468827930174564,-0.012227089984619473,
0.12473815461346634,0.0007926878614369949,
0.12478802992518703,-0.008613034075349057,
0.12483790523690773,-0.004296580704613514,
0.12488778054862842,-0.013589638665885893,
0.12493765586034913,0.016183860908880587,
0.12498753117206983,-0.04217886504655897,
0.12503740648379053,-0.009839651951457721,
0.12508728179551123,-0.02696772825963855,
0.12513715710723192,-0.01805568344214801,
0.12518703241895263,-0.0095532128636188,
0.1252369077306733,-0.02110470858735123,
0.12528678304239402,0.009919068622173023,
0.1253366583541147,-0.012885563953832434,
0.1253865336658354,-0.044146975019918294,
0.12543640897755612,-0.026069004884494283,
0.1254862842892768,-0.013129673490752402,
0.1255361596009975,-0.02190855610724802,
0.1255860349127182,-0.00569616630603375,
0.1256359102244389,-0.011937175456728157,
0.1256857855361596,-0.01527143350254078,
0.1257356608478803,-0.012406810035715954,
0.125785536159601,0.010742144987614494,
0.12583541147132168,0.005667351910452888,
0.1258852867830424,-0.021852231784172498,
0.1259351620947631,0.004265699764087447,
0.12598503740648379,-0.024458214671892478,
0.1260349127182045,0.008495433392146985,
0.12608478802992518,-0.0292651942274898,
0.1261346633416459,-0.007472475164032381,
0.1261845386533666,-0.017037335481402103,
0.12623441396508728,-0.018608806829706358,
0.126284289276808,0.004098329368434026,
0.12633416458852867,-0.00248318886667547,
0.12638403990024938,-0.031010948614163078,
0.1264339152119701,-0.022514793451265468,
0.12648379052369077,0.0008513233338585547,
0.12653366583541148,-0.01987102885289976,
0.12658354114713216,-0.0054959720705197515,
0.12663341645885287,0.002917630883243096,
0.12668329177057355,-0.02957544561928386,
0.12673316708229426,-0.043214470989268894,
0.12678304239401497,-0.02749055604122896,
0.12683291770573565,-0.039543170093352814,
0.12688279301745636,0.007618166919495172,
0.12693266832917705,-0.007102600604745982,
0.12698254364089775,-0.027103393887016505,
0.12703241895261846,0.004800696430325543,
0.12708229426433915,-0.029669168277726813,
0.12713216957605986,-0.030828719781115826,
0.12718204488778054,0.015449987118352658,
0.12723192019950125,-0.009234066564190964,
0.12728179551122196,0.02039520271565616,
0.12733167082294264,-0.010133937664630851,
0.12738154613466335,-0.0187816284595052,
0.12743142144638403,0.017549276950970482,
0.12748129675810474,-0.009227994060836246,
0.12753117206982545,0.003280858693900335,
0.12758104738154613,0.0022580889741792634,
0.12763092269326684,-0.02589767909016607,
0.12768079800498752,-0.009364331228079413,
0.12773067331670823,0.00322473536604795,
0.1277805486284289,0.0064533434996514386,
0.12783042394014962,0.008395239353566565,
0.12788029925187033,-0.0012308362933144976,
0.12793017456359101,-0.0065511721768258925,
0.12798004987531172,0.010995957664211678,
0.1280299251870324,0.0016873961023919546,
0.12807980049875312,-0.005559714682320161,
0.12812967581047383,-0.007373567100821172,
0.1281795511221945,-0.0329926046185355,
0.12822942643391522,0.008012841561538935,
0.1282793017456359,-0.0011941206077757402,
0.1283291770573566,-0.026895122233520922,
0.12837905236907732,0.042152787633363886,
0.128428927680798,0.0018445474267372035,
0.1284788029925187,0.009360758427155957,
0.1285286783042394,-0.006639099929593417,
0.1285785536159601,0.011197556728216375,
0.1286284289276808,-0.0012880358543637736,
0.1286783042394015,-0.0005338739391691641,
0.1287281795511222,0.008270352070506835,
0.12877805486284288,-0.01994949731700383,
0.1288279301745636,0.011770978582534241,
0.1288778054862843,0.0015995959005729557,
0.12892768079800498,0.0015514545346852105,
0.1289775561097257,-0.00835859646569971,
0.12902743142144638,0.012701118902373248,
0.12907730673316709,-0.007899028489193844,
0.12912718204488777,0.011892046691415421,
0.12917705735660848,0.010629844878708428,
0.1292269326683292,0.008915036199932233,
0.12927680798004987,-0.0019231093110523827,
0.12932668329177058,0.015327057954361435,
0.12937655860349126,0.01025987131781666,
0.12942643391521197,0.03613441289481116,
0.12947630922693268,-0.009633599696262981,
0.12952618453865336,0.02319940218427276,
0.12957605985037407,0.028875484783125235,
0.12962593516209475,0.017772206301612394,
0.12967581047381546,0.013215268027828657,
0.12972568578553617,0.029985367170153883,
0.12977556109725685,0.03527591872562201,
0.12982543640897756,-0.02756358437973656,
0.12987531172069824,0.01120195463706322,
0.12992518703241895,0.0044044553625625146,
0.12997506234413966,0.01256033298162626,
0.13002493765586035,0.010129325840397068,
0.13007481296758105,-0.0018942558680011233,
0.13012468827930174,0.020096248020492813,
0.13017456359102245,-0.0161806187999696,
0.13022443890274316,0.04992690617348129,
0.13027431421446384,0.02522620855525924,
0.13032418952618455,0.03602018388450869,
0.13037406483790523,0.0007029421418888234,
0.13042394014962594,0.03348145448674948,
0.13047381546134662,0.002468876420166091,
0.13052369077306733,0.01613901259544491,
0.13057356608478804,-0.002026642377957147,
0.13062344139650872,0.023110908069858042,
0.13067331670822943,0.0324238839376545,
0.1307231920199501,-0.0009392912574053558,
0.13077306733167082,0.01204345326012271,
0.13082294264339153,0.009075439850884286,
0.13087281795511221,0.022902423249852148,
0.13092269326683292,0.0025057923751233176,
0.1309725685785536,-0.0027219489760110897,
0.13102244389027431,0.016200557876785808,
0.13107231920199502,0.033337326442063955,
0.1311221945137157,0.02185920055545021,
0.13117206982543642,0.013680056945966527,
0.1312219451371571,0.04322295109973312,
0.1312718204488778,0.009683506642416727,
0.13132169576059852,-0.003841477003106577,
0.1313715710723192,0.026492360829964097,
0.1314214463840399,0.025036867944398754,
0.1314713216957606,0.0358456040962349,
0.1315211970074813,0.011102796072981794,
0.13157107231920198,0.037424886767617765,
0.1316209476309227,0.0018737379437098398,
0.1316708229426434,0.02058100565259835,
0.13172069825436408,0.004846720941376649,
0.1317705735660848,0.005625039634965662,
0.13182044887780547,0.02359164509157819,
0.13187032418952618,0.022427837229809962,
0.1319201995012469,0.04284800722628766,
0.13197007481296757,0.026630828713929095,
0.13201995012468828,0.03849542293774376,
0.13206982543640897,0.03438813996949333,
0.13211970074812968,0.05024394916241554,
0.13216957605985039,0.022693920951296204,
0.13221945137157107,0.011547121118507085,
0.13226932668329178,0.020373693545279372,
0.13231920199501246,0.030886382069956274,
0.13236907730673317,0.01779137975134949,
0.13241895261845388,0.026854016682222016,
0.13246882793017456,0.0020623888610592847,
0.13251870324189527,0.024547787573679793,
0.13256857855361595,-0.0053436164788513985,
0.13261845386533666,0.05594352372549463,
0.13266832917705737,0.025048863340751338,
0.13271820448877805,0.034573156903035064,
0.13276807980049876,0.03214171296459264,
0.13281795511221944,0.009182153131644957,
0.13286783042394015,0.036543806035259044,
0.13291770573566083,0.018256819791347252,
0.13296758104738154,0.03833415629088342,
0.13301745635910225,0.025429442333840133,
0.13306733167082294,0.026053299175819902,
0.13311720698254365,0.024849273688365932,
0.13316708229426433,0.00889943439888197,
0.13321695760598504,0.005222560065851405,
0.13326683291770575,0.010252396294707387,
0.13331670822942643,0.0439859396390682,
0.13336658354114714,0.025857877397573815,
0.13341645885286782,0.02404255154703057,
0.13346633416458853,0.043212745340195105,
0.13351620947630924,0.050201097800692866,
0.13356608478802992,0.04067433518792691,
0.13361596009975063,0.011206753649072334,
0.1336658354114713,0.024461842597464974,
0.13371571072319202,0.04202737526166549,
0.13376558603491273,0.03327331046123826,
0.1338154613466334,0.02834297531191308,
0.13386533665835412,0.03585318258211374,
0.1339152119700748,0.042290488811663605,
0.13396508728179551,0.020173515909197196,
0.1340149625935162,0.031439535077713986,
0.1340648379052369,0.05898542476174444,
0.13411471321695762,0.008075944384370686,
0.1341645885286783,0.032931765017574124,
0.134214463840399,0.018939089538896857,
0.1342643391521197,0.03735932830937056,
0.1343142144638404,0.019108197057803554,
0.1343640897755611,0.01862750307799691,
0.1344139650872818,0.034222600269923735,
0.1344638403990025,0.027076410755236587,
0.13451371571072318,0.038536509257740784,
0.1345635910224439,0.05383673641568218,
0.1346134663341646,0.03523377211798519,
0.13466334164588528,0.006748488323138138,
0.134713216957606,0.03457846077683548,
0.13476309226932667,0.03188106125305123,
0.13481296758104738,0.01772442903112263,
0.1348628428927681,0.03846355438422359,
0.13491271820448877,0.04113301431479907,
0.13496259351620948,0.04598567304361113,
0.13501246882793017,0.05027419020546862,
0.13506234413965088,0.03095102609672964,
0.13511221945137158,0.08574085898352435,
0.13516209476309227,0.03228258964159836,
0.13521197007481298,0.0312564625664249,
0.13526184538653366,-0.008498415356251163,
0.13531172069825437,-0.0010294809713074574,
0.13536159600997505,0.033700237886774946,
0.13541147132169576,0.031895651751437035,
0.13546134663341647,0.04902115282531777,
0.13551122194513715,0.014112120095170228,
0.13556109725685786,0.01746118284725451,
0.13561097256857854,0.01602383841786839,
0.13566084788029925,0.04227560570523696,
0.13571072319201996,0.029630003191568333,
0.13576059850374064,0.033613536992618216,
0.13581047381546135,0.005425395775357226,
0.13586034912718203,0.05083974957757893,
0.13591022443890274,0.025488732282619733,
0.13596009975062345,0.027922591342578098,
0.13600997506234414,0.03235247722769722,
0.13605985037406484,0.009020113582342452,
0.13610972568578553,0.06139545701449754,
0.13615960099750624,0.01346325889570924,
0.13620947630922695,0.03942914466317546,
0.13625935162094763,0.027677087032611958,
0.13630922693266834,0.02079803345107548,
0.13635910224438902,0.021624080397574123,
0.13640897755610973,0.029369886179898073,
0.1364588528678304,0.05125524967704634,
0.13650872817955112,0.04378542996815751,
0.13655860349127183,0.0343198545487638,
0.1366084788029925,0.029350432814967378,
0.13665835411471322,0.023393373131560848,
0.1367082294264339,0.03533933657823544,
0.1367581047381546,0.021901445166308556,
0.13680798004987532,0.007185589544986631,
0.136857855361596,0.022255393410870728,
0.1369077306733167,0.04776726750520978,
0.1369576059850374,0.01788839345753461,
0.1370074812967581,0.03310906372108251,
0.13705735660847881,0.03154409204845494,
0.1371072319201995,0.02422486954804792,
0.1371571072319202,0.034691693113772376,
0.1372069825436409,0.03579532567096341,
0.1372568578553616,0.0295723590962058,
0.1373067331670823,0.058815268756152186,
0.137356608478803,0.0030120617047374176,
0.1374064837905237,0.013619435728034245,
0.13745635910224438,0.016654599497842273,
0.1375062344139651,0.02745593848682303,
0.1375561097256858,0.02514198871115915,
0.13760598503740648,0.021158285314174564,
0.1376558603491272,0.03970541458312425,
0.13770573566084787,0.023412505607945402,
0.13775561097256858,0.0072079882470547085,
0.13780548628428926,0.03223505175662129,
0.13785536159600997,0.029614075810140975,
0.13790523690773068,0.030013659706485285,
0.13795511221945136,0.010366706207817393,
0.13800498753117207,0.026337158503475542,
0.13805486284289276,0.02485867122818691,
0.13810473815461347,0.05090325351811216,
0.13815461346633418,0.011632721211852468,
0.13820448877805486,0.013025965519273056,
0.13825436408977557,0.014337598956540049,
0.13830423940149625,0.016102572424553156,
0.13835411471321696,0.022010266244039484,
0.13840399002493767,0.027377583007828214,
0.13845386533665835,0.01707895400079195,
0.13850374064837906,0.005821324391575084,
0.13855361596009974,0.035850553819326184,
0.13860349127182045,0.025939182982889553,
0.13865336658354116,0.01914973473733342,
0.13870324189526184,0.016623739342105464,
0.13875311720698255,0.005355366345020474,
0.13880299251870323,0.005074238491028796,
0.13885286783042394,0.010489384124030315,
0.13890274314214462,0.009630870236627936,
0.13895261845386533,-0.03302063130931022,
0.13900249376558604,-0.010319881462429722,
0.13905236907730673,0.03517673709529483,
0.13910224438902744,0.033149188588660214,
0.13915211970074812,0.0036907495562113115,
0.13920199501246883,0.014209157668842622,
0.13925187032418954,0.006626454061983241,
0.13930174563591022,0.02362839719864939,
0.13935162094763093,0.003025448784923149,
0.1394014962593516,-0.004377661222238604,
0.13945137157107232,0.012628925492867616,
0.13950124688279303,0.02399187504786265,
0.1395511221945137,-0.00033766512614358084,
0.13960099750623442,0.012616704660678765,
0.1396508728179551,0.01020481944685974,
0.1397007481296758,0.02923455052913665,
0.13975062344139652,-0.004926880362008354,
0.1398004987531172,0.01104439631334149,
0.1398503740648379,0.031779355038942685,
0.1399002493765586,0.024832529619995616,
0.1399501246882793,0.0008713528642593851,
0.14,-0.003764930632798152,
0.1400498753117207,0.013544408582603239,
0.1400997506234414,0.004253226326457154,
0.1401496259351621,-0.006410859600450099,
0.1401995012468828,0.019327873606707707,
0.14024937655860348,-0.005903927718247227,
0.1402992518703242,-0.00023351285966197958,
0.1403491271820449,0.030986959351943698,
0.14039900249376558,0.014319064007471124,
0.1404488778054863,0.04306368739724725,
0.14049875311720697,-0.0014821035042273173,
0.14054862842892768,0.009987793201097961,
0.1405985037406484,0.0050232609421916544,
0.14064837905236907,0.007182094478685935,
0.14069825436408978,-0.006619361132260199,
0.14074812967581046,0.02867152040113907,
0.14079800498753117,0.016985535327753966,
0.14084788029925188,0.022146586994447215,
0.14089775561097256,-0.0018733496302417284,
0.14094763092269327,0.009028987585858711,
0.14099750623441396,0.0034033055183734515,
0.14104738154613466,-0.020217802413863745,
0.14109725685785537,0.020713505843506487,
0.14114713216957606,0.008210715482934582,
0.14119700748129677,0.008051078031339065,
0.14124688279301745,-0.009953746287765452,
0.14129675810473816,0.016157832271981733,
0.14134663341645887,0.02836939995631524,
0.14139650872817955,-0.00010565130920286157,
