time,amplitude,label
0.0,0.04017247136447252,
4.987531172069826e-05,0.029509077515390333,
9.975062344139652e-05,0.025675763276020617,
0.00014962593516209475,0.026648487172792275,
0.00019950124688279303,0.01603630063872248,
0.00024937655860349125,-0.001124449612353258,
0.0002992518703241895,-0.00453211447608487,
0.00034912718204488776,0.036316636401669086,
0.00039900249376558606,0.015927488228318142,
0.0004488778054862843,0.023399593721150067,
0.0004987531172069825,0.019223121950438914,
0.0005486284289276808,0.019798409549815536,
0.000598503740648379,0.02086064272013389,
0.0006483790523690773,0.02595402650590445,
0.0006982543640897755,0.0037824397842255875,
0.0007481296758104738,0.032830894088268045,
0.0007980049875311721,0.0038241087028394617,
0.0008478802992518703,0.018273731433386137,
0.0008977556109725686,-0.003274978468169723,
0.0009476309226932668,0.0117549907839883,
0.000997506234413965,0.004138070204046735,
0.0010473815461346633,0.014176408227011996,
0.0010972568578553616,0.024618484656559136,
0.00114713216957606,0.014499228439875523,
0.001197007481296758,0.04253902335312168,
0.0012468827930174563,0.024829441550543715,
0.0012967581047381546,0.009225215398662456,
0.001346633416458853,0.011118714055176018,
0.001396508728179551,0.017831998464570262,
0.0014463840399002493,0.022482714352349845,
0.0014962593516209476,-0.006843518761058973,
0.001546134663341646,0.020963637621265012,
0.0015960099750623442,-0.0069637546675674015,
0.0016458852867830423,0.01899644707626013,
0.0016957605985037406,0.027138592147854607,
0.001745635910224439,0.014868970124205681,
0.0017955112219451373,-0.024779844362742352,
0.0018453865336658353,-0.01689808882961106,
0.0018952618453865336,0.01800649723674099,
0.001945137157107232,-0.027514480398494856,
0.00199501246882793,0.018164049383843785,
0.0020448877805486283,0.023510066179725553,
0.0020947630922693266,0.025485017012412153,
0.002144638403990025,0.004552848561190719,
0.0021945137157107233,0.01446822548080804,
0.0022443890274314216,0.010737789201559789,
0.00229426433915212,-0.014776125589678928,
0.0023441396508728177,0.018201826829292937,
0.002394014962593516,0.02759220558049278,
0.0024438902743142144,0.016782962650222128,
0.0024937655860349127,-0.0013946958487608008,
0.002543640897755611,0.016950460986838792,
0.0025935162094763093,0.025018198365702495,
0.0026433915211970076,0.022748484951164716,
0.002693266832917706,0.020357947433709625,
0.002743142144638404,-0.01922423459073044,
0.002793017456359102,0.010324577857094935,
0.0028428927680798004,0.013732720187658707,
0.0028927680798004987,0.019323668864059815,
0.002942643391521197,0.011173005673452408,
0.0029925187032418953,0.026411999512380893,
0.0030423940149625936,-0.024591572617616582,
0.003092269326683292,0.010894076872702035,
0.00314214463840399,0.009395955323355992,
0.0031920199501246885,0.01544344006407745,
0.0032418952618453864,0.024725820472145485,
0.0032917705735660847,-0.012039310762390029,
0.003341645885286783,0.023603702370716108,
0.0033915211970074813,0.012889553111355197,
0.0034413965087281796,-0.0024509512907974406,
0.003491271820448878,-0.013585000632175884,
0.003541147132169576,0.002682068575405859,
0.0035910224438902745,0.003713084466540409,
0.0036408977556109724,0.0042365195102385626,
0.0036907730673316707,-0.010594471355173912,
0.003740648379052369,0.0076412767665839446,
0.0037905236907730673,-0.007890040456359004,
0.0038403990024937656,0.016134063313272374,
0.003890274314214464,0.023231494906687977,
0.003940149625935162,-0.014916955215731914,
0.00399002493765586,-0.0021352490496062324,
0.004039900249376558,0.011244047930265202,
0.004089775561097257,0.0004958732015513819,
0.004139650872817955,-0.024233131380932135,
0.004189526184538653,0.008724810006339158,
0.004239401496259352,-0.01363452386489835,
0.00428927680798005,-0.0018404845166505742,
0.004339152119700748,-0.020056491367329274,
0.0043890274314214465,0.006476142755228195,
0.004438902743142145,-0.012053984907870876,
0.004488778054862843,0.007473992683357853,
0.004538653366583541,-0.009548136444940942,
0.00458852867830424,-0.013834271035944194,
0.004638403990024938,-0.0007213896822416514,
0.0046882793017456355,-0.023307903905516392,
0.004738154613466334,0.01949568418737201,
0.004788029925187032,-0.004977122801168266,
0.00483790523690773,-0.016536913178950674,
0.004887780548628429,-0.014312651849355543,
0.004937655860349127,-0.008336350410522123,
0.004987531172069825,0.006062270888426516,
0.005037406483790524,-0.022565833756111195,
0.005087281795511222,-0.014950416989918933,
0.00513715710723192,-0.010429500427624184,
0.0051870324189526185,0.013184524387246495,
0.005236907730673317,0.004771437369444648,
0.005286783042394015,0.013376283768403571,
0.0053366583541147134,-0.010268650831105362,
0.005386533665835412,0.01050197885725664,
0.00543640897755611,0.007767446071846642,
0.005486284289276808,-0.0010397812305230538,
0.005536159600997507,-8.280505245067925e-05,
0.005586034912718204,-0.020899982913102397,
0.005635910224438902,0.015202625887994193,
0.005685785536159601,-0.016136588302064547,
0.005735660847880299,-0.004298147563991231,
0.005785536159600997,-0.0027742478004118727,
0.005835411471321696,-0.033722635882242356,
0.005885286783042394,-0.014143408135520709,
0.005935162094763092,-0.010547367188490166,
0.0059850374064837905,-0.015516361074421907,
0.006034912718204489,-0.014618209043401555,
0.006084788029925187,0.008150037801977966,
0.0061346633416458855,-0.02685424980762805,
0.006184538653366584,-0.033681793814847254,
0.006234413965087282,-0.023647370410003206,
0.00628428927680798,-0.0038820978747214005,
0.006334164588528679,-0.002612635271448312,
0.006384039900249377,-0.006335809035956267,
0.006433915211970074,-0.0019329786760083813,
0.006483790523690773,-0.011949837478673345,
0.006533665835411471,-0.02373691417686694,
0.006583541147132169,-0.030316292411113572,
0.006633416458852868,-0.03523887071418424,
0.006683291770573566,-0.019878694305135784,
0.006733167082294264,-0.004805830244284678,
0.0067830423940149626,-0.013232978090950767,
0.006832917705735661,-0.016593838472743917,
0.006882793017456359,-0.03291579582985263,
0.0069326683291770575,0.021461060827540956,
0.006982543640897756,-0.02974828744825463,
0.007032418952618454,-0.01569126538161214,
0.007082294264339152,-0.0025848130113248994,
0.007132169576059851,-0.017120264250999048,
0.007182044887780549,-0.029979994264053463,
0.007231920199501247,-0.00586215058011055,
0.007281795511221945,-0.0381969874526742,
0.007331670822942643,0.00792004615695116,
0.007381546134663341,-0.014079571891994078,
0.00743142144638404,-0.0222120130899293,
0.007481296758104738,-0.03974972494923214,
0.007531172069825436,-0.035872107350622656,
0.007581047381546135,-0.019457566618428106,
0.007630922693266833,0.009636030185980925,
0.007680798004987531,-0.01533481209905315,
0.0077306733167082295,-0.013693054865084613,
0.007780548628428928,-0.013172065028770212,
0.007830423940149626,0.016437045743862178,
0.007880299251870324,-0.02569954495424008,
0.007930174563591023,0.004353051986543531,
0.00798004987531172,-0.025153079302017378,
0.00802992518703242,-0.029769162415558312,
0.008079800498753117,-0.020444839833252824,
0.008129675810473816,-0.020549664262966803,
0.008179551122194513,-0.01087725896654872,
0.008229426433915213,-0.05418827499776156,
0.00827930174563591,-0.017126779345052127,
0.00832917705735661,-0.028337144666813134,
0.008379052369077307,-0.030221579960368172,
0.008428927680798006,-0.038800393151870526,
0.008478802992518703,-0.02483232313333662,
0.0085286783042394,-0.0271009936880325,
0.0085785536159601,-0.02573806426055762,
0.008628428927680797,-0.04389951532183095,
0.008678304239401496,-0.017825067712154766,
0.008728179551122194,-0.031143752260445346,
0.008778054862842893,-0.0437619662954684,
0.00882793017456359,-0.027421094759295044,
0.00887780548628429,-0.03076714881509193,
0.008927680798004987,-0.018491442940886626,
0.008977556109725686,-0.02747878697220993,
0.009027431421446384,-0.04074202214140926,
0.009077306733167083,-0.03226217206668692,
0.00912718204488778,-0.04476977602391426,
0.00917705735660848,-0.0017414161788137754,
0.009226932668329177,0.0007460376840237315,
0.009276807980049876,0.002643052329222448,
0.009326683291770574,-0.02740241428478814,
0.009376558603491271,0.000992637690884094,
0.00942643391521197,-0.01226363672506834,
0.009476309226932668,-0.030600852591846518,
0.009526184538653367,-0.027591557208529943,
0.009576059850374064,-0.020634104319727786,
0.009625935162094763,-0.016403627782990867,
0.00967581047381546,-0.01237825989264468,
0.00972568578553616,-0.017725497757435062,
0.009775561097256857,-0.022798858524450582,
0.009825436408977557,0.002842459760763444,
0.009875311720698254,-0.019009028446221387,
0.009925187032418953,-0.019726669374822894,
0.00997506234413965,-0.020274873551890466,
0.01002493765586035,-0.01856401571915558,
0.010074812967581047,-0.03714823268351447,
0.010124688279301746,-0.0315999286576147,
0.010174563591022444,0.02029900410765233,
0.010224438902743141,-0.040980204771670886,
0.01027431421446384,-0.011976217291318925,
0.010324189526184538,-0.01073981556894913,
0.010374064837905237,-0.0005075515181352536,
0.010423940149625935,-0.010013382531101228,
0.010473815461346634,0.013035227760871609,
0.010523690773067331,-0.0115418066934781,
0.01057356608478803,0.005276514201267129,
0.010623441396508728,0.0008573324781093791,
0.010673316708229427,0.008590468184154603,
0.010723192019950124,-0.013960187478718777,
0.010773067331670824,-0.008153990052247529,
0.010822942643391521,-0.019446026645347718,
0.01087281795511222,-0.011294440729185656,
0.010922693266832918,-0.010244737109304142,
0.010972568578553617,-0.04440596438931123,
0.011022443890274314,-0.015163834214197062,
0.011072319201995013,0.0005629681150086246,
0.01112219451371571,-0.032803057871364706,
0.011172069825436408,-0.027107153268860776,
0.011221945137157107,0.005264101138245526,
0.011271820448877805,0.008320904012379463,
0.011321695760598504,-0.02088984368355415,
0.011371571072319201,-0.008717787858305293,
0.0114214463840399,-0.012244598594433106,
0.011471321695760598,0.006837504243093722,
0.011521197007481297,-0.018557787021289573,
0.011571072319201995,-0.015974933773722007,
0.011620947630922694,0.01008135958073637,
0.011670822942643391,-0.02481233812428331,
0.01172069825436409,-0.01696137929537036,
0.011770573566084788,-0.007225592676667461,
0.011820448877805487,0.013912889542086424,
0.011870324189526184,-0.02656776769856448,
0.011920199501246884,-0.019044469199485124,
0.011970074812967581,0.0007850533314461092,
0.012019950124688279,0.0033857030034476192,
0.012069825436408978,-0.004358406934969774,
0.012119700748129675,-0.008993683191579102,
0.012169576059850374,-0.005007199705356071,
0.012219451371571072,-0.029268197699302168,
0.012269326683291771,-0.004843171480988317,
0.012319201995012468,0.01616380365229068,
0.012369077306733168,-0.025572084179958623,
0.012418952618453865,-0.017230799369994738,
0.012468827930174564,-0.011121821022663536,
0.012518703241895262,-0.009874634308072547,
0.01256857855361596,0.02305905901097875,
0.012618453865336658,-0.018234351354707273,
0.012668329177057357,-0.020924455898328056,
0.012718204488778055,0.007925450416853035,
0.012768079800498754,-0.013034185480895393,
0.012817955112219451,0.008794124607056041,
0.012867830423940149,-0.005665601056920878,
0.012917705735660848,0.004487848608521602,
0.012967581047381545,-0.02560255271550006,
0.013017456359102245,0.0050642526248508585,
0.013067331670822942,0.001810832822974501,
0.013117206982543641,-0.0049717458907191855,
0.013167082294264339,-0.01931650957818837,
0.013216957605985038,0.0027431429125557554,
0.013266832917705735,0.010667722915789594,
0.013316708229426434,-0.007843562512913254,
0.013366583541147132,-0.007231684205379696,
0.013416458852867831,0.012666067824676976,
0.013466334164588529,0.026728180708494306,
0.013516209476309228,0.015486264247897744,
0.013566084788029925,0.00515095178323766,
0.013615960099750624,-0.0016225341704659579,
0.013665835411471322,0.0019299468009630959,
0.01371571072319202,-0.017223623765830327,
0.013765586034912718,0.0006588504225363057,
0.013815461346633416,0.02008831397210125,
0.013865336658354115,0.004199428287033603,
0.013915211970074812,-0.005463360784157489,
0.013965087281795512,-0.006537314162907442,
0.014014962593516209,0.004068915895862196,
0.014064837905236908,-0.01366225437088513,
0.014114713216957606,-0.008460064988369466,
0.014164588528678305,0.028470467634807282,
0.014214463840399002,-0.009754435467664427,
0.014264339152119701,-0.00592831876417418,
0.014314214463840399,0.010771325497568984,
0.014364089775561098,7.996375400673265e-05,
0.014413965087281795,0.008339726208861586,
0.014463840399002495,0.020255688396956573,
0.014513715710723192,-0.015592843200018603,
0.01456359102244389,0.01922626295555012,
0.014613466334164589,-0.0005257448061568998,
0.014663341645885286,0.004214743543570366,
0.014713216957605985,0.03763124060335758,
0.014763092269326683,-0.011947408731012042,
0.014812967581047382,0.01824261196710597,
0.01486284289276808,0.02659060824598744,
0.014912718204488778,-0.0002967964924149337,
0.014962593516209476,0.00022406033188491006,
0.015012468827930175,0.00499156558466265,
0.015062344139650873,0.00045903132122206147,
0.015112219451371572,0.012074848525114017,
0.01516209476309227,0.024741348060125026,
0.015211970074812968,0.006175718061390223,
0.015261845386533666,0.02582193374136274,
0.015311720698254365,0.03317553439923019,
0.015361596009975062,0.018890321354941557,
0.01541147132169576,0.02056797319741252,
0.015461346633416459,0.004034861113946962,
0.015511221945137156,-0.026144756495747178,
0.015561097256857856,0.02223793257880921,
0.015610972568578553,0.02564910436009861,
0.015660847880299252,0.01758515234583324,
0.01571072319201995,0.027838414903072223,
0.015760598503740647,0.006208127803688257,
0.015810473815461346,0.022446753596700605,
0.015860349127182045,0.03698481520313575,
0.015910224438902745,0.02511794744935547,
0.01596009975062344,0.03550111623677935,
0.01600997506234414,0.03582050272778445,
0.01605985037406484,-0.0025177653104295483,
0.016109725685785538,0.026806980315419136,
0.016159600997506234,0.0067525745984158055,
0.016209476309226933,-0.00017141543908679238,
0.016259351620947632,0.012361227296545756,
0.016309226932668328,0.04315984813704789,
0.016359102244389027,0.008888047095724865,
0.016408977556109726,-0.009134493220993582,
0.016458852867830425,-0.004240592510499276,
0.01650872817955112,0.024790021094102704,
0.01655860349127182,0.006413734177236331,
0.01660847880299252,-0.012673957101094535,
0.01665835411471322,-0.002929240627979446,
0.016708229426433914,0.02082069036024097,
0.016758104738154613,0.030174480946552486,
0.016807980049875312,0.011957514942257066,
0.01685785536159601,0.028534718213448097,
0.016907730673316707,0.032676464033131576,
0.016957605985037406,0.00734500530535573,
0.017007481296758106,0.017426141642855386,
0.0170573566084788,0.010376559740319235,
0.0171072319201995,0.027601902530702237,
0.0171571072319202,0.010465633294292011,
0.0172069825436409,0.0015774167100025098,
0.017256857855361595,0.020685270450400122,
0.017306733167082294,0.036668476806513986,
0.017356608478802993,0.02778413171615926,
0.017406483790523692,0.0353356875601307,
0.017456359102244388,0.03412145287372253,
0.017506234413965087,0.021066663845903215,
0.017556109725685786,0.011565723473123969,
0.017605985037406485,0.007570997273281839,
0.01765586034912718,-0.0030980174715843772,
0.01770573566084788,0.038623749660542606,
0.01775561097256858,0.0158960605967992,
0.01780548628428928,-0.004646581241130019,
0.017855361596009974,0.039504885538085246,
0.017905236907730673,0.02246422016645228,
0.017955112219451373,0.035622127480853624,
0.018004987531172068,0.01723298547522055,
0.018054862842892767,0.00930266659990482,
0.018104738154613467,0.02792879626016337,
0.018154613466334166,0.02920799984553357,
0.01820448877805486,0.017110985784664495,
0.01825436408977556,0.04103854652696631,
0.01830423940149626,0.03553889157972821,
0.01835411471321696,0.029844636944807133,
0.018403990024937655,0.004735010664025728,
0.018453865336658354,0.002628213960236974,
0.018503740648379053,0.03937795941555944,
0.018553615960099752,-0.011435786464812907,
0.018603491271820448,0.02001647045167978,
0.018653366583541147,0.023567700313203523,
0.018703241895261846,0.014004310360586424,
0.018753117206982542,0.020797267299881465,
0.01880299251870324,0.02760373105591082,
0.01885286783042394,0.012458271421025076,
0.01890274314214464,0.0344501726486902,
0.018952618453865335,0.029923724499454026,
0.019002493765586034,0.018439935185665033,
0.019052369077306733,0.008690729194057466,
0.019102244389027433,0.019670345963694054,
0.01915211970074813,0.052628563123068677,
0.019201995012468828,0.009540536089528994,
0.019251870324189527,0.04379235869896542,
0.019301745635910226,-0.005573152196848504,
0.01935162094763092,0.007761962613905823,
0.01940149625935162,0.012448778087419777,
0.01945137157107232,0.034734326680734194,
0.01950124688279302,0.021233452743101993,
0.019551122194513715,0.03995461971640902,
0.019600997506234414,0.015209742079941007,
0.019650872817955113,0.019282711225311173,
0.01970074812967581,0.015047051127670824,
0.019750623441396508,0.050255414400993605,
0.019800498753117207,0.00293338729315017,
0.019850374064837906,0.01198718905630741,
0.019900249376558602,0.0048093960283157895,
0.0199501246882793,0.027942791068175935,
0.02,0.0020878514541234836,
0.0200498753117207,0.04639074423597529,
0.020099750623441395,0.02011998707694479,
0.020149625935162094,0.02494246089012615,
0.020199501246882794,0.025546036278114866,
0.020249376558603493,0.01813715654932876,
0.02029925187032419,0.020097405363018957,
0.020349127182044888,0.019373693251801265,
0.020399002493765587,0.02571758763643314,
0.020448877805486283,0.005415596931004116,
0.02049875311720698,0.0026881756827396228,
0.02054862842892768,0.029698145512235676,
0.02059850374064838,0.01716524862993288,
0.020648379052369076,-0.013096217801855322,
0.020698254364089775,0.009675475165672055,
0.020748129675810474,0.03955195788909428,
0.020798004987531173,0.013992011752265072,
0.02084788029925187,0.008224482899707246,
0.020897755610972568,-0.006444459271741313,
0.020947630922693267,0.00724454273592884,
0.020997506234413967,-0.0019132162051963865,
0.021047381546134662,0.021758804505126995,
0.02109725685785536,0.01583440540324098,
0.02114713216957606,0.009414033376246092,
0.02119700748129676,0.003200414554881922,
0.021246882793017455,0.037294793359060795,
0.021296758104738155,0.0035798004317318666,
0.021346633416458854,0.003393848109861765,
0.02139650872817955,0.01002856671740899,
0.02144638403990025,0.011878601315920213,
0.021496259351620948,0.02040547786996029,
0.021546134663341647,0.026878016471900537,
0.021596009975062343,0.025498731113829165,
0.021645885286783042,0.048854626987590126,
0.02169576059850374,-0.013248464875806045,
0.02174563591022444,0.015343267963707304,
0.021795511221945136,0.0038062342974511413,
0.021845386533665835,0.0414911256395286,
0.021895261845386534,0.01370728959239697,
0.021945137157107233,-0.01964564827650258,
0.02199501246882793,0.01703659188575841,
0.02204488778054863,0.014247646517883353,
0.022094763092269327,0.021331014569957,
0.022144638403990027,-0.001170505413477069,
0.022194513715710722,0.01431552868182005,
0.02224438902743142,0.005054589716559456,
0.02229426433915212,-0.0012466022143358367,
0.022344139650872816,0.013674870652794928,
0.022394014962593516,0.010534288326616167,
0.022443890274314215,0.023700211704576344,
0.022493765586034914,0.008059607672337241,
0.02254364089775561,0.016417208646928767,
0.02259351620947631,-0.011050326180184152,
0.022643391521197008,0.027680126046416113,
0.022693266832917707,-0.005195691148055165,
0.022743142144638403,0.019705060297881584,
0.022793017456359102,0.009805576028733448,
0.0228428927680798,0.007600326154025267,
0.0228927680798005,0.016656385590740883,
0.022942643391521196,-0.02715365235203194,
0.022992518703241895,-0.003962712892635702,
0.023042394014962594,0.015525460773153501,
0.02309226932668329,0.032857641586164756,
0.02314214463840399,0.003353037952808631,
0.02319201995012469,-0.03315434492473321,
0.023241895261845388,-0.0016569178343289904,
0.023291770573566083,0.0018900613675504989,
0.023341645885286783,0.01912488753418956,
0.02339152119700748,0.0028986528198985517,
0.02344139650872818,-0.017286960004022387,
0.023491271820448877,0.016006750617812458,
0.023541147132169576,0.009769493403687048,
0.023591022443890275,-0.009551095301084401,
0.023640897755610974,0.011424174469511064,
0.02369077306733167,-0.007882070301403647,
0.02374064837905237,-0.0044645560191257155,
0.023790523690773068,-0.008244903308868939,
0.023840399002493767,-0.005256324666594224,
0.023890274314214463,0.012687157484629813,
0.023940149625935162,-0.02800739988350368,
0.02399002493765586,0.015035691443686371,
0.024039900249376557,0.0008138128739966068,
0.024089775561097256,-0.007986256971078298,
0.024139650872817955,-0.0021264773652781553,
0.024189526184538655,-0.01637446484730083,
0.02423940149625935,-0.027516459285151527,
0.02428927680798005,-0.016551867010564318,
0.02433915211970075,-0.03207085004211226,
0.024389027431421448,-0.024225116164420586,
0.024438902743142144,-0.028572313209252416,
0.024488778054862843,0.013832177866107393,
0.024538653366583542,-0.024080772748714174,
0.02458852867830424,-0.005727164934161765,
0.024638403990024937,0.01135342544126463,
0.024688279301745636,0.007066334090433123,
0.024738154613466335,-0.010397560776661183,
0.02478802992518703,-0.010612762126627578,
0.02483790523690773,-0.0038334602580858785,
0.02488778054862843,0.024868162391004763,
0.02493765586034913,-0.0008969587629289394,
0.024987531172069824,0.002655428394593832,
0.025037406483790523,0.026355149678338893,
0.025087281795511222,-0.003743999746969,
0.02513715710723192,0.009038302608778631,
0.025187032418952617,-0.0012794158979270104,
0.025236907730673316,-0.0017611048292445796,
0.025286783042394016,-0.02341912106050258,
0.025336658354114715,-0.02616421756326607,
0.02538653366583541,-0.017166847999999114,
0.02543640897755611,0.0034945598657453447,
0.02548628428927681,0.002533017213914213,
0.025536159600997508,0.009767235053470732,
0.025586034912718204,-0.010640714286025909,
0.025635910224438903,-0.002648585274294143,
0.025685785536159602,-0.0028222302437891974,
0.025735660847880298,-0.01279886335596239,
0.025785536159600997,-0.01624053380225507,
0.025835411471321696,-0.033920270828486705,
0.025885286783042395,-0.014157761838593385,
0.02593516209476309,-0.013650804445785113,
0.02598503740648379,0.004707408372242625,
0.02603491271820449,0.0059723736011831115,
0.02608478802992519,-0.010547350657819601,
0.026134663341645884,0.0180107593295271,
0.026184538653366583,-0.01029346092967787,
0.026234413965087282,0.0021509729733399496,
0.02628428927680798,-0.015039748660378742,
0.026334164588528677,-0.03083289342137254,
0.026384039900249377,-0.020297057657988005,
0.026433915211970076,0.008007765139726244,
0.02648379052369077,-0.018246310055843557,
0.02653366583541147,-0.02145703495216755,
0.02658354114713217,-0.014692792907716521,
0.02663341645885287,-0.020642419538093815,
0.026683291770573565,0.002942390715356855,
0.026733167082294264,0.013157960616382846,
0.026783042394014963,-0.015190493404700408,
0.026832917705735662,-0.0073240918471160574,
0.026882793017456358,-0.000999925693506435,
0.026932668329177057,-0.014092633518492565,
0.026982543640897756,-0.029027982802624086,
0.027032418952618455,-0.022134993381061084,
0.02708229426433915,-0.00994263619656503,
0.02713216957605985,-0.01034096467143723,
0.02718204488778055,-0.04325165127603142,
0.02723192019950125,-0.023034292540624276,
0.027281795511221944,-0.027651686765592334,
0.027331670822942643,-0.0034692277957351237,
0.027381546134663343,-0.027279635913844004,
0.02743142144638404,-0.023821006173918344,
0.027481296758104738,-0.02443830597773941,
0.027531172069825437,-0.00521540458457069,
0.027581047381546136,-0.002636457064168176,
0.02763092269326683,-0.009844535407250894,
0.02768079800498753,-0.0007262680577525757,
0.02773067331670823,0.0011393119741749044,
0.02778054862842893,-0.044611268266214615,
0.027830423940149625,-0.008637891825681605,
0.027880299251870324,-0.02311865039037548,
0.027930174563591023,-0.036473174561373084,
0.027980049875311722,-0.022463400972039714,
0.028029925187032418,-0.006745053150895932,
0.028079800498753117,0.00408503126761094,
0.028129675810473816,-0.037951014271944195,
0.028179551122194512,-0.008524233811436157,
0.02822942643391521,0.011662900828134572,
0.02827930174563591,0.009623606034124148,
0.02832917705735661,-0.06964853795559132,
0.028379052369077305,0.014827883042387573,
0.028428927680798004,-0.0034411494292891625,
0.028478802992518704,-0.05246404493695514,
0.028528678304239403,-0.029329846651377278,
0.0285785536159601,0.0010348099085748172,
0.028628428927680798,-0.012409181194033558,
0.028678304239401497,-0.02639970962973178,
0.028728179551122196,-0.016765444023535147,
0.02877805486284289,-0.009540720629783617,
0.02882793017456359,-0.026380772899334232,
0.02887780548628429,-0.019555856933594004,
0.02892768079800499,-0.00414782936014726,
0.028977556109725685,-0.02806150561990907,
0.029027431421446384,-0.0378468315812024,
0.029077306733167083,-0.026989649709840677,
0.02912718204488778,-0.030696792289964428,
0.029177057356608478,-0.026364453060925414,
0.029226932668329177,-0.04312687951416183,
0.029276807980049877,-0.01359947175119919,
0.029326683291770572,-0.004033805925154897,
0.02937655860349127,-0.029133050122471253,
0.02942643391521197,-0.02664127892843555,
0.02947630922693267,-0.019572458337954096,
0.029526184538653365,-0.030326500124918263,
0.029576059850374065,-0.0017908062427559063,
0.029625935162094764,-0.029763477505078628,
0.029675810473815463,-0.024203483220904473,
0.02972568578553616,-0.02764088775258,
0.029775561097256858,-0.0009520642110339532,
0.029825436408977557,-0.019398262218049724,
0.029875311720698253,0.014101166350789944,
0.029925187032418952,-0.010347966633728743,
0.02997506234413965,0.0018674655663598935,
0.03002493765586035,-0.02022329193362556,
0.030074812967581046,-0.029344394830782456,
0.030124688279301745,-0.015544089264204171,
0.030174563591022444,-0.025069667808224873,
0.030224438902743143,-0.044695078885195416,
0.03027431421446384,0.0006567041966555505,
0.03032418952618454,-0.013879769863404053,
0.030374064837905237,-0.024696184535748046,
0.030423940149625937,-0.00836426013981507,
0.030473815461346632,-0.013117030146915643,
0.03052369077306733,0.0075171130203578185,
0.03057356608478803,-0.006942313156106145,
0.03062344139650873,-0.015589306983491896,
0.030673316708229426,-0.0026312334069343787,
0.030723192019950125,-0.013365487667547126,
0.030773067331670824,-0.00985818658125378,
0.03082294264339152,0.005990837032857471,
0.03087281795511222,-0.029712617590153253,
0.030922693266832918,-0.0249119497466606,
0.030972568578553617,-0.018028496317123242,
0.031022443890274313,-0.015605423896419956,
0.031072319201995012,0.006069649699154734,
0.03112219451371571,-0.032264029667999274,
0.03117206982543641,-0.01124785220879606,
0.031221945137157106,-0.018825611118403335,
0.03127182044887781,0.015187882518524237,
0.031321695760598504,0.0031860560690715137,
0.0313715710723192,-0.006240522747702978,
0.0314214463840399,0.004965474585957679,
0.0314713216957606,-0.029102093618029765,
0.031521197007481294,0.02136161154420587,
0.031571072319202,-0.02141641923647058,
0.03162094763092269,0.010330723542495267,
0.03167082294264339,1.9003726161731516e-05,
0.03172069825436409,-0.0040205136123405375,
0.03177057356608479,0.010515906715587402,
0.03182044887780549,0.007511672631663119,
0.031870324189526185,-0.00554850609909903,
0.03192019950124688,-0.013203051852947354,
0.03197007481296758,-0.004751192265411916,
0.03201995012468828,-0.007854069709193378,
0.032069825436408975,-0.0007153031704093035,
0.03211970074812968,0.009572543128826794,
0.03216957605985037,0.0015831003505706234,
0.032219451371571076,-0.0023795759107681173,
0.03226932668329177,-0.014667458736378232,
0.03231920199501247,0.00030835198997112255,
0.03236907730673317,-0.029702320871737443,
0.032418952618453865,-0.015926117871879267,
0.03246882793017456,0.0054315210061051935,
0.032518703241895264,0.009918585054357096,
0.03256857855361596,-0.0033648553712202394,
0.032618453865336655,0.00026562398825610454,
0.03266832917705736,0.003111632411966107,
0.032718204488778053,0.008087407197588966,
0.032768079800498756,-0.004845987508614891,
0.03281795511221945,-0.016258921381036403,
0.03286783042394015,0.004604416148039056,
0.03291770573566085,0.028483597444709987,
0.032967581047381546,-0.014414727689542705,
0.03301745635910224,-0.002167837098659785,
0.033067331670822944,-0.00574336057797626,
0.03311720698254364,0.03656338431560434,
0.03316708229426434,-0.01372987733158519,
0.03321695760598504,-0.0014098237279192548,
0.033266832917705734,-0.004156835467931837,
0.03331670822942644,-0.01718503815329131,
0.03336658354114713,-0.017682802622250957,
0.03341645885286783,0.010789893246916803,
0.03346633416458853,0.013211057771785948,
0.033516209476309226,-0.0054941306536585265,
0.03356608478802992,0.024350333245336718,
0.033615960099750625,-0.030229962333441513,
0.03366583541147132,-0.015028247833296947,
0.03371571072319202,-0.008205693281168675,
0.03376558603491272,0.004346697572178275,
0.033815461346633414,-0.00196720464558031,
0.03386533665835412,0.0020955485274709363,
0.03391521197007481,0.01270131670985104,
0.03396508728179551,0.02759504197190975,
0.03401496259351621,0.018088199935539125,
0.03406483790523691,0.007205923666682826,
0.0341147132169576,0.0054724497039201755,
0.034164588528678305,0.02350568954964462,
0.034214463840399,0.03555689878032691,
0.034264339152119704,0.017175473157023273,
0.0343142144638404,0.0005559806546734745,
0.034364089775561095,0.012101134963816835,
0.0344139650872818,0.017221179091789388,
0.03446384039900249,0.0004916375587686438,
0.03451371571072319,0.02210594332311759,
0.03456359102244389,0.013379449802522562,
0.03461346633416459,0.027186225266524387,
0.03466334164588529,-0.004638991201046841,
0.034713216957605986,-0.01581606258132634,
0.03476309226932668,0.004706871128927069,
0.034812967581047384,0.011244350825733154,
0.03486284289276808,-0.015837155214081414,
0.034912718204488775,0.0023355022765732796,
0.03496259351620948,0.030999531304220392,
0.035012468827930174,0.02002703677531007,
0.03506234413965087,0.014380477864352287,
0.03511221945137157,-0.0032527967719199434,
0.03516209476309227,0.03161266588864035,
0.03521197007481297,0.006870210348165188,
0.035261845386533666,0.014824699383054217,
0.03531172069825436,0.019777563318772562,
0.035361596009975065,0.016499351803921116,
0.03541147132169576,0.03656853764921931,
0.035461346633416456,0.023077025930151297,
0.03551122194513716,0.019781014802610398,
0.035561097256857854,0.013662044157174716,
0.03561097256857856,0.021686671898854835,
0.03566084788029925,0.012304655281101301,
0.03571072319201995,0.018538668248825663,
0.03576059850374065,0.01081245714395012,
0.03581047381546135,0.00868361066530822,
0.03586034912718204,0.002667853527337956,
0.035910224438902745,0.012571134285887495,
0.03596009975062344,0.01181392957056741,
0.036009975062344136,0.044529859669426186,
0.03605985037406484,0.03219063904608149,
0.036109725685785535,0.015514926540269688,
0.03615960099750624,0.011388262313047716,
0.03620947630922693,0.027172698046327853,
0.03625935162094763,0.047286260947308235,
0.03630922693266833,0.030301887230825903,
0.03635910224438903,-0.007249742340049988,
0.03640897755610972,0.031692228417572126,
0.036458852867830426,0.03453932586371779,
0.03650872817955112,0.05210890812685917,
0.036558603491271824,0.015576903376200808,
0.03660847880299252,0.02155834375639679,
0.036658354114713215,0.02640702316493011,
0.03670822942643392,0.008363215272753317,
0.036758104738154614,0.007169529093981461,
0.03680798004987531,0.026139564657377247,
0.03685785536159601,-0.0028394553048497334,
0.03690773067331671,0.000703103566966342,
0.0369576059850374,0.032841749142386786,
0.037007481296758106,0.02821793954001708,
0.0370573566084788,0.03963582420123199,
0.037107231920199504,0.027973107263906106,
0.0371571072319202,0.02131138010509583,
0.037206982543640896,0.0406170058601567,
0.0372568578553616,0.015059299486199697,
0.037306733167082294,0.016519108124054105,
0.03735660847880299,0.0206636379950345,
0.03740648379052369,0.02849600381985533,
0.03745635910224439,0.020842652794854963,
0.037506234413965084,-0.00033543139850410533,
0.037556109725685786,0.018035006919091656,
0.03760598503740648,0.021649420034092197,
0.037655860349127185,0.02392923458237091,
0.03770573566084788,0.015545319369193745,
0.037755610972568576,0.029945188938195227,
0.03780548628428928,-0.0017271060928373376,
0.037855361596009975,0.028732197733120073,
0.03790523690773067,0.04944890311766864,
0.03795511221945137,0.013509249656494027,
0.03800498753117207,0.023526041159428232,
0.03805486284289277,0.019002161225085006,
0.03810473815461347,0.01929576808320154,
0.03815461346633416,0.007357194652759948,
0.038204488778054865,0.0526886206446493,
0.03825436408977556,0.028628141766433232,
0.03830423940149626,0.012800634467458431,
0.03835411471321696,0.011109201692747109,
0.038403990024937655,0.023812825657557848,
0.03845386533665835,-0.009618290561818586,
0.03850374064837905,0.0386907252021987,
0.03855361596009975,0.01518731509914413,
0.03860349127182045,0.028718747900095952,
0.03865336658354115,0.029407677679475705,
0.03870324189526184,0.03733516496071567,
0.038753117206982546,0.030222130188800257,
0.03880299251870324,0.03395255451962739,
0.03885286783042394,0.03805821037821773,
0.03890274314214464,0.017780958641285916,
0.038952618453865336,0.054963030862626244,
0.03900249376558604,0.027938044691479175,
0.039052369077306734,0.02217307784203541,
0.03910224438902743,0.009919299274779966,
0.03915211970074813,0.019368375019742957,
0.03920199501246883,0.028435399038465654,
0.039251870324189524,0.023765386487014227,
0.039301745635910226,0.0496718634585136,
0.03935162094763092,0.01632954682860338,
0.03940149625935162,0.03228342844764439,
0.03945137157107232,0.005120323279443471,
0.039501246882793016,0.054656763545317594,
0.03955112219451372,0.0039045237890070195,
0.039600997506234414,0.052819170617277034,
0.03965087281795511,0.019558538273758516,
0.03970074812967581,-0.0120354938529928,
0.03975062344139651,0.041645466632084696,
0.039800498753117204,0.02247737823192688,
0.03985037406483791,0.014314021033584482,
0.0399002493765586,0.030609535584948236,
0.039950124688279305,0.030814699991752147,
0.04,0.02692721364128808,
0.0400498753117207,0.03758958296331512,
0.0400997506234414,0.024203478738450124,
0.040149625935162095,0.030008064777732518,
0.04019950124688279,0.012278466137652832,
0.04024937655860349,0.03142692944455987,
0.04029925187032419,0.012016827256273628,
0.040349127182044885,0.0027400181781002744,
0.04039900249376559,0.016340406876278635,
0.04044887780548628,0.015119817029594518,
0.040498753117206986,0.03299098638458652,
0.04054862842892768,-0.002909010066439878,
0.04059850374064838,0.035103882539093134,
0.04064837905236908,0.009161306429052139,
0.040698254364089775,-0.018664750151021814,
0.04074812967581047,-3.153681145669912e-06,
0.040798004987531174,0.013289976388770008,
0.04084788029925187,0.024358067859889674,
0.040897755610972565,0.015483274373068682,
0.04094763092269327,-0.0008757612440678797,
0.04099750623441396,0.005370367834716238,
0.041047381546134666,-0.0010668712328521235,
0.04109725685785536,0.020481643864732325,
0.04114713216957606,0.015012351967214524,
0.04119700748129676,0.025345529819415694,
0.041246882793017456,-0.010649527377644786,
0.04129675810473815,0.007655054208743699,
0.041346633416458854,0.045855043579421516,
0.04139650872817955,0.024793838013935456,
0.04144638403990025,0.010489002653512982,
0.04149625935162095,-0.00013030957506226376,
0.041546134663341644,0.031042769317659827,
0.04159600997506235,0.037160401847221136,
0.04164588528678304,-0.0033186110189922565,
0.04169576059850374,-0.0021612018579975616,
0.04174563591022444,0.017567688290263946,
0.041795511221945136,0.018703257277900762,
0.04184538653366583,0.020091564209214867,
0.041895261845386535,0.0402289359854662,
0.04194513715710723,-0.0022677419209741895,
0.04199501246882793,0.012626393985766754,
0.04204488778054863,0.02256819468698961,
0.042094763092269324,0.02212623633485203,
0.04214463840399003,0.0014703417253554563,
0.04219451371571072,0.0017783564622289218,
0.04224438902743142,0.003728644680202749,
0.04229426433915212,0.03588076707958297,
0.04234413965087282,-0.00463798075574616,
0.04239401496259352,0.00488293805735391,
0.042443890274314215,0.0210862500195148,
0.04249376558603491,-0.007172365164067426,
0.042543640897755614,0.012733981162886043,
0.04259351620947631,-0.019926764538568224,
0.042643391521197005,0.011156410055474372,
0.04269326683291771,0.008752952863783147,
0.0427431421446384,0.010120251238903734,
0.0427930174563591,-0.005670196819947255,
0.0428428927680798,0.010476321778888574,
0.0428927680798005,0.006170456976498499,
0.0429426433915212,0.02593784901354296,
0.042992518703241896,0.01571272974739246,
0.04304239401496259,-0.015896267801671866,
0.043092269326683294,-0.0069575889986752525,
0.04314214463840399,-0.004022012276863999,
0.043192019950124685,0.007620804467916206,
0.04324189526184539,0.0020695240097711133,
0.043291770573566084,0.0016983863684982437,
0.043341645885286786,0.04625389195525361,
0.04339152119700748,-0.0040150514950005115,
0.04344139650872818,0.024231786788469656,
0.04349127182044888,0.0008487569318480284,
0.043541147132169576,-0.029928260064695233,
0.04359102244389027,0.005310044806882467,
0.043640897755610975,0.01891939203725471,
0.04369077306733167,0.01132368694447538,
0.043740648379052366,0.00535564703689753,
0.04379052369077307,0.0015611277392512156,
0.043840399002493764,-0.006522276567456637,
0.04389027431421447,0.014034085912906757,
0.04394014962593516,-0.006228878816514221,
0.04399002493765586,-0.009626527782640538,
0.04403990024937656,0.005833192722261005,
0.04408977556109726,-0.0051313298412675595,
0.04413965087281795,0.018279799499859344,
0.044189526184538655,0.0057741238428944235,
0.04423940149625935,-0.013205418201540114,
0.04428927680798005,-0.01900637529020284,
0.04433915211970075,-0.010737670945713559,
0.044389027431421445,0.032638572365964534,
0.04443890274314215,-0.006289931398798879,
0.04448877805486284,0.008353760463758598,
0.04453865336658354,-0.022897625135810486,
0.04458852867830424,-0.019850017521462968,
0.04463840399002494,-0.006719437376122024,
0.04468827930174563,0.0213361265891278,
0.044738154613466335,-0.02382689329529099,
0.04478802992518703,-0.014195501150506941,
0.044837905236907734,0.008494316387067732,
0.04488778054862843,0.018578183983663975,
0.044937655860349125,0.0009729889198360374,
0.04498753117206983,0.0042747532245741475,
0.045037406483790524,-0.019590047093676267,
0.04508728179551122,-0.026250624353310697,
0.04513715710723192,-0.023862368664727233,
0.04518703241895262,-0.02004111099463403,
0.04523690773067331,-0.0038198831120019442,
0.045286783042394016,-0.025759069641018345,
0.04533665835411471,-0.003966385763598199,
0.045386533665835414,-0.012705378175808527,
0.04543640897755611,-0.016667725708766293,
0.045486284289276806,0.004796093516116533,
0.04553615960099751,-0.02311152306045218,
0.045586034912718204,0.012565891760470457,
0.0456359102244389,0.0032524068450031293,
0.0456857855361596,-0.024299224391526,
0.0457356608478803,0.008351548702230361,
0.045785536159601,-0.02653662634473706,
0.045835411471321696,0.009255336134282994,
0.04588528678304239,-0.0053713096478458745,
0.045935162094763095,-0.0342732234561768,
0.04598503740648379,-0.030234668972363522,
0.046034912718204486,-0.017092725830125523,
0.04608478802992519,0.0017882718811883785,
0.046134663341645885,-0.01399595637329763,
0.04618453865336658,-0.014573205385257186,
0.04623441396508728,-0.011235931487939575,
0.04628428927680798,-0.04196054733028007,
0.04633416458852868,0.00013708778748947395,
0.04638403990024938,0.0076804352218479595,
0.04643391521197007,-0.0007582600778551635,
0.046483790523690775,-0.019131262879088187,
0.04653366583541147,-0.026230883041981297,
0.04658354114713217,-0.02935656870757239,
0.04663341645885287,-0.030292794942827668,
0.046683291770573565,0.020508719666065496,
0.04673316708229427,-0.014801942140450976,
0.04678304239401496,-0.00020497495180094374,
0.04683291770573566,-0.0011821150999228158,
0.04688279301745636,-0.011934663067567616,
0.04693266832917706,-0.028191459597580966,
0.04698254364089775,-0.006574684066210732,
0.047032418952618456,-0.03072700728509567,
0.04708229426433915,-0.005584212657741814,
0.04713216957605985,-0.030297106483021648,
0.04718204488778055,-0.02140705105061697,
0.047231920199501246,-0.02154832497269302,
0.04728179551122195,0.005891847858764159,
0.047331670822942644,-0.051710893863821515,
0.04738154613466334,0.019659900198648966,
0.04743142144638404,-0.027488261141128578,
0.04748129675810474,-0.017343247918222816,
0.047531172069825434,-0.0093816724021095,
0.047581047381546136,-0.010750796286596703,
0.04763092269326683,-0.0030896061850837608,
0.047680798004987535,-0.006662743966996485,
0.04773067331670823,0.014667073910570861,
0.047780548628428926,-0.004978650285242475,
0.04783042394014963,-0.017772944588217984,
0.047880299251870324,-0.02436283721764386,
0.04793017456359102,-0.024800729692635314,
0.04798004987531172,0.0032352855004119663,
0.04802992518703242,0.010124068759063673,
0.048079800498753114,-0.0011781701635784608,
0.04812967581047382,-0.06373684946928794,
0.04817955112219451,-0.05000375066200398,
0.048229426433915215,-0.01643100270149288,
0.04827930174563591,-0.018834131296725454,
0.048329177057356607,-0.01604639043701102,
0.04837905236907731,0.0024247506008230474,
0.048428927680798005,0.0016755046012859182,
0.0484788029925187,-0.013725693181732583,
0.0485286783042394,-0.03919924146709718,
0.0485785536159601,-0.034765824962950095,
0.048628428927680795,-0.015298149953270604,
0.0486783042394015,-0.010034166105704592,
0.04872817955112219,-0.03451815584182229,
0.048778054862842896,-0.006317829875984799,
0.04882793017456359,-0.04247354601690616,
0.04887780548628429,-0.05609267117122024,
0.04892768079800499,-0.029224679134187706,
0.048977556109725685,0.004550538993996232,
0.04902743142144638,0.006846065367297684,
0.049077306733167084,-0.039850270480322206,
0.04912718204488778,-0.03863664215601964,
0.04917705735660848,-0.004373654304454473,
0.04922693266832918,-0.02232159366423528,
0.04927680798004987,0.004865571946651014,
0.049326683291770576,-0.004374172730881566,
0.04937655860349127,-0.0017075101996488797,
0.04942643391521197,-0.027686231157148092,
0.04947630922693267,-0.008600786169309696,
0.049526184538653366,0.01509252625617302,
0.04957605985037406,-0.01291013802054215,
0.049625935162094764,-0.015604916797473153,
0.04967581047381546,-0.02134672803645301,
0.04972568578553616,-0.03871726054519367,
0.04977556109725686,-0.031044768903032045,
0.049825436408977554,-0.027805790785313048,
0.04987531172069826,-0.038956363168540495,
0.04992518703241895,-0.037303062896396955,
0.04997506234413965,-0.050728176515281505,
0.05002493765586035,-0.025593285383598504,
0.050074812967581046,-0.0035727935495725,
0.05012468827930175,-0.01829089534550983,
0.050174563591022445,-0.01806024916573048,
0.05022443890274314,-0.001711923744733045,
0.05027431421446384,0.012291916713418767,
0.05032418952618454,0.021232560158317357,
0.050374064837905234,-0.010520475156711635,
0.05042394014962594,-0.016731853143208453,
0.05047381546134663,-0.018513715586726952,
0.05052369077306733,-0.0032582475801492556,
0.05057356608478803,-0.014275686132491751,
0.05062344139650873,-0.014023000349649475,
0.05067331670822943,-0.012826251459204643,
0.050723192019950125,-0.025454638542481867,
0.05077306733167082,-0.046095200098923095,
0.050822942643391524,-0.02093679981594236,
0.05087281795511222,0.011181555570353705,
0.050922693266832915,0.010697687359116803,
0.05097256857855362,0.0038619731299794416,
0.05102244389027431,-0.017412550385838915,
0.051072319201995016,-0.02163278241169403,
0.05112219451371571,0.014828755418624608,
0.05117206982543641,-0.025548965447546222,
0.05122194513715711,-0.008469645113336375,
0.051271820448877806,0.016526364116240644,
0.0513216957605985,-0.006709156814423271,
0.051371571072319204,-0.012719785008938736,
0.0514214463840399,0.009333697785756313,
0.051471321695760595,-0.00672704386796255,
0.0515211970074813,-0.004605131075953837,
0.051571072319201994,0.015435329322408079,
0.051620947630922696,-0.04519416649224879,
0.05167082294264339,-0.0013699356745989393,
0.05172069825436409,-0.01797697331944209,
0.05177057356608479,-0.009317608438445655,
0.051820448877805486,-0.004239519135502215,
0.05187032418952618,-0.015788116483016108,
0.051920199501246884,-0.001948069478404505,
0.05197007481296758,0.0006870029223688618,
0.052019950124688276,-0.0017569883090976604,
0.05206982543640898,-0.002850818869496518,
0.052119700748129674,-0.005997185463474737,
0.05216957605985038,-0.005411306553727269,
0.05221945137157107,-0.002458628843770627,
0.05226932668329177,-0.017491099767876304,
0.05231920199501247,0.015993331387628516,
0.05236907730673317,-0.004126952920614552,
0.05241895261845386,-0.008511090959124687,
0.052468827930174565,0.003778590994014657,
0.05251870324189526,-0.003576534159321935,
0.05256857855361596,0.01708748216053305,
0.05261845386533666,0.01217402607400752,
0.052668329177057355,0.0004548173671383444,
0.05271820448877806,0.013452583050117678,
0.05276807980049875,0.0032071535027741105,
0.05281795511221945,-0.01732322750283635,
0.05286783042394015,0.013647770338753036,
0.05291770573566085,-0.027894725221812657,
0.05296758104738154,-0.05182783588810785,
0.053017456359102245,0.011708723913722146,
0.05306733167082294,0.008206680738748926,
0.053117206982543644,0.007519593765205777,
0.05316708229426434,0.023027241718519192,
0.053216957605985035,0.0021291797001854896,
0.05326683291770574,-0.002857433070265405,
0.053316708229426434,0.015082611152448326,
0.05336658354114713,-0.007256982795958855,
0.05341645885286783,0.00019533264329738573,
0.05346633416458853,0.007872675542894576,
0.05351620947630923,0.009389300485590776,
0.053566084788029926,-0.00027719144865108285,
0.05361596009975062,-0.002322173088144467,
0.053665835411471324,-0.011447176281781227,
0.05371571072319202,-0.006139749100094738,
0.053765586034912716,0.03327007103304298,
0.05381546134663342,0.0023154856275410703,
0.053865336658354114,0.009452751063065562,
0.05391521197007481,-0.015440978156210058,
0.05396508728179551,0.04568986429093069,
0.05401496259351621,-0.00536754684467013,
0.05406483790523691,-0.009759815582233794,
0.054114713216957606,0.007259499428963338,
0.0541645885286783,-0.004900018952580321,
0.054214463840399005,0.014270737328260216,
0.0542643391521197,-0.013570944334997823,
0.054314214463840396,0.02646590403506068,
0.0543640897755611,0.02381320714774552,
0.054413965087281795,0.008238879938618533,
0.0544638403990025,-0.014511389051268614,
0.05451371571072319,-0.0015616028657710734,
0.05456359102244389,0.011859268890014148,
0.05461346633416459,-0.006938765736616809,
0.05466334164588529,-0.004202675926098491,
0.05471321695760598,0.027548110865589066,
0.054763092269326685,0.01442444533469217,
0.05481296758104738,0.014240757362301685,
0.05486284289276808,0.02059076496296079,
0.05491271820448878,0.010507508992335001,
0.054962593516209475,0.012356074623031994,
0.05501246882793018,0.020370018428469607,
0.05506234413965087,0.025944248273415113,
0.05511221945137157,0.021557942062908536,
0.05516209476309227,0.036266672959509305,
0.05521197007481297,0.015002254817897673,
0.05526184538653366,-0.005305398759061778,
0.055311720698254366,0.03149297185547539,
0.05536159600997506,0.011756656756492918,
0.05541147132169576,0.0041638694494816175,
0.05546134663341646,0.02663790217378519,
0.055511221945137156,0.021769785511430665,
0.05556109725685786,-0.0027204113547550646,
0.055610972568578554,0.026769840983928324,
0.05566084788029925,0.04507164579989929,
0.05571072319201995,0.022054533663561006,
0.05576059850374065,0.01359768588152908,
0.055810473815461344,-0.007361464392358862,
0.055860349127182046,0.04867926026066125,
0.05591022443890274,0.010386835276860499,
0.055960099750623445,-0.0027517573094135196,
0.05600997506234414,0.02025409998669708,
0.056059850374064836,0.03393498736596216,
0.05610972568578554,0.0375662185411932,
0.056159600997506234,0.009156812083395197,
0.05620947630922693,0.017971143670751887,
0.05625935162094763,0.01966040865828616,
0.05630922693266833,0.03450398757053599,
0.056359102244389024,0.02894569675018651,
0.05640897755610973,0.024306239310491105,
0.05645885286783042,0.03415902290406227,
0.056508728179551125,0.00019139120059423476,
0.05655860349127182,0.027117289991519293,
0.056608478802992516,0.024305817109269722,
0.05665835411471322,0.02040536708866176,
0.056708229426433915,0.017579799502742764,
0.05675810473815461,0.0235024203228983,
0.05680798004987531,0.01309838782791455,
0.05685785536159601,0.06271735266482223,
0.05690773067331671,0.04234505341952397,
0.05695760598503741,0.03850221296793989,
0.0570074812967581,0.014307151563097678,
0.057057356608478806,0.008033757764902776,
0.0571072319201995,0.01934726173117134,
0.0571571072319202,0.024369358676625142,
0.0572069825436409,0.0010570265029464301,
0.057256857855361595,0.030103905744279555,
0.05730673316708229,0.03925330894368573,
0.057356608478802994,-0.010401878077619671,
0.05740648379052369,0.009735359412562709,
0.05745635910224439,0.04176134526394325,
0.05750623441396509,0.02905159739641019,
0.05755610972568578,0.010540865232280365,
0.057605985037406486,0.034655012039423734,
0.05765586034912718,0.014795503668913692,
0.05770573566084788,0.020246285252283683,
0.05775561097256858,0.006779558738865075,
0.057805486284289276,0.024186258724613965,
0.05785536159600998,0.03927040294147029,
0.057905236907730674,0.016895167982579874,
0.05795511221945137,0.033794947450236396,
0.05800498753117207,0.02341494344703902,
0.05805486284289277,0.04039434009095959,
0.058104738154613464,0.017304442071714714,
0.05815461346633417,0.047611192038097966,
0.05820448877805486,0.034540729595738104,
0.05825436408977556,0.02800319978828514,
0.05830423940149626,0.028571823182841197,
0.058354114713216956,0.01740571850674306,
0.05840399002493766,0.01645183335066175,
0.058453865336658355,0.028331282798640826,
0.05850374064837905,0.006418970767545638,
0.05855361596009975,0.015371260007202679,
0.05860349127182045,0.010329569279361956,
0.058653366583541144,0.03295256726444409,
0.05870324189526185,0.033162612241045726,
0.05875311720698254,0.043351592867415314,
0.05880299251870324,0.019286630185088388,
0.05885286783042394,0.012157193318235135,
0.05890274314214464,0.0021966829986131593,
0.05895261845386534,0.0282579348919194,
0.059002493765586035,0.045098297740037686,
0.05905236907730673,0.022975061652954577,
0.059102244389027433,0.0244367555321187,
0.05915211970074813,0.023882305112419448,
0.059201995012468825,0.027719108477654054,
0.05925187032418953,0.03879335089326154,
0.05930174563591022,0.05254934528941144,
0.059351620947630926,0.03115526887797243,
0.05940149625935162,0.032059189636509354,
0.05945137157107232,0.019915903970620204,
0.05950124688279302,0.02179277251337808,
0.059551122194513716,0.021490757165627265,
0.05960099750623441,0.017713988839403803,
0.059650872817955114,0.0250102962299338,
0.05970074812967581,0.032357164212932076,
0.059750623441396505,0.023819499108730113,
0.05980049875311721,0.018535939149106218,
0.059850374064837904,0.02450683617516954,
0.059900249376558606,0.00808767496421591,
0.0599501246882793,0.034399877650035035,
0.06,0.016012259566540073,
0.0600498753117207,0.004740642670746319,
0.060099750623441396,0.028842568883311638,
0.06014962593516209,0.029434085834065912,
0.060199501246882794,0.008707080931649236,
0.06024937655860349,0.0307981207250191,
0.06029925187032419,0.030787454357299404,
0.06034912718204489,0.05073243277800904,
0.060399002493765584,0.017410040277538535,
0.06044887780548629,0.019941939156512954,
0.06049875311720698,0.011473825690713839,
0.06054862842892768,0.02779516600311513,
0.06059850374064838,0.020131339782797634,
0.06064837905236908,0.03482587008302582,
0.06069825436408977,0.013300416824272167,
0.060748129675810475,0.026686505441529777,
0.06079800498753117,0.01583630030344764,
0.06084788029925187,-0.008441566901011898,
0.06089775561097257,0.028404317928894272,
0.060947630922693265,-0.0074525018369948,
0.06099750623441397,0.016157037233111488,
0.06104738154613466,0.016168918068188452,
0.06109725685785536,0.0179756449728575,
0.06114713216957606,0.018581788762589004,
0.06119700748129676,0.018201823881334574,
0.06124688279301746,0.022850381977079393,
0.061296758104738155,0.015534669193453574,
0.06134663341645885,0.056159352204977586,
0.061396508728179554,0.011543236157650988,
0.06144638403990025,-0.0019077345532061349,
0.061496259351620945,-0.004969416700311556,
0.06154613466334165,0.025801171145291076,
0.061596009975062344,-0.008203443792812317,
0.06164588528678304,-0.0027340724334477783,
0.06169576059850374,-0.005155834130882808,
0.06174563591022444,0.02174351424002607,
0.06179551122194514,0.034580309703607204,
0.061845386533665836,0.00019137026726024318,
0.06189526184538653,0.020409676574585024,
0.061945137157107234,-0.02574895736314089,
0.06199501246882793,0.0023579815486498273,
0.062044887780548626,0.022288033899301007,
0.06209476309226933,0.008285985363124394,
0.062144638403990024,0.027598595380002196,
0.06219451371571072,-0.021094051368188173,
0.06224438902743142,0.0010929039807596984,
0.06229426433915212,0.018620661321949915,
0.06234413965087282,0.01814255347343094,
0.062394014962593516,0.01900213924832874,
0.06244389027431421,0.01406765809138478,
0.062493765586034915,-0.006501546859543277,
0.06254364089775562,-0.0013225280995134928,
0.06259351620947631,0.04481245122035729,
0.06264339152119701,-0.009122811338560858,
0.0626932668329177,-0.011765789805526342,
0.0627431421446384,0.0193649068138401,
0.0627930174563591,-0.007024838753676644,
0.0628428927680798,0.03544406210593283,
0.0628927680798005,0.049273266408058056,
0.0629426433915212,0.0043373211416573975,
0.06299251870324189,0.01228725322599499,
0.06304239401496259,-0.020031046522327962,
0.0630922693266833,0.022505596370192685,
0.063142144638404,-0.0268558903489955,
0.06319201995012469,-0.013677726165713937,
0.06324189526184539,0.007885454710868291,
0.06329177057356608,0.014012348658324153,
0.06334164588528678,-0.01677031436883697,
0.06339152119700749,-0.002959362291610636,
0.06344139650872818,-0.02005456219027422,
0.06349127182044888,-0.00019601533842788978,
0.06354114713216957,-0.007761507591311104,
0.06359102244389027,-0.00559510789968629,
0.06364089775561098,0.01339934818924637,
0.06369077306733167,0.007545677833922752,
0.06374064837905237,0.011431340825110827,
0.06379052369077307,0.0007673599812592132,
0.06384039900249376,0.013151704605115364,
0.06389027431421446,0.0015642121988291035,
0.06394014962593517,-0.005586524050582128,
0.06399002493765586,0.01003715985885894,
0.06403990024937656,-0.005177553776324039,
0.06408977556109725,-0.00407250561580358,
0.06413965087281795,0.016590907466897176,
0.06418952618453866,0.01487625097054724,
0.06423940149625935,-0.004492940439112517,
0.06428927680798005,0.012757376440954791,
0.06433915211970075,-0.019806402976106197,
0.06438902743142144,-0.005300897886794131,
0.06443890274314215,-0.012503410218603534,
0.06448877805486285,-0.0015467434700386004,
0.06453865336658354,0.009205779265292799,
0.06458852867830424,0.006231258790467892,
0.06463840399002493,0.0039013711370616388,
0.06468827930174563,-0.0006181000940281528,
0.06473815461346634,-0.005356552393062694,
0.06478802992518704,0.014768167782767436,
0.06483790523690773,-0.026729183973038636,
0.06488778054862843,-0.013812382505563612,
0.06493765586034912,0.0020809678974674367,
0.06498753117206983,0.01855473220098698,
0.06503740648379053,-0.009824002759316892,
0.06508728179551122,-0.008821003561696645,
0.06513715710723192,-0.02452405321807015,
0.06518703241895261,-0.013563788788716856,
0.06523690773067331,0.0049192510787303195,
0.06528678304239402,0.017724602878777373,
0.06533665835411472,-0.010622009646599682,
0.06538653366583541,-0.018462528405943687,
0.06543640897755611,-0.005684036857126771,
0.0654862842892768,-0.031200037562637485,
0.06553615960099751,0.011307284622580188,
0.06558603491271821,-0.025931063459371215,
0.0656359102244389,-0.0030037645173685264,
0.0656857855361596,-0.0034632108021110247,
0.0657356608478803,0.0012336733162842378,
0.06578553615960099,-0.004579639593797152,
0.0658354114713217,-0.00860063720821399,
0.0658852867830424,-0.0024368203090030438,
0.06593516209476309,0.0034334653393186167,
0.06598503740648379,0.017642339830299815,
0.06603491271820448,-0.02605643095863091,
0.06608478802992519,-0.03731493097460588,
0.06613466334164589,-0.03313956344235705,
0.06618453865336658,-0.03733859233637217,
0.06623441396508728,-0.028334293581625584,
0.06628428927680798,-0.030434086683289754,
0.06633416458852869,-0.016972413144673758,
0.06638403990024938,0.0019117670308416435,
0.06643391521197008,-0.0017020463233961749,
0.06648379052369077,-0.0206131028849543,
0.06653366583541147,-0.01949382373976808,
0.06658354114713216,0.018533438057340628,
0.06663341645885287,-0.0028746153119957943,
0.06668329177057357,-0.009369839235273647,
0.06673316708229426,-0.010297809855033507,
0.06678304239401496,-0.016614724128977194,
0.06683291770573566,0.017619616364348625,
0.06688279301745637,-0.01542230609740066,
0.06693266832917706,-0.010477996283610212,
0.06698254364089776,-0.03758815897128092,
0.06703241895261845,-0.022535468351932042,
0.06708229426433915,-0.021380398636947198,
0.06713216957605984,-0.005950419718858211,
0.06718204488778055,-0.02499381147133095,
0.06723192019950125,-0.01275702364015451,
0.06728179551122195,-0.02268865616086657,
0.06733167082294264,-0.030210002301018515,
0.06738154613466334,-0.03092221658962501,
0.06743142144638405,-0.016501592155743018,
0.06748129675810474,-0.012447841453958261,
0.06753117206982544,-0.016988134789795637,
0.06758104738154613,-0.02665897137167319,
0.06763092269326683,-0.016311412019193526,
0.06768079800498752,-0.01916003993608861,
0.06773067331670823,-0.030016906101934825,
0.06778054862842893,-0.013207380954890244,
0.06783042394014963,0.012641310178471477,
0.06788029925187032,-0.016812473293884835,
0.06793017456359102,-0.036535240118173884,
0.06798004987531173,0.007363679225719247,
0.06802992518703242,0.004151724746558182,
0.06807980049875312,0.006747073028452271,
0.06812967581047381,-0.015404962135584845,
0.06817955112219451,-0.026550999306072902,
0.0682294264339152,-0.028214157400061016,
0.06827930174563591,0.002283402467817372,
0.06832917705735661,0.009241934753614837,
0.0683790523690773,-0.028658228498314706,
0.068428927680798,-0.052655705229284,
0.0684788029925187,-0.01511745934936988,
0.06852867830423941,-0.028406202088734386,
0.0685785536159601,-0.025438061934412705,
0.0686284289276808,-0.01838419357527755,
0.0686783042394015,-0.008639739724720933,
0.06872817955112219,-0.026474335198491634,
0.0687780548628429,-0.012685877805139054,
0.0688279301745636,-0.016581598587044007,
0.06887780548628429,-0.04922689288011214,
0.06892768079800499,-0.006424558455124197,
0.06897755610972568,-0.02131191905383442,
0.06902743142144638,-0.03344759934120704,
0.06907730673316709,-0.02531761387265838,
0.06912718204488778,-0.011316325547122015,
0.06917705735660848,-0.01359567950773098,
0.06922693266832917,-0.004546267871500746,
0.06927680798004987,-0.0075828158415491296,
0.06932668329177058,-0.031619686273516856,
0.06937655860349128,-0.058269612043590005,
0.06942643391521197,-0.012046022162565838,
0.06947630922693267,-0.004295281055674574,
0.06952618453865336,-0.016691500044754868,
0.06957605985037406,-0.0036364189529230085,
0.06962593516209477,-0.02845616930814357,
0.06967581047381546,-0.018503271354475475,
0.06972568578553616,-0.026998538692608317,
0.06977556109725686,-0.0026027994298038083,
0.06982543640897755,-0.02658616430797177,
0.06987531172069826,0.018104165184373182,
0.06992518703241896,-0.020182475562103015,
0.06997506234413965,-0.0005344460921979082,
0.07002493765586035,-0.019694573695397177,
0.07007481296758104,0.00786102842102897,
0.07012468827930174,0.007447727045879765,
0.07017456359102245,-0.016738764304029857,
0.07022443890274314,-0.007594935985210442,
0.07027431421446384,0.007564957556785509,
0.07032418952618454,-0.006804307542142359,
0.07037406483790523,-0.025000900735564307,
0.07042394014962594,-0.00995573974272905,
0.07047381546134664,-0.022042778970670897,
0.07052369077306733,-0.008363274206734387,
0.07057356608478803,-0.022245130001159803,
0.07062344139650872,-0.004641935770028286,
0.07067331670822943,-0.03686306168148095,
0.07072319201995013,-0.026654291210090466,
0.07077306733167082,-0.02151261672454403,
0.07082294264339152,-0.01180348688756147,
0.07087281795511222,-0.03186390220496631,
0.07092269326683291,-0.022213357724428562,
0.07097256857855362,0.0029349774217474686,
0.07102244389027432,0.004948765107952122,
0.07107231920199501,-0.04628155497932117,
0.07112219451371571,-0.016843497411700978,
0.0711720698254364,0.011318387260039295,
0.07122194513715711,-0.0017721896799784038,
0.07127182044887781,-0.0012079775377008984,
0.0713216957605985,0.001391667306332947,
0.0713715710723192,-0.021203773710547272,
0.0714214463840399,-0.0033556460875035464,
0.07147132169576059,0.0007665470320204655,
0.0715211970074813,-0.004443747785296247,
0.071571072319202,-0.011692126045128759,
0.0716209476309227,-0.006243866526815796,
0.07167082294264339,-0.02235700671891931,
0.07172069825436408,0.004227860964852612,
0.0717705735660848,-0.026241612938495286,
0.07182044887780549,-0.01668010483957562,
0.07187032418952619,0.006068350719875434,
0.07192019950124688,0.00047555998399381304,
0.07197007481296758,-0.010858121905888352,
0.07201995012468827,-0.028998174487449874,
0.07206982543640898,-0.0037164587423939924,
0.07211970074812968,-0.01218826887931692,
0.07216957605985037,0.004761479689688931,
0.07221945137157107,-0.009901364283010474,
0.07226932668329177,-0.028117366287413136,
0.07231920199501247,-0.022316912032761337,
0.07236907730673317,-0.007667707221436782,
0.07241895261845387,0.0006685053200102854,
0.07246882793017456,-0.018119939339366037,
0.07251870324189526,-0.011736047724542764,
0.07256857855361595,0.011832622177786495,
0.07261845386533666,0.016895828945572886,
0.07266832917705736,0.004711804412001485,
0.07271820448877805,-0.003409346508939825,
0.07276807980049875,-0.008145754864242093,
0.07281795511221945,0.009574133932471283,
0.07286783042394016,-0.002948474229522622,
0.07291770573566085,0.015911158343777414,
0.07296758104738155,0.017012526421453438,
0.07301745635910224,0.008887191317176342,
0.07306733167082294,-0.00441383354396053,
0.07311720698254365,-0.0029402511194311738,
0.07316708229426434,-0.020974448157137903,
0.07321695760598504,0.0032072696355670174,
0.07326683291770573,0.0030581076097393168,
0.07331670822942643,-0.016032727047425893,
0.07336658354114713,0.04040936540878996,
0.07341645885286784,0.013607787907149468,
0.07346633416458853,-0.007025505877129445,
0.07351620947630923,0.036711137309362304,
0.07356608478802992,-0.0012254906364783389,
0.07361596009975062,0.018987149198311383,
0.07366583541147133,0.008163125703640703,
0.07371571072319202,0.00023850967352878703,
0.07376558603491272,0.002426616648797404,
0.07381546134663342,0.02934589211975595,
0.07386533665835411,0.0212543920850691,
0.0739152119700748,0.006589063852284001,
0.07396508728179552,-0.022016232050062538,
0.07401496259351621,0.013617757421148406,
0.07406483790523691,-0.009333931027105453,
0.0741147132169576,0.017753009462446404,
0.0741645885286783,-0.0007267797576644835,
0.07421446384039901,0.001151439644691261,
0.0742643391521197,0.0010292655100923274,
0.0743142144638404,0.02621469904595597,
0.0743640897755611,-0.015281904052667376,
0.07441396508728179,0.0225822925976151,
0.07446384039900249,0.01695267540975686,
0.0745137157107232,0.011029405104262386,
0.07456359102244389,0.005697380946261084,
0.07461346633416459,0.020012835865525873,
0.07466334164588528,0.006411032206376383,
0.07471321695760598,0.006569230111139969,
0.07476309226932669,0.014553647236339968,
0.07481296758104738,0.03968376606642434,
0.07486284289276808,-0.008517578939247723,
0.07491271820448878,0.02197201636176142,
0.07496259351620947,0.012599609008905374,
0.07501246882793017,0.011717864582534685,
0.07506234413965088,-0.00759851773375542,
0.07511221945137157,-0.010753829233317686,
0.07516209476309227,0.020956345527462637,
0.07521197007481296,-0.002910836688042588,
0.07526184538653366,0.031644216601750555,
0.07531172069825437,0.0014274944374399988,
0.07536159600997507,0.025194049185800926,
0.07541147132169576,0.008549857537386,
0.07546134663341646,0.008089061005255962,
0.07551122194513715,0.003996779125970013,
0.07556109725685786,0.02450942925449765,
0.07561097256857856,0.028940323197899832,
0.07566084788029925,0.013720249591325197,
0.07571072319201995,0.027564677544206447,
0.07576059850374064,0.019125872120422154,
0.07581047381546134,-0.000839765191841306,
0.07586034912718205,0.025085253908749668,
0.07591022443890275,0.01512943354621691,
0.07596009975062344,-0.019350135923303043,
0.07600997506234414,0.014226061461132672,
0.07605985037406483,-0.00509505132769485,
0.07610972568578554,0.0020505833427550517,
0.07615960099750624,0.017001996745267912,
0.07620947630922693,0.019816894423755803,
0.07625935162094763,0.008624543372046501,
0.07630922693266833,0.029261236339172332,
0.07635910224438902,0.019831453514049732,
0.07640897755610973,0.015383261747002646,
0.07645885286783043,0.022583754069492163,
0.07650872817955112,0.040194333005529236,
0.07655860349127182,-0.009954562233688125,
0.07660847880299251,0.04197073806428892,
0.07665835411471322,0.013401818107339415,
0.07670822942643392,0.011137072254667028,
0.07675810473815461,0.016953502489226203,
0.07680798004987531,0.00984658677183881,
0.076857855361596,0.007698268128092477,
0.0769077306733167,0.036158723743891244,
0.07695760598503741,0.02599972606684205,
0.0770074812967581,-0.005017195573221077,
0.0770573566084788,0.03399914690585912,
0.0771072319201995,0.03194901000489982,
0.0771571072319202,0.0018839524194884973,
0.0772069825436409,0.026982548764452774,
0.0772568578553616,0.03370691348501211,
0.0773067331670823,0.00045237945250042183,
0.07735660847880299,0.028908305026846985,
0.07740648379052369,0.014610148166884166,
0.0774563591022444,0.032972407894593374,
0.07750623441396509,0.010933082696290465,
0.07755610972568579,0.040665023764166086,
0.07760598503740648,0.021467209362776542,
0.07765586034912718,0.015980948902665125,
0.07770573566084787,0.014445915425026445,
0.07775561097256858,0.03846859586353413,
0.07780548628428928,0.014580661655478479,
0.07785536159600998,0.04139979498596072,
0.07790523690773067,0.028754569757784412,
0.07795511221945137,0.004824449167347235,
0.07800498753117208,0.026048782810763855,
0.07805486284289277,0.02640761268548674,
0.07810473815461347,0.004473140050840107,
0.07815461346633416,0.025905577275647674,
0.07820448877805486,0.03394502738210324,
0.07825436408977555,0.04276070934867755,
0.07830423940149626,0.04212464017284292,
0.07835411471321696,0.061711386864306814,
0.07840399002493766,0.02589603643294479,
0.07845386533665835,0.03420076075183221,
0.07850374064837905,0.016801771000554862,
0.07855361596009976,0.05415538546113978,
0.07860349127182045,0.012519652323901677,
0.07865336658354115,0.05345906135132977,
0.07870324189526184,0.051516512561796665,
0.07875311720698254,0.014056101963418083,
0.07880299251870324,0.04134654589884773,
0.07885286783042394,0.03261986587750739,
0.07890274314214464,0.019551533472551678,
0.07895261845386534,0.02365170466042363,
0.07900249376558603,0.029623686081058205,
0.07905236907730673,0.030998960013593913,
0.07910224438902744,0.04794526707050399,
0.07915211970074813,0.03403898407748526,
0.07920199501246883,0.013855983878101084,
0.07925187032418952,0.03648695209134049,
0.07930174563591022,-0.0009583199213768247,
0.07935162094763092,0.019376901066864925,
0.07940149625935163,0.02073536975534109,
0.07945137157107232,0.03487457733111146,
0.07950124688279302,0.051466969844217406,
0.07955112219451371,0.028070729683325385,
0.07960099750623441,0.019280617995492966,
0.07965087281795512,0.01411809808114823,
0.07970074812967581,0.0370045461366983,
0.07975062344139651,0.02143846622874893,
0.0798004987531172,0.016690542225583496,
0.0798503740648379,0.038380987437260504,
0.07990024937655861,0.041519461037038505,
0.0799501246882793,0.009454184485657486,
0.08,0.0012556556004164714,
0.0800498753117207,0.022093180017030912,
0.0800997506234414,0.006307558315263789,
0.08014962593516209,0.00410220623573284,
0.0801995012468828,0.007490907078895697,
0.0802493765586035,0.03863720357641415,
0.08029925187032419,0.0325293899669324,
0.08034912718204489,0.05946604022938916,
0.08039900249376558,0.01280060514293206,
0.08044887780548629,0.04219972259071207,
0.08049875311720699,0.029473705414519855,
0.08054862842892768,0.013538786610207418,
0.08059850374064838,0.01949482081618348,
0.08064837905236907,0.013084385539248657,
0.08069825436408977,0.02518503146091259,
0.08074812967581048,0.035903678597199534,
0.08079800498753117,0.015369869070868767,
0.08084788029925187,0.033415848030497214,
0.08089775561097257,0.03954659418382474,
0.08094763092269326,0.0426714108320065,
0.08099750623441397,0.002449522904179449,
0.08104738154613467,0.019084033704241405,
0.08109725685785536,0.030237033014346062,
0.08114713216957606,0.0030654391702406615,
0.08119700748129675,-0.0005095169648653905,
0.08124688279301745,0.018502426601386526,
0.08129675810473816,0.012465446988395756,
0.08134663341645886,0.0158329846786006,
0.08139650872817955,0.01110315383957523,
0.08144638403990025,0.05032398981592738,
0.08149625935162094,0.010750263812936565,
0.08154613466334165,0.026205942407755492,
0.08159600997506235,0.024944194550999464,
0.08164588528678304,-0.008425938024273247,
0.08169576059850374,0.03863646606083436,
0.08174563591022443,0.02576746629428338,
0.08179551122194513,0.01846806151976936,
0.08184538653366584,0.03170613555792354,
0.08189526184538654,0.014856374475665094,
0.08194513715710723,0.028528229349555907,
0.08199501246882793,-0.013120181828285605,
0.08204488778054862,0.02700779932632417,
0.08209476309226933,0.017219040403300447,
0.08214463840399003,0.017171108436157653,
0.08219451371571072,0.0012634496471015787,
0.08224438902743142,0.010329029686799782,
0.08229426433915212,0.009601550241244967,
0.08234413965087282,-0.004053350611241069,
0.08239401496259352,0.018116486570584837,
0.08244389027431422,0.036046492010010145,
0.08249376558603491,-0.009165187375913928,
0.08254364089775561,0.019211667459764832,
0.0825935162094763,0.005253886732752129,
0.08264339152119701,0.0032229402320264142,
0.08269326683291771,0.012082972748423518,
0.0827431421446384,0.012009061330012628,
0.0827930174563591,0.013128088188348385,
0.0828428927680798,-0.006908444031937473,
0.0828927680798005,0.026099091676176498,
0.0829426433915212,0.010662128800713976,
0.0829925187032419,0.0180464830436979,
0.08304239401496259,0.02705139623137731,
0.08309226932668329,-0.02029170542865931,
0.08314214463840398,0.017674116134915832,
0.0831920199501247,0.005446129867158167,
0.08324189526184539,0.022883231166895886,
0.08329177057356608,-0.004729005054108177,
0.08334164588528678,0.021011837829135228,
0.08339152119700748,-0.009152973820577566,
0.08344139650872819,0.012395678785527223,
0.08349127182044888,0.010316688062671121,
0.08354114713216958,0.0034118792957664253,
0.08359102244389027,-0.01004753753813591,
0.08364089775561097,-0.0004059963866102469,
0.08369077306733166,0.018658487333082677,
0.08374064837905237,0.026823473789083174,
0.08379052369077307,0.03351108402857998,
0.08384039900249377,0.01179294015277209,
0.08389027431421446,0.007355323675559534,
0.08394014962593516,0.010011369090057374,
0.08399002493765587,0.03189962275966461,
0.08403990024937656,0.010476316680940791,
0.08408977556109726,0.003671078981865088,
0.08413965087281795,-0.0020695275113393682,
0.08418952618453865,-0.0006387725588667004,
0.08423940149625936,0.007253251750314788,
0.08428927680798005,-0.010113939729262427,
0.08433915211970075,-0.008537301745490614,
0.08438902743142145,-0.0003950571573384364,
0.08443890274314214,-0.006512068362463455,
0.08448877805486284,0.008919861689287186,
0.08453865336658355,0.009788873572184498,
0.08458852867830424,0.003326809791509947,
0.08463840399002494,0.006448305376967971,
0.08468827930174563,0.0005763821810962078,
0.08473815461346633,-0.05835695024645406,
0.08478802992518704,-0.014894720533752879,
0.08483790523690773,0.008571797848858658,
0.08488778054862843,-0.014900209833450884,
0.08493765586034913,0.010235834179093042,
0.08498753117206982,0.01080377706885309,
0.08503740648379052,-0.007126026629603336,
0.08508728179551123,-0.0122724240933322,
0.08513715710723192,-0.003538630173798136,
0.08518703241895262,-0.004608425471861965,
0.08523690773067331,0.005193576561985098,
0.08528678304239401,-0.03958874424926622,
0.08533665835411472,-0.015741069099561033,
0.08538653366583542,-0.020171184319070307,
0.08543640897755611,-0.043012187196181766,
0.0854862842892768,-0.012909401093518638,
0.0855361596009975,-0.028227794268044053,
0.0855860349127182,-0.011789746745823967,
0.08563591022443891,-0.013537470651166594,
0.0856857855361596,0.00034513053799525763,
0.0857356608478803,-0.010442387980926572,
0.085785536159601,-0.03229295647500733,
0.08583541147132169,-0.0019507554381391025,
0.0858852867830424,0.02892501860678505,
0.0859351620947631,0.008531772991209205,
0.08598503740648379,0.002376467015295553,
0.08603491271820449,-0.01095804312605856,
0.08608478802992518,-0.015600414777775526,
0.08613466334164588,-0.016848053841102217,
0.08618453865336659,-0.005037483067831845,
0.08623441396508728,-0.02588574060305098,
0.08628428927680798,-0.005737347167439567,
0.08633416458852868,-0.019189127277080897,
0.08638403990024937,-0.03513985880041687,
0.08643391521197008,-0.01977321440688,
0.08648379052369078,0.008980561749450482,
0.08653366583541147,-0.00788805617833626,
0.08658354114713217,-0.06342361348188653,
0.08663341645885286,-0.02040863778765687,
0.08668329177057357,0.0030806076557342126,
0.08673316708229427,-0.015103706919130142,
0.08678304239401496,-0.0029270064418380586,
0.08683291770573566,-0.016864770434227832,
0.08688279301745636,-0.00832342558530712,
0.08693266832917705,-0.010695950674168946,
0.08698254364089776,-0.021052186510947563,
0.08703241895261846,-0.002925759819251828,
0.08708229426433915,0.0113454408642937,
0.08713216957605985,-0.00598319803624111,
0.08718204488778054,-0.010314168795111076,
0.08723192019950125,-0.02463741052984219,
0.08728179551122195,0.0019717505394933055,
0.08733167082294264,-0.019874296064612003,
0.08738154613466334,-0.003900656833108848,
0.08743142144638404,-0.0009833184681910644,
0.08748129675810473,0.0023106557635250036,
0.08753117206982544,0.0025014455997694127,
0.08758104738154614,0.0018751368363717751,
0.08763092269326683,-0.03159665522057378,
0.08768079800498753,-0.02571379016272248,
0.08773067331670822,-0.03348429691899199,
0.08778054862842893,-0.034559251364516194,
0.08783042394014963,0.009857736696243057,
0.08788029925187033,-0.027866005129438945,
0.08793017456359102,-0.030025336201631267,
0.08798004987531172,-0.014010908564438184,
0.08802992518703241,-0.024403141557517424,
0.08807980049875312,0.020679295142818757,
0.08812967581047382,-0.017381525057684387,
0.08817955112219451,-0.0066285472652295625,
0.08822942643391521,-0.025034328845176642,
0.0882793017456359,-0.03827399610273924,
0.08832917705735661,-0.024285478910799223,
0.08837905236907731,-0.02413084242683359,
0.088428927680798,-0.024237424563180412,
0.0884788029925187,-0.03736012736384964,
0.0885286783042394,-0.011309839295977024,
0.0885785536159601,-0.018389644253457415,
0.0886284289276808,-0.03644830916163083,
0.0886783042394015,-0.011702427816293787,
0.0887281795511222,-0.0018350873994062988,
0.08877805486284289,0.004730212364326962,
0.08882793017456359,-0.049502380829497754,
0.0888778054862843,-0.024118934966356288,
0.08892768079800499,-0.033669621532572046,
0.08897755610972569,-0.02284037333535049,
0.08902743142144638,0.00782980514544347,
0.08907730673316708,-0.023844769682654095,
0.08912718204488779,-0.019995288587133585,
0.08917705735660848,-0.025234152437981605,
0.08922693266832918,0.011667323650477367,
0.08927680798004987,-0.0471369752313974,
0.08932668329177057,-0.02090008379981427,
0.08937655860349127,-0.025448028456028435,
0.08942643391521198,-0.03818616694204484,
0.08947630922693267,0.004264710121815101,
0.08952618453865337,-0.03921042811283483,
0.08957605985037406,-0.018946243326871465,
0.08962593516209476,-0.01312158193170724,
0.08967581047381547,-0.02308590440140523,
0.08972568578553616,-0.03771296618090478,
0.08977556109725686,-0.014095309510454597,
0.08982543640897755,-0.022866790598109074,
0.08987531172069825,0.0008269714574611377,
0.08992518703241895,-0.0034200982032004563,
0.08997506234413966,0.01814776862865574,
0.09002493765586035,-0.009216992493693588,
0.09007481296758105,-0.001873796030414935,
0.09012468827930174,-0.01593822307533393,
0.09017456359102244,0.015284353897032298,
0.09022443890274315,-0.010070722880068468,
0.09027431421446384,-0.01159207299810153,
0.09032418952618454,-0.0017699639830093244,
0.09037406483790524,-0.019373795503167708,
0.09042394014962593,-0.017010403862284945,
0.09047381546134663,-0.0012310030687301549,
0.09052369077306734,0.0018458507286217962,
0.09057356608478803,1.3463221161229971e-05,
0.09062344139650873,-0.009946265255905003,
0.09067331670822942,-0.004484299614420022,
0.09072319201995012,0.006072209956823912,
0.09077306733167083,-0.024533462703766856,
0.09082294264339152,-0.007888973390851328,
0.09087281795511222,-0.0513632976156613,
0.09092269326683292,0.0036323857837013574,
0.09097256857855361,-0.01898568896136164,
0.09102244389027432,-0.018359267925125933,
0.09107231920199502,-0.008615368675368731,
0.09112219451371571,0.002734532916833926,
0.09117206982543641,0.029563625795852616,
0.0912219451371571,-0.0293680564313291,
0.0912718204488778,-0.01857065965527599,
0.09132169576059851,-0.002150063054071165,
0.0913715710723192,-0.01623052238836596,
0.0914214463840399,0.007463119287806536,
0.0914713216957606,-0.007336265122889695,
0.09152119700748129,0.008719815049915213,
0.091571072319202,-0.008024903209243345,
0.0916209476309227,0.004140752226837666,
0.09167082294264339,-0.018121734417233755,
0.09172069825436409,0.025566854888044572,
0.09177057356608478,-0.028716486313113777,
0.09182044887780548,-0.013562701010622302,
0.09187032418952619,-0.023974229892596136,
0.09192019950124689,0.009616124508502646,
0.09197007481296758,0.005988202528846814,
0.09201995012468828,-0.020094167659986773,
0.09206982543640897,0.013422107303788471,
0.09211970074812968,-0.011723911214110507,
0.09216957605985038,0.004854825401508742,
0.09221945137157107,0.00866972769822955,
0.09226932668329177,-0.004040643626882114,
0.09231920199501246,0.01357662381387009,
0.09236907730673316,-0.001934679183617519,
0.09241895261845387,0.005607751887999254,
0.09246882793017457,-0.003283814915889115,
0.09251870324189526,-0.026892436325153396,
0.09256857855361596,-0.00041785027895917194,
0.09261845386533665,-0.011364201935441406,
0.09266832917705736,0.022931724190106216,
0.09271820448877806,-0.0181068499409659,
0.09276807980049875,0.021040304429842678,
0.09281795511221945,0.00029373220831536984,
0.09286783042394015,0.009379604885702926,
0.09291770573566084,-0.017100006547304827,
0.09296758104738155,-0.0007201167334856037,
0.09301745635910225,-0.005743810980198846,
0.09306733167082294,0.03608854415980558,
0.09311720698254364,-0.005485249496742813,
0.09316708229426433,0.02247112375917493,
0.09321695760598504,0.022996937946525912,
0.09326683291770574,0.022891925317214866,
0.09331670822942643,-0.0027886536028400377,
0.09336658354114713,0.0335097927659364,
0.09341645885286783,0.03693608023613517,
0.09346633416458854,0.012577173908803745,
0.09351620947630923,0.00040650420542283176,
0.09356608478802993,-0.005205247530576692,
0.09361596009975062,0.01509763547349868,
0.09366583541147132,0.00931133383115461,
0.09371571072319201,0.011394755273845328,
0.09376558603491272,-0.011248160085123277,
0.09381546134663342,0.009779464283430383,
0.09386533665835411,0.026757743939219265,
0.09391521197007481,0.02214195775037284,
0.0939650872817955,0.0040158282147988176,
0.09401496259351622,0.008904720102425928,
0.09406483790523691,-0.011172846282780428,
0.09411471321695761,0.0011842939262797,
0.0941645885286783,0.00637254284068712,
0.094214463840399,0.02128289618433772,
0.0942643391521197,0.0014942090555915815,
0.0943142144638404,-0.0031439262907265036,
0.0943640897755611,0.024066146065538127,
0.0944139650872818,0.006665619846499053,
0.09446384039900249,0.0007227972216881963,
0.09451371571072319,0.025793896477359107,
0.0945635910224439,0.020788609614956117,
0.09461346633416459,0.011092274988922677,
0.09466334164588529,0.009230862732213574,
0.09471321695760598,0.020486910197597845,
0.09476309226932668,0.023167495486229754,
0.09481296758104737,0.018509755368824144,
0.09486284289276808,0.017473710828486897,
0.09491271820448878,0.006850681718094335,
0.09496259351620948,0.008033298977349126,
0.09501246882793017,0.013937989803921469,
0.09506234413965087,0.0023780722189168883,
0.09511221945137158,0.0009007126106511908,
0.09516209476309227,0.015999861324567908,
0.09521197007481297,0.03245945090464896,
0.09526184538653366,-0.013206563045697069,
0.09531172069825436,0.01228221948675079,
0.09536159600997507,0.02250557034028728,
0.09541147132169576,0.03476360683607902,
0.09546134663341646,0.045935897230646644,
0.09551122194513716,0.015325380661814481,
0.09556109725685785,0.04903334008727428,
0.09561097256857855,0.026528520033136403,
0.09566084788029926,0.032154923351953406,
0.09571072319201995,0.00420417372887762,
0.09576059850374065,0.027225968210093834,
0.09581047381546134,0.034170288419479534,
0.09586034912718204,0.010555114989482185,
0.09591022443890275,-0.017958501632479,
0.09596009975062345,0.023587534931565877,
0.09600997506234414,0.0183517281924983,
0.09605985037406484,0.04195932447773712,
0.09610972568578553,0.013937061006536293,
0.09615960099750623,0.011649156523970213,
0.09620947630922694,0.004861872100847972,
0.09625935162094763,0.0131870737335324,
0.09630922693266833,0.06284401014239503,
0.09635910224438902,-0.0007625324797516306,
0.09640897755610972,0.003201499973937774,
0.09645885286783043,0.022606039880518364,
0.09650872817955113,0.05322480134632547,
0.09655860349127182,0.03491122670334841,
0.09660847880299252,0.04725063364007416,
0.09665835411471321,0.018363475512449615,
0.09670822942643391,0.003457094093473157,
0.09675810473815462,0.017735651472278673,
0.09680798004987531,0.022764326483264114,
0.09685785536159601,0.024955963454895126,
0.0969077306733167,0.021734246999092356,
0.0969576059850374,0.033953126929136504,
0.09700748129675811,0.014557064471538752,
0.0970573566084788,0.011467735031479019,
0.0971072319201995,0.007440682901873212,
0.0971571072319202,0.02871574096095734,
0.0972069825436409,0.027352481058154812,
0.09725685785536159,0.04225889318647787,
0.0973067331670823,0.04920917663936815,
0.097356608478803,0.008005877888687903,
0.09740648379052369,0.02657688300630535,
0.09745635910224439,0.02324661600529621,
0.09750623441396508,0.003374273500269403,
0.09755610972568579,0.018596238811645616,
0.09760598503740649,0.05010685659305232,
0.09765586034912718,0.017201154350104973,
0.09770573566084788,0.01478625052111017,
0.09775561097256857,0.026064815012228525,
0.09780548628428928,0.0405907472447432,
0.09785536159600998,0.022410201593823502,
0.09790523690773068,0.02895579748370786,
0.09795511221945137,-0.007173178269248893,
0.09800498753117207,0.03573116249119144,
0.09805486284289276,0.030508845172451563,
0.09810473815461347,0.040502806181645784,
0.09815461346633417,-0.0007459231384691241,
0.09820448877805486,0.022762159656729637,
0.09825436408977556,0.041788204547607344,
0.09830423940149625,0.018992589704160654,
0.09835411471321696,0.02812870136515481,
0.09840399002493766,0.021229878260437617,
0.09845386533665836,0.021603852215956263,
0.09850374064837905,0.044889241219599835,
0.09855361596009975,0.006027973610583982,
0.09860349127182044,0.026616437447111313,
0.09865336658354115,0.031133814611680948,
0.09870324189526185,0.04141080831751792,
0.09875311720698254,0.025486994086354534,
0.09880299251870324,0.041821647831863124,
0.09885286783042393,0.026436222420773505,
0.09890274314214464,0.029011198199597757,
0.09895261845386534,0.02839564748797505,
0.09900249376558604,0.036957393275443375,
0.09905236907730673,0.03520202486954213,
0.09910224438902743,0.010323158814248338,
0.09915211970074812,0.03021255639237193,
0.09920199501246883,0.03500055223329114,
0.09925187032418953,0.04874521003071722,
0.09930174563591022,0.011613256249597775,
0.09935162094763092,0.03473892913663474,
0.09940149625935162,0.02135836733726774,
0.09945137157107233,0.02936420235496242,
0.09950124688279302,0.010288910587066737,
0.09955112219451372,0.02609102698904714,
0.09960099750623441,0.030971415113789286,
0.09965087281795511,0.01152680151996056,
0.0997007481296758,0.04769671316556896,
0.09975062344139651,0.0026840261133053607,
0.09980049875311721,0.03378825880446261,
0.0998503740648379,-0.010828608894148436,
0.0999002493765586,0.021641851923487304,
0.0999501246882793,0.032525366020228784,
0.1,0.03588007080476015,
0.1000498753117207,0.023465533116961233,
0.1000997506234414,0.021272937306420558,
0.10014962593516209,0.03325586066291853,
0.10019950124688279,0.038846826062102484,
0.1002493765586035,0.0451195727819826,
0.1002992518703242,0.004897499250611784,
0.10034912718204489,0.021080233906819408,
0.10039900249376559,-0.00898690712210612,
0.10044887780548628,0.0032256876734993063,
0.10049875311720698,0.012994567257725615,
0.10054862842892769,0.03634574275928091,
0.10059850374064838,0.015967493529636233,
0.10064837905236908,0.018652904219838673,
0.10069825436408977,0.02729053112230997,
0.10074812967581047,0.012530604956390187,
0.10079800498753118,-0.007535854538604191,
0.10084788029925187,0.010987006326809042,
0.10089775561097257,0.020153084717185726,
0.10094763092269327,0.028775370862639787,
0.10099750623441396,0.01843360684755631,
0.10104738154613466,0.028084530218219505,
0.10109725685785537,0.034951831448199557,
0.10114713216957606,0.037660574663148774,
0.10119700748129676,0.023204418277559525,
0.10124688279301745,0.0033268157989474155,
0.10129675810473815,0.0014702872261776745,
0.10134663341645886,0.002625705664987807,
0.10139650872817955,0.0035356254268640273,
0.10144638403990025,0.020902240995670854,
0.10149625935162095,0.04747212574542968,
0.10154613466334164,0.022085562332107015,
0.10159600997506234,0.017390783512773,
0.10164588528678305,0.03282007768765041,
0.10169576059850374,0.005701629886178252,
0.10174563591022444,0.03349639785179867,
0.10179551122194513,0.032117864436045016,
0.10184538653366583,0.018214927184960896,
0.10189526184538654,0.04846460320704138,
0.10194513715710724,0.03351301316943124,
0.10199501246882793,0.017189278358008635,
0.10204488778054863,0.014075345123276246,
0.10209476309226932,0.009471073120333916,
0.10214463840399003,0.01370620724951991,
0.10219451371571073,0.013855926023834782,
0.10224438902743142,0.010304246052489384,
0.10229426433915212,0.011598927721891835,
0.10234413965087281,-0.0033687987751343865,
0.10239401496259351,0.0057049601445662845,
0.10244389027431422,-0.010025022971908201,
0.10249376558603492,0.019855642982382255,
0.10254364089775561,0.014543867078021517,
0.10259351620947631,0.011206630320151493,
0.102643391521197,0.02604005423366544,
0.10269326683291771,-0.0005067194849896449,
0.10274314214463841,0.0014827122641072003,
0.1027930174563591,-0.010375411331700505,
0.1028428927680798,0.026884671821330343,
0.1028927680798005,0.02031804121587994,
0.10294264339152119,0.030873651973906412,
0.1029925187032419,0.0343624226948693,
0.1030423940149626,0.0039517038459981075,
0.10309226932668329,-0.000657400610495993,
0.10314214463840399,-0.01723006669470389,
0.10319201995012468,-0.007076266947055236,
0.10324189526184539,0.0042111544446644614,
0.10329177057356609,-0.02213859059593513,
0.10334164588528678,-0.007693733880916501,
0.10339152119700748,0.006914161023498741,
0.10344139650872818,0.021248585541494086,
0.10349127182044887,-0.0032188503081715166,
0.10354114713216958,0.009147409813687245,
0.10359102244389028,0.03487458682964255,
0.10364089775561097,-0.020481731931107198,
0.10369077306733167,0.022588003782334838,
0.10374064837905236,0.011702855979357173,
0.10379052369077307,0.02468102341794345,
0.10384039900249377,0.019878743674301,
0.10389027431421446,-0.004879784706153476,
0.10394014962593516,0.0047888348492568285,
0.10399002493765586,-0.017452039706341346,
0.10403990024937655,-0.00369281258826871,
0.10408977556109726,0.004285968451567651,
0.10413965087281796,0.008098037378609275,
0.10418952618453865,0.015083802250467907,
0.10423940149625935,0.02668531648039834,
0.10428927680798004,-0.0038914234424234457,
0.10433915211970075,0.019514897291473914,
0.10438902743142145,0.006055870052593148,
0.10443890274314215,-0.01786055192079017,
0.10448877805486284,-0.0007994795091252173,
0.10453865336658354,0.002902202946512681,
0.10458852867830425,-0.01167739033146058,
0.10463840399002494,-0.015024640715108298,
0.10468827930174564,-0.015815968961982896,
0.10473815461346633,-0.00814242292945354,
0.10478802992518703,-0.013242303718444301,
0.10483790523690772,0.017901590609826972,
0.10488778054862843,-0.03760081373460439,
0.10493765586034913,0.0005574602076218165,
0.10498753117206983,0.006537832682064988,
0.10503740648379052,-0.016102259563182102,
0.10508728179551122,-0.005409252970262581,
0.10513715710723193,-0.0073303367935066855,
0.10518703241895262,-0.0036252549486418973,
0.10523690773067332,0.007216186623385768,
0.10528678304239401,0.005612251850454483,
0.10533665835411471,-0.01224610142591094,
0.1053865336658354,-0.02606845105325542,
0.10543640897755611,-0.0012780775243656241,
0.10548628428927681,-0.013853786741400934,
0.1055361596009975,-0.012166667544237099,
0.1055860349127182,-0.001142310224474722,
0.1056359102244389,-0.011260706824290133,
0.10568578553615961,-0.0003714117664571151,
0.1057356608478803,0.03248633968693841,
0.105785536159601,0.00485002239404202,
0.1058354114713217,0.014507974071090423,
0.10588528678304239,0.001773385763499358,
0.10593516209476309,-0.004954368109936988,
0.1059850374064838,0.0015621590125736388,
0.10603491271820449,0.0006166396054272686,
0.10608478802992519,0.006188482614238435,
0.10613466334164588,-0.006070111334506962,
0.10618453865336658,-0.0267886916124419,
0.10623441396508729,-0.02938571283531423,
0.10628428927680798,-0.0006409597770602737,
0.10633416458852868,-0.024644460077418114,
0.10638403990024937,0.002356660836290686,
0.10643391521197007,0.01195576939363811,
0.10648379052369077,-0.011614290620511183,
0.10653366583541148,0.009689446490076317,
0.10658354114713217,-0.004768989320359501,
0.10663341645885287,-0.008432488840169002,
0.10668329177057356,-0.00789269980808406,
0.10673316708229426,-0.021608083811630888,
0.10678304239401497,-0.02368057564865981,
0.10683291770573566,-0.03411315153810986,
0.10688279301745636,-0.020596181439806266,
0.10693266832917706,0.022348299163927388,
0.10698254364089775,-0.032281609635940615,
0.10703241895261846,-0.027663310990352942,
0.10708229426433916,-0.022228795838801288,
0.10713216957605985,-0.021650011926004707,
0.10718204488778055,-0.0063510748222682335,
0.10723192019950124,-0.01968432965166203,
0.10728179551122194,-0.013596568213826293,
0.10733167082294265,-0.02346844338992773,
0.10738154613466334,-0.017956755789364058,
0.10743142144638404,-0.011821393640483511,
0.10748129675810474,-0.013037801031136081,
0.10753117206982543,0.018603469558705597,
0.10758104738154614,-0.011614606424946897,
0.10763092269326684,-0.014417021207529523,
0.10768079800498753,-0.04879970542512547,
0.10773067331670823,-0.007815934619631317,
0.10778054862842892,-0.0411058930178213,
0.10783042394014962,-0.003264179723250306,
0.10788029925187033,-0.009458526510869873,
0.10793017456359102,0.0003233198147435702,
0.10798004987531172,-0.021207079655971246,
0.10802992518703242,-0.011326601014316708,
0.10807980049875311,-0.0016305948969488372,
0.10812967581047382,-0.02574121503069716,
0.10817955112219452,-0.0026735077942862777,
0.10822942643391521,-0.003381315451866174,
0.10827930174563591,-0.013884404996303744,
0.1083291770573566,0.011805276392230012,
0.1083790523690773,-0.00414586456727249,
0.10842892768079801,-0.036992975974706625,
0.1084788029925187,0.002953029275514947,
0.1085286783042394,-0.02174062650132663,
0.1085785536159601,0.00010943365990343651,
0.10862842892768079,-0.007404762290727793,
0.1086783042394015,-0.05144078228994915,
0.1087281795511222,-0.002713764976720481,
0.1087780548628429,-0.015078775048224956,
0.10882793017456359,-0.018607943032180396,
0.10887780548628428,-0.018006639376170242,
0.108927680798005,0.00020695016814195784,
0.10897755610972569,-0.02539300091984942,
0.10902743142144639,0.00518241014136476,
0.10907730673316708,-0.03424958269196085,
0.10912718204488778,-0.006952634640496029,
0.10917705735660847,0.000270147557715086,
0.10922693266832918,-2.161296578859391e-05,
0.10927680798004988,-0.00839778301447209,
0.10932668329177057,-0.014174996872315725,
0.10937655860349127,-0.019232219926873663,
0.10942643391521197,-0.02922343046936112,
0.10947630922693267,-0.02107216964790843,
0.10952618453865337,-0.025103133275623468,
0.10957605985037407,-0.02745289430007278,
0.10962593516209476,0.016596418382687605,
0.10967581047381546,-0.03613215368410121,
0.10972568578553615,0.0066649488984818015,
0.10977556109725686,-0.028637653640876618,
0.10982543640897756,-0.02528995077544224,
0.10987531172069825,-0.025398658388830896,
0.10992518703241895,-0.026337698396783918,
0.10997506234413965,0.004307621756487598,
0.11002493765586036,-0.0005599796925783058,
0.11007481296758105,-0.0127204229319327,
0.11012468827930175,0.031537256972403324,
0.11017456359102244,-0.009161413760344524,
0.11022443890274314,-0.00784556927596609,
0.11027431421446383,-0.018857308018171093,
0.11032418952618454,-0.02046864160990838,
0.11037406483790524,-0.016215144715761687,
0.11042394014962593,0.004740731323699954,
0.11047381546134663,0.0007188677734521753,
0.11052369077306733,0.011702258223206455,
0.11057356608478804,-0.01821781725661017,
0.11062344139650873,0.0015799454767241594,
0.11067331670822943,-0.002477280520464432,
0.11072319201995012,-0.00034031710256026033,
0.11077306733167082,-0.01959971150301701,
0.11082294264339151,-0.022010133552913404,
0.11087281795511222,0.0018754884206715252,
0.11092269326683292,0.007102144833257693,
0.11097256857855362,-0.015040437245212465,
0.11102244389027431,0.0035977605969004945,
0.111072319201995,0.012684329000822172,
0.11112219451371572,-0.010498433025041711,
0.11117206982543641,-0.02641554655327774,
0.11122194513715711,-0.024298877467814145,
0.1112718204488778,-0.014495349446065774,
0.1113216957605985,-0.010790094885962498,
0.11137157107231921,-0.004391295870177572,
0.1114214463840399,-0.0038328223011924742,
0.1114713216957606,-0.007424367930214212,
0.1115211970074813,0.007109034041630845,
0.11157107231920199,-0.014228826911390317,
0.11162094763092269,0.01641790304929488,
0.1116708229426434,0.011816462366070226,
0.11172069825436409,0.010987881044822699,
0.11177057356608479,-0.011633957198927443,
0.11182044887780548,-0.003212399815935328,
0.11187032418952618,0.009654343732189789,
0.11192019950124689,-0.003906930725270623,
0.11197007481296758,-0.011113097911569387,
0.11201995012468828,-0.011430208565434365,
0.11206982543640898,-0.01041292265985779,
0.11211970074812967,-0.01717980360840702,
0.11216957605985037,0.04358035091413236,
0.11221945137157108,-0.028467015806140805,
0.11226932668329177,-0.013599496372084472,
0.11231920199501247,0.01034909050804292,
0.11236907730673316,-0.008514173969522788,
0.11241895261845386,-0.003269102825865417,
0.11246882793017457,0.008235731051803665,
0.11251870324189527,0.018096019098817827,
0.11256857855361596,-0.0011863390116373333,
0.11261845386533666,0.017050964308094035,
0.11266832917705735,-0.021933887382264865,
0.11271820448877805,-0.005254160854206042,
0.11276807980049876,0.011566978297208742,
0.11281795511221945,0.034052812467956044,
0.11286783042394015,-0.009714686860353228,
0.11291770573566084,-0.012043302153658186,
0.11296758104738154,0.010512330707350089,
0.11301745635910225,0.006502733129524541,
0.11306733167082295,-0.0047570795421161376,
0.11311720698254364,-0.011915911985602793,
0.11316708229426434,-0.0010584624926136994,
0.11321695760598503,0.01478445220016617,
0.11326683291770574,0.002284210587492108,
0.11331670822942644,0.02516628665406282,
0.11336658354114713,0.005875360418306023,
0.11341645885286783,0.017255250306303867,
0.11346633416458853,0.012726827055853452,
0.11351620947630922,0.0028117387745518023,
0.11356608478802993,0.02168045217968246,
0.11361596009975063,-0.008758823279578942,
0.11366583541147132,0.001513421757893282,
0.11371571072319202,0.003924808495080721,
0.11376558603491271,0.016172062112793845,
0.11381546134663342,0.02022672401777375,
0.11386533665835412,-0.0011486109343174025,
0.11391521197007481,-0.002948207026619954,
0.11396508728179551,0.01288528427299274,
0.1140149625935162,-0.011045397954205576,
0.1140648379052369,0.027448672264377798,
0.11411471321695761,0.009284535874214494,
0.1141645885286783,-0.0045912340976025055,
0.114214463840399,-0.0045792342085773236,
0.1142643391521197,0.01826529306497515,
0.1143142144638404,0.018165784485103042,
0.1143640897755611,0.002653234840684573,
0.1144139650872818,0.012775358816486919,
0.1144638403990025,-0.002152382942217545,
0.11451371571072319,0.011210203488783937,
0.11456359102244389,0.03751868162752512,
0.11461346633416458,0.04764140794440651,
0.11466334164588529,0.012802297836918407,
0.11471321695760599,0.022750219761492302,
0.11476309226932668,0.022449616616855825,
0.11481296758104738,-0.008960906870633188,
0.11486284289276807,-0.00010520718314734404,
0.11491271820448878,-0.01730607508415068,
0.11496259351620948,0.024448387414094497,
0.11501246882793018,0.04717454945623084,
0.11506234413965087,0.03426053721039013,
0.11511221945137157,0.019217306760752933,
0.11516209476309226,0.017376952986826615,
0.11521197007481297,0.013810548328383583,
0.11526184538653367,0.035260409452811316,
0.11531172069825436,0.02286692040516039,
0.11536159600997506,0.020832930466831105,
0.11541147132169575,0.0036080590945478212,
0.11546134663341646,0.02943175144650921,
0.11551122194513716,0.018421320007612676,
0.11556109725685786,0.0268781433114028,
0.11561097256857855,0.03615927438529007,
0.11566084788029925,-0.003103627354645113,
0.11571072319201996,0.01722872720100895,
0.11576059850374065,0.01529372817894874,
0.11581047381546135,0.01420855763406464,
0.11586034912718204,0.005620036560900942,
0.11591022443890274,0.011690747693535371,
0.11596009975062344,0.006353570941380459,
0.11600997506234415,0.0354273109935119,
0.11605985037406484,0.028934607474509884,
0.11610972568578554,0.028110728327580443,
0.11615960099750623,-0.005202562680503103,
0.11620947630922693,0.05314359808555051,
0.11625935162094764,0.017988139303561676,
0.11630922693266833,0.05048686237959778,
0.11635910224438903,0.03575187467782576,
0.11640897755610972,0.02123355330795132,
0.11645885286783042,0.05554626388591423,
0.11650872817955112,0.03359461448106985,
0.11655860349127183,0.021840449439032978,
0.11660847880299252,0.019576725176571462,
0.11665835411471322,0.041096068739182354,
0.11670822942643391,0.017738490572936687,
0.11675810473815461,0.02027285408265561,
0.11680798004987532,0.017158058101358654,
0.11685785536159601,0.014934339253896579,
0.11690773067331671,0.016004391061471553,
0.1169576059850374,0.05315629381116414,
0.1170074812967581,0.041826765883602034,
0.1170573566084788,0.03038231735079322,
0.1171072319201995,0.01877475293923925,
0.1171571072319202,0.018846974114963236,
0.1172069825436409,0.021744067074230385,
0.1172568578553616,0.054199027248089324,
0.11730673316708229,0.03184519036185224,
0.117356608478803,0.03880668860627816,
0.1174064837905237,0.03069866025224591,
0.11745635910224439,0.014519479419315579,
0.11750623441396509,0.029440668242954993,
0.11755610972568578,0.011858262567389644,
0.11760598503740648,0.046014585233232874,
0.11765586034912719,0.016939291330360408,
0.11770573566084788,0.019669576995283038,
0.11775561097256858,0.04052015760022372,
0.11780548628428927,0.017917476612505846,
0.11785536159600997,0.02517134626782574,
0.11790523690773068,-0.011048075021378584,
0.11795511221945137,0.0237335920110126,
0.11800498753117207,0.037537380397580436,
0.11805486284289277,0.019272557601415954,
0.11810473815461346,0.03709847209109384,
0.11815461346633417,0.028502730708412048,
0.11820448877805487,0.045093549532350174,
0.11825436408977556,0.01777735942049631,
0.11830423940149626,0.025199955651561114,
0.11835411471321695,0.006794608937016704,
0.11840399002493765,0.027469631036645143,
0.11845386533665836,0.02253386211687473,
0.11850374064837906,0.04326044364694115,
0.11855361596009975,0.019484249670546946,
0.11860349127182045,0.022491033267226117,
0.11865336658354114,0.018706045803977528,
0.11870324189526185,0.029223098323706342,
0.11875311720698255,0.05862033821412781,
0.11880299251870324,-0.023701027935586365,
0.11885286783042394,0.028014594589154517,
0.11890274314214463,0.0463101199206357,
0.11895261845386533,0.020933524734822392,
0.11900249376558604,0.03650933731657923,
0.11905236907730674,0.04621281214319292,
0.11910224438902743,0.024352530360599565,
0.11915211970074813,0.018644751735894995,
0.11920199501246882,0.0423978685369734,
0.11925187032418953,0.03572582807329339,
0.11930174563591023,0.02728355071933704,
0.11935162094763092,0.037306900440773776,
0.11940149625935162,0.04245753522167557,
0.11945137157107232,0.027166939572097273,
0.11950124688279301,0.03244911321662011,
0.11955112219451372,0.0356046212496237,
0.11960099750623442,0.020735325292223484,
0.11965087281795511,0.04537406229388584,
0.11970074812967581,0.011977451360260396,
0.1197506234413965,0.025354331304224657,
0.11980049875311721,0.03871317751522626,
0.11985037406483791,0.011227207392991514,
0.1199002493765586,0.040012175953790446,
0.1199501246882793,0.029660829721921377,
0.12,0.046543901439097285,
0.1200498753117207,0.03571345166221599,
0.1200997506234414,0.023931193300471824,
0.1201496259351621,0.02969377665169048,
0.12019950124688279,0.030075191817400832,
0.12024937655860349,0.056249982844100974,
0.12029925187032418,0.027005461923624796,
0.1203491271820449,0.02349538389221786,
0.12039900249376559,0.02245938110308654,
0.12044887780548628,0.02804635472925568,
0.12049875311720698,0.008016947505290296,
0.12054862842892768,0.01910435642400364,
0.12059850374064839,0.009474089731784482,
0.12064837905236908,0.01124060656136814,
0.12069825436408978,0.03632674151197164,
0.12074812967581047,0.024458229457853926,
0.12079800498753117,0.012731543995355135,
0.12084788029925186,0.021396766317733035,
0.12089775561097257,0.01974819387561305,
0.12094763092269327,0.02401383357706232,
0.12099750623441397,0.00039786804104873993,
0.12104738154613466,0.006413071286468838,
0.12109725685785536,0.0009342632819538364,
0.12114713216957607,0.008833129693025034,
0.12119700748129676,0.011253820957141607,
0.12124688279301746,0.0063408667025294605,
0.12129675810473815,0.033086570560757776,
0.12134663341645885,0.04897774552392402,
0.12139650872817954,0.03351740165391668,
0.12144638403990025,0.0124048928766625,
0.12149625935162095,0.023787992730983105,
0.12154613466334165,0.019385455203265383,
0.12159600997506234,0.010993040039958915,
0.12164588528678304,0.03973708132149638,
0.12169576059850375,0.049712860236280576,
0.12174563591022444,-0.0027097181403871774,
0.12179551122194514,0.0406776736489568,
0.12184538653366583,0.00993974228591127,
0.12189526184538653,0.014598102590851278,
0.12194513715710723,0.02249913891773943,
0.12199501246882793,0.04119769490994497,
0.12204488778054863,0.021923249157007902,
0.12209476309226933,0.023610942557895805,
0.12214463840399002,0.029942118575761567,
0.12219451371571072,0.03202429715416716,
0.12224438902743143,0.024237868977750668,
0.12229426433915212,0.03154282287539375,
0.12234413965087282,0.0070244256531306615,
0.12239401496259351,-0.010316018898251705,
0.12244389027431421,0.04278296682113947,
0.12249376558603492,-0.00045201961278541584,
0.12254364089775562,0.006809373333071694,
0.12259351620947631,0.009546558954698742,
0.122643391521197,0.00666223148893329,
0.1226932668329177,0.003028209054222653,
0.1227431421446384,0.020572875351464123,
0.12279301745635911,0.020430128501861357,
0.1228428927680798,0.022312332769562303,
0.1228927680798005,0.021066913619693668,
0.1229426433915212,0.006153463513125982,
0.12299251870324189,0.0058227799591820594,
0.1230423940149626,0.028578836793483352,
0.1230922693266833,0.003662790056125456,
0.12314214463840399,0.0030568688037183774,
0.12319201995012469,0.02480968532734669,
0.12324189526184538,0.010279640250550096,
0.12329177057356608,0.002673244734958437,
0.12334164588528679,0.002505584492766307,
0.12339152119700748,0.026488798805881328,
0.12344139650872818,0.01811091345741409,
0.12349127182044888,0.012558880902722697,
0.12354114713216957,-0.008793902278517958,
0.12359102244389028,0.01200347812090647,
0.12364089775561098,0.00489041224109101,
0.12369077306733167,-0.00591338771453807,
0.12374064837905237,-0.0015592982159519523,
0.12379052369077306,0.017598731122373586,
0.12384039900249376,0.025484991041439017,
0.12389027431421447,-0.009319614542856085,
0.12394014962593516,-0.007733987630529256,
0.12399002493765586,0.016341338669006313,
0.12403990024937656,-0.0005134900418869532,
0.12408977556109725,0.013611669183558203,
0.12413965087281796,-0.0013223019344030893,
0.12418952618453866,0.013370260786651971,
0.12423940149625935,-0.01619150675249324,
0.12428927680798005,0.01235472180242965,
0.12433915211970074,-0.02767219776647726,
0.12438902743142144,0.017399171732853592,
0.12443890274314215,0.0027133462643360914,
0.12448877805486284,0.009547957377335981,
0.12453865336658354,0.006193681953854842,
0.12458852867830424,-0.023241796071187995,
0.12463840399002493,0.022559066273756898,
0.12468827930174564,0.006786469939188611,
0.12473815461346634,0.012828488225689622,
0.12478802992518703,-0.010788388199750362,
0.12483790523690773,0.004529790694747057,
0.12488778054862842,-0.019009949780821364,
0.12493765586034913,0.002599414417691678,
0.12498753117206983,-0.014007766151234996,
0.12503740648379053,0.07492120782975792,
0.12508728179551123,0.008619372389831376,
0.12513715710723192,0.01923660010876884,
0.12518703241895263,-0.004735915730165026,
0.1252369077306733,0.0047296751856030295,
0.12528678304239402,0.01206408968350429,
0.1253366583541147,-0.017865413837571835,
0.1253865336658354,-0.01211802720288201,
0.12543640897755612,0.012305765883625511,
0.1254862842892768,-0.005802172982872146,
0.1255361596009975,-0.013993009347902256,
0.1255860349127182,-0.01248637506266001,
0.1256359102244389,-0.021599536627026412,
0.1256857855361596,-0.032890159424573906,
0.1257356608478803,-0.02917633289584884,
0.125785536159601,-0.003279983498861584,
0.12583541147132168,0.005880824818387543,
0.1258852867830424,0.033366055354604754,
0.1259351620947631,-0.0052598987960485715,
0.12598503740648379,-0.02405623078885797,
0.1260349127182045,-0.005497967751699327,
0.12608478802992518,0.005262285811577356,
0.1261346633416459,0.009963988897545864,
0.1261845386533666,0.00830468745011659,
0.12623441396508728,0.002699858891709494,
0.126284289276808,-0.00465826206978246,
0.12633416458852867,0.0047724062337506125,
0.12638403990024938,-0.024240318158000353,
0.1264339152119701,-0.03677488418712574,
0.12648379052369077,0.024566070829787394,
0.12653366583541148,-0.007714404380686695,
0.12658354114713216,0.0008270244510349203,
0.12663341645885287,-0.04937589132190828,
0.12668329177057355,0.0156596441857684,
0.12673316708229426,0.009664173467451772,
0.12678304239401497,-0.03131364792780311,
0.12683291770573565,-0.012740681717182515,
0.12688279301745636,-0.004134889773484536,
0.12693266832917705,-0.027227968680860515,
0.12698254364089775,-0.0010784029785420764,
0.12703241895261846,0.00714046872342124,
0.12708229426433915,-0.003810597681132094,
0.12713216957605986,-0.032292288737313504,
0.12718204488778054,-0.024470568826087453,
0.12723192019950125,-0.010892908605045638,
0.12728179551122196,-0.012891222579718963,
0.12733167082294264,-0.012693648115555092,
0.12738154613466335,-0.013327081847515403,
0.12743142144638403,-0.03651537530386012,
0.12748129675810474,0.0025364003060070854,
0.12753117206982545,-0.0002281373220463373,
0.12758104738154613,-0.0018852089633148526,
0.12763092269326684,-0.0033542035459710774,
0.12768079800498752,-0.014135963068481913,
0.12773067331670823,-0.01904998349647432,
0.1277805486284289,-0.02527294294629036,
0.12783042394014962,0.013075116473990175,
0.12788029925187033,-0.010431612246235457,
0.12793017456359101,-0.03508305734458158,
0.12798004987531172,-0.010658112083392207,
0.1280299251870324,-0.04152447614757562,
0.12807980049875312,-0.006576264211722473,
0.12812967581047383,-0.0081826575054131,
0.1281795511221945,-0.018482209957732483,
0.12822942643391522,-0.0244669171924202,
0.1282793017456359,-0.0019544500931227143,
0.1283291770573566,-0.011647457493519819,
0.12837905236907732,-0.0395341217615225,
0.128428927680798,0.007648118610553851,
0.1284788029925187,-0.024504310836863455,
0.1285286783042394,-0.03017128870339028,
0.1285785536159601,0.009994695484824189,
0.1286284289276808,0.005526403638689828,
0.1286783042394015,-0.016651982610937425,
0.1287281795511222,-0.029103755544757706,
0.12877805486284288,-0.023929508375989908,
0.1288279301745636,-0.0168085131232827,
0.1288778054862843,0.008039504073779222,
0.12892768079800498,0.009268810983083704,
0.1289775561097257,-0.0076141388809030765,
0.12902743142144638,-0.00029494315265247463,
0.12907730673316709,-0.013125255658537666,
0.12912718204488777,-0.02301038695263538,
0.12917705735660848,-0.0323554499184341,
0.1292269326683292,-0.0049263647359377265,
0.12927680798004987,0.003816578970637703,
0.12932668329177058,-0.017262926877777425,
0.12937655860349126,0.008300252316786626,
0.12942643391521197,-0.01519133607503009,
0.12947630922693268,-0.00806110113010116,
0.12952618453865336,-0.0125287475948964,
0.12957605985037407,0.009443528412494403,
0.12962593516209475,-0.0015994850615649618,
0.12967581047381546,-0.009746593009176633,
0.12972568578553617,-0.007599007923308302,
0.12977556109725685,-0.026453957963639457,
0.12982543640897756,-0.041990120301593964,
0.12987531172069824,-0.016324281514150052,
0.12992518703241895,-0.011121227133179241,
0.12997506234413966,-9.670796676297493e-05,
0.13002493765586035,-0.010362698723312518,
0.13007481296758105,-0.01480019362453773,
0.13012468827930174,-0.05181717564946007,
0.13017456359102245,0.00046664791751415205,
0.13022443890274316,-0.004109080067333045,
0.13027431421446384,0.005104158320083424,
0.13032418952618455,-0.006519444108064924,
0.13037406483790523,0.01045371863101672,
0.13042394014962594,-0.014824005938660893,
0.13047381546134662,-0.006987175754171104,
0.13052369077306733,-0.0025800215632130674,
0.13057356608478804,0.0039057329979623866,
0.13062344139650872,0.0004525489903628131,
0.13067331670822943,0.0015729626766216387,
0.1307231920199501,-0.001352293865995998,
0.13077306733167082,-0.008064660255785942,
0.13082294264339153,0.008558746124509823,
0.13087281795511221,-0.029857348490028468,
0.13092269326683292,-0.013958925336478448,
0.1309725685785536,0.019580623862388707,
0.13102244389027431,-0.014157742208715159,
0.13107231920199502,-0.005009799489620241,
0.1311221945137157,0.017214318644859825,
0.13117206982543642,-0.00525610845682401,
0.1312219451371571,-0.015631571379258254,
0.1312718204488778,0.015096549178310046,
0.13132169576059852,-0.006971378738351315,
0.1313715710723192,-0.005696300677130173,
0.1314214463840399,-0.03183246011578924,
0.1314713216957606,-0.0037805455570361695,
0.1315211970074813,0.008633554488914938,
0.13157107231920198,-0.007811549715512414,
0.1316209476309227,-0.020304040996651364,
0.1316708229426434,-0.008023049443590825,
0.13172069825436408,-0.00977397544365497,
0.1317705735660848,-0.004077583433391381,
0.13182044887780547,-0.007761770393733018,
0.13187032418952618,0.02524867965229785,
0.1319201995012469,0.005095298887308868,
0.13197007481296757,-0.025260858265614205,
0.13201995012468828,0.002199307333688202,
0.13206982543640897,0.0008142814326826842,
0.13211970074812968,0.019619472048252734,
0.13216957605985039,-0.0003470734705678649,
0.13221945137157107,-0.00048529205727841206,
0.13226932668329178,0.030525330010365573,
0.13231920199501246,-0.01315554773337326,
0.13236907730673317,0.015140041650849414,
0.13241895261845388,0.004432844386416966,
0.13246882793017456,-0.0037370931714357306,
0.13251870324189527,-0.005643166479144194,
0.13256857855361595,0.02475804071323972,
0.13261845386533666,0.011667914274737349,
0.13266832917705737,0.014011885465442327,
0.13271820448877805,0.01864980222467874,
0.13276807980049876,0.010740935817389396,
0.13281795511221944,-0.009992235120253767,
0.13286783042394015,-0.01734194230625128,
0.13291770573566083,0.029640562185638528,
0.13296758104738154,0.009979071584035583,
0.13301745635910225,0.008361489731047778,
0.13306733167082294,0.03455558508719114,
0.13311720698254365,-0.008163519633560068,
0.13316708229426433,-0.029734944663353885,
0.13321695760598504,-0.018740067493851847,
0.13326683291770575,0.0007861578747715287,
0.13331670822942643,0.010823778795241027,
0.13336658354114714,0.03025763299888563,
0.13341645885286782,0.02234818525412813,
0.13346633416458853,-0.028409571701909567,
0.13351620947630924,0.052344332807137364,
0.13356608478802992,0.0044928269929350815,
0.13361596009975063,0.029384641722001725,
0.1336658354114713,0.019474246462963613,
0.13371571072319202,0.011680436853130036,
0.13376558603491273,0.008360242069302455,
0.1338154613466334,-0.004454201671358557,
0.13386533665835412,-0.006771925766612664,
0.1339152119700748,0.010366596748564699,
0.13396508728179551,-0.0076493360862737655,
0.1340149625935162,0.038204898410874905,
0.1340648379052369,0.015252214790351557,
0.13411471321695762,0.04549953385891051,
0.1341645885286783,0.007884416595502708,
0.134214463840399,0.005869593748980547,
0.1342643391521197,0.023898013593287564,
0.1343142144638404,0.011452121952196114,
0.1343640897755611,0.030242647553050745,
0.1344139650872818,0.037523315763799206,
0.1344638403990025,0.032739528375098775,
0.13451371571072318,0.037019246026161697,
0.1345635910224439,0.029115843594565864,
0.1346134663341646,0.008913712024446583,
0.13466334164588528,0.03454328539567943,
0.134713216957606,0.028202996477208656,
0.13476309226932667,0.008765033994431423,
0.13481296758104738,0.010957267706706526,
0.1348628428927681,0.017231773709927775,
0.13491271820448877,0.03556700585364264,
0.13496259351620948,0.020932459278628367,
0.13501246882793017,0.019375257631220597,
0.13506234413965088,0.017351891359185006,
0.13511221945137158,0.014715738999262321,
0.13516209476309227,0.00283151471991535,
0.13521197007481298,0.03249052636775874,
0.13526184538653366,0.0055702693419149105,
0.13531172069825437,0.022112445513581377,
0.13536159600997505,0.015229213777122812,
0.13541147132169576,0.03311824440242488,
0.13546134663341647,0.01675143380168556,
0.13551122194513715,0.007043319187773615,
0.13556109725685786,0.03722908471684062,
0.13561097256857854,0.010249066185027318,
0.13566084788029925,0.025205539095105985,
0.13571072319201996,0.04223561449167765,
0.13576059850374064,0.012416632476561329,
0.13581047381546135,0.022052783388920052,
0.13586034912718203,0.017371305711850707,
0.13591022443890274,0.026040915690258588,
0.13596009975062345,0.023268914594689258,
0.13600997506234414,0.038325148336755974,
0.13605985037406484,0.015428090179645982,
0.13610972568578553,0.04406779818169991,
0.13615960099750624,0.04923751394792557,
0.13620947630922695,0.029224522074731543,
0.13625935162094763,0.013729264534899073,
0.13630922693266834,0.025166101671128583,
0.13635910224438902,0.02410701428499964,
0.13640897755610973,0.05275928301503034,
0.1364588528678304,0.0248158861135544,
0.13650872817955112,0.047291077375842185,
0.13655860349127183,0.0284025522531444,
0.1366084788029925,0.027595847150122022,
0.13665835411471322,0.021765906284692493,
0.1367082294264339,0.02333482813855963,
0.1367581047381546,0.04076209875312547,
0.13680798004987532,0.016618264877187684,
0.136857855361596,0.04213002882722001,
0.1369077306733167,0.04949942684471467,
0.1369576059850374,0.019156978436324735,
0.1370074812967581,0.046297570212313385,
0.13705735660847881,0.04404079455691391,
0.1371072319201995,0.041490183748953545,
0.1371571072319202,0.01904139728970915,
0.1372069825436409,0.026917030752009546,
0.1372568578553616,0.027017872418460993,
0.1373067331670823,0.060306289363795784,
0.137356608478803,0.028907297343483233,
0.1374064837905237,0.02641639647269322,
0.13745635910224438,0.01204955401321451,
0.1375062344139651,0.014788933272878753,
0.1375561097256858,0.0191980290335148,
0.13760598503740648,0.034969087704586566,
0.1376558603491272,0.008272166391957225,
0.13770573566084787,0.019724162106463793,
0.13775561097256858,0.0018720385115116103,
0.13780548628428926,0.050885126832881544,
0.13785536159600997,0.03151758973281835,
0.13790523690773068,0.03463773058188651,
0.13795511221945136,0.013687002909590459,
0.13800498753117207,0.04750659849370624,
0.13805486284289276,0.05267865627262505,
0.13810473815461347,0.031177244424970642,
0.13815461346633418,0.02302238640344119,
0.13820448877805486,0.038523767723760476,
0.13825436408977557,0.041288050738281096,
0.13830423940149625,0.04334221792302041,
0.13835411471321696,0.04026175681850175,
0.13840399002493767,0.04477457213153754,
0.13845386533665835,0.019931526034595977,
0.13850374064837906,0.04400114955123164,
0.13855361596009974,0.0235120812761059,
0.13860349127182045,-0.007338188680615702,
0.13865336658354116,0.02335274347408877,
0.13870324189526184,0.021970799795549757,
0.13875311720698255,0.03387185747476629,
0.13880299251870323,0.04279823047795132,
0.13885286783042394,0.03308772999367464,
0.13890274314214462,0.0602874249984585,
0.13895261845386533,0.022239801925022135,
0.13900249376558604,0.00025221368097805286,
0.13905236907730673,0.03418557114847828,
0.13910224438902744,0.0217858129796612,
0.13915211970074812,0.013611445155625932,
0.13920199501246883,0.025367050673137336,
0.13925187032418954,0.018007424693865695,
0.13930174563591022,0.019410573401517778,
0.13935162094763093,0.05243901711156482,
0.1394014962593516,0.031380668177508855,
0.13945137157107232,0.025445027869483727,
0.13950124688279303,0.05329463579669498,
0.1395511221945137,0.024798595661925927,
0.13960099750623442,0.01067451750627883,
0.1396508728179551,0.00912069727374373,
0.1397007481296758,0.027704147387003098,
0.13975062344139652,0.0041523139551548766,
0.1398004987531172,0.01107671762018234,
0.1398503740648379,0.02281773167092245,
0.1399002493765586,0.04538421509716148,
0.1399501246882793,0.047646476603483985,
0.14,0.03802375821266353,
0.1400498753117207,0.027926336056767333,
0.1400997506234414,0.01927950527083161,
0.1401496259351621,0.03350780764842976,
0.1401995012468828,0.05425452832581923,
0.14024937655860348,0.029484714477984668,
0.1402992518703242,0.020267722314517636,
0.1403491271820449,0.02466290398987175,
0.14039900249376558,0.022853585865674413,
0.1404488778054863,0.03490742579083625,
0.14049875311720697,0.015039015587356147,
0.14054862842892768,0.03240100746559288,
0.1405985037406484,0.03464095588347731,
0.14064837905236907,0.031085655735239352,
0.14069825436408978,0.009433938854928884,
0.14074812967581046,0.02328437747838398,
0.14079800498753117,0.017419724229771068,
0.14084788029925188,0.024005424169187863,
0.14089775561097256,0.014902034776943806,
0.14094763092269327,0.043335753519280734,
0.14099750623441396,0.02726988967652692,
0.14104738154613466,-2.797357249703994e-05,
0.14109725685785537,0.004072489550288189,
0.14114713216957606,0.04186043429203001,
0.14119700748129677,0.02085556397422116,
0.14124688279301745,0.017473860673197297,
0.14129675810473816,0.04001037163200833,
0.14134663341645887,0.020567654997298943,
