time,amplitude,label
0.0,0.010758198897302302,
4.987531172069826e-05,0.012981911767998395,
9.975062344139652e-05,-0.012295733816589272,
0.00014962593516209475,-0.013524364621040038,
0.00019950124688279303,0.008056137507407014,
0.00024937655860349125,-0.012434023409530233,
0.0002992518703241895,0.00341860269365602,
0.00034912718204488776,-0.006099424955311961,
0.00039900249376558606,-0.017023427155339166,
0.0004488778054862843,0.005628620752478199,
0.0004987531172069825,0.0072089829868442175,
0.0005486284289276808,-0.02504989012017603,
0.000598503740648379,-0.016992693219732083,
0.0006483790523690773,0.020794099411377092,
0.0006982543640897755,-0.022128533722556493,
0.0007481296758104738,0.006592495181787411,
0.0007980049875311721,-0.022993008077379192,
0.0008478802992518703,-0.021785297048399186,
0.0008977556109725686,-0.0020787428814407023,
0.0009476309226932668,-0.0076624015502181324,
0.000997506234413965,-0.00970638492160028,
0.0010473815461346633,-0.0018554593193831886,
0.0010972568578553616,-0.0287557822843567,
0.00114713216957606,-0.001340833631241392,
0.001197007481296758,-0.015464186830940646,
0.0012468827930174563,-0.003966438041285122,
0.0012967581047381546,0.0025413933785554156,
0.001346633416458853,0.0021025134319872414,
0.001396508728179551,-0.002128734391177935,
0.0014463840399002493,-0.011984709373783712,
0.0014962593516209476,-0.024727491787370565,
0.001546134663341646,-0.030922202529049776,
0.0015960099750623442,-0.04956732341603747,
0.0016458852867830423,-0.024096933769980945,
0.0016957605985037406,-0.01000668995479202,
0.001745635910224439,0.01952921842330302,
0.0017955112219451373,0.004626586454793363,
0.0018453865336658353,-0.0016260325208291744,
0.0018952618453865336,-0.014146720698610452,
0.001945137157107232,-0.0075019581783916925,
0.00199501246882793,-0.035017081197583406,
0.0020448877805486283,-0.0100768863094272,
0.0020947630922693266,-0.01697144459503457,
0.002144638403990025,-0.02197491596205444,
0.0021945137157107233,-0.01662406777856787,
0.0022443890274314216,-0.00699197704697331,
0.00229426433915212,-0.00881445183083008,
0.0023441396508728177,-0.024123072125782553,
0.002394014962593516,0.0018383016344259342,
0.0024438902743142144,-0.028878273872031603,
0.0024937655860349127,-0.009546221738976615,
0.002543640897755611,-0.033337822430594334,
0.0025935162094763093,-0.004073366638556572,
0.0026433915211970076,-0.010395597526557325,
0.002693266832917706,0.012949225440527408,
0.002743142144638404,-0.019927948006616666,
0.002793017456359102,-0.036477101813206146,
0.0028428927680798004,0.014957021402152031,
0.0028927680798004987,0.005566586895671195,
0.002942643391521197,-0.02048191792712681,
0.0029925187032418953,-0.013983212490372543,
0.0030423940149625936,-0.021032459698799466,
0.003092269326683292,-0.039061389997121665,
0.00314214463840399,0.0012843951649051388,
0.0031920199501246885,-0.007705684549675967,
0.0032418952618453864,0.012140626736074283,
0.0032917705735660847,-0.03755142893145172,
0.003341645885286783,-0.03265933973378392,
0.0033915211970074813,-0.007753439806660989,
0.0034413965087281796,0.006743108000363315,
0.003491271820448878,-0.04738988861672846,
0.003541147132169576,-0.028305454817497154,
0.0035910224438902745,-0.019283726383805766,
0.0036408977556109724,-0.015486910856444273,
0.0036907730673316707,-0.012934399127918958,
0.003740648379052369,-0.022227892414309558,
0.0037905236907730673,-0.029037899234527216,
0.0038403990024937656,-0.008833900709763271,
0.003890274314214464,-0.057594197414084315,
0.003940149625935162,-0.023112497609766823,
0.00399002493765586,-0.01259129428494602,
0.004039900249376558,-0.004735010723047814,
0.004089775561097257,-0.025581226093853545,
0.004139650872817955,-0.0393853972552113,
0.004189526184538653,-0.03536768037447831,
0.004239401496259352,-0.030330332554981715,
0.00428927680798005,-0.03039627820017813,
0.004339152119700748,-0.01239652932054814,
0.0043890274314214465,-0.008825576298753551,
0.004438902743142145,0.011321036531468254,
0.004488778054862843,-0.03376049496757986,
0.004538653366583541,-0.013254202292037297,
0.00458852867830424,-0.0024138963499982444,
0.004638403990024938,-0.010937742685268965,
0.0046882793017456355,-0.007502945900308292,
0.004738154613466334,-0.016043846691034085,
0.004788029925187032,-0.05404305438116773,
0.00483790523690773,-0.03870531454692368,
0.004887780548628429,-0.01943415648331613,
0.004937655860349127,-0.037135240170902695,
0.004987531172069825,-0.020064269800154303,
0.005037406483790524,0.013564847614471416,
0.005087281795511222,-0.011506470816888159,
0.00513715710723192,-0.040997905327340205,
0.0051870324189526185,-0.029762339876855705,
0.005236907730673317,-0.051454107092687176,
0.005286783042394015,-0.015911219865078395,
0.0053366583541147134,-0.02059110861645396,
0.005386533665835412,-0.014242301898976885,
0.00543640897755611,-0.027177271691077382,
0.005486284289276808,-0.014328947571313356,
0.005536159600997507,-0.0010692459599007977,
0.005586034912718204,-0.028700609111917314,
0.005635910224438902,-0.04898003316044483,
0.005685785536159601,-0.01226817416473789,
0.005735660847880299,-0.01238613887435547,
0.005785536159600997,-0.010359136988807765,
0.005835411471321696,-0.05002647582342881,
0.005885286783042394,-0.036930173496587074,
0.005935162094763092,-0.02033900199319986,
0.0059850374064837905,-0.052803681686763526,
0.006034912718204489,-0.03508801637691596,
0.006084788029925187,-0.023262525225402085,
0.0061346633416458855,-0.06384533589557356,
0.006184538653366584,0.002064466839080032,
0.006234413965087282,-0.01912001221660531,
0.00628428927680798,-0.023258597732040497,
0.006334164588528679,-0.013417863143933253,
0.006384039900249377,-0.006327883499975926,
0.006433915211970074,-0.024743012181920265,
0.006483790523690773,0.0007492009101626798,
0.006533665835411471,-0.032420661074424845,
0.006583541147132169,-0.03686148065395825,
0.006633416458852868,-0.029418508067956296,
0.006683291770573566,0.023344678808526472,
0.006733167082294264,-0.03354558753122288,
0.0067830423940149626,-0.0060244637992042365,
0.006832917705735661,-0.006309402565072602,
0.006882793017456359,0.000810487061925021,
0.0069326683291770575,0.0005005534104207555,
0.006982543640897756,-0.012637108825930284,
0.007032418952618454,-0.015264348171069841,
0.007082294264339152,-0.024329114730983425,
0.007132169576059851,-0.02798617707816291,
0.007182044887780549,-0.005916191495024007,
0.007231920199501247,-0.0169716153629218,
0.007281795511221945,0.010947960355613705,
0.007331670822942643,-0.008539683212890462,
0.007381546134663341,-0.02963529567734282,
0.00743142144638404,0.008459357975633975,
0.007481296758104738,-0.016556180698571555,
0.007531172069825436,-0.01425126610487288,
0.007581047381546135,-0.015576504425517761,
0.007630922693266833,-0.0007364771024665293,
0.007680798004987531,0.00088250233636996,
0.0077306733167082295,0.015164577412303443,
0.007780548628428928,-0.012943212844409776,
0.007830423940149626,-0.026516513057860604,
0.007880299251870324,-0.043446814298884695,
0.007930174563591023,0.012425133306413596,
0.00798004987531172,0.014103933818970764,
0.00802992518703242,0.017864322538258766,
0.008079800498753117,-0.0388893804703341,
0.008129675810473816,0.001382920063533341,
0.008179551122194513,0.00654308421033538,
0.008229426433915213,-0.01836989362472746,
0.00827930174563591,-0.0006592292313017008,
0.00832917705735661,-0.014081249470296023,
0.008379052369077307,-0.0038537710788614033,
0.008428927680798006,-0.04000735432782225,
0.008478802992518703,-0.024420954831274336,
0.0085286783042394,0.008553647662567875,
0.0085785536159601,0.007058744734043249,
0.008628428927680797,0.03691120607500271,
0.008678304239401496,-0.0075499816895081015,
0.008728179551122194,-0.023811678871926784,
0.008778054862842893,0.00956497366596665,
0.00882793017456359,-0.002070881786666207,
0.00887780548628429,-0.006502919542189079,
0.008927680798004987,-0.02135575632775588,
0.008977556109725686,0.0009360241580077758,
0.009027431421446384,0.0023523663062671877,
0.009077306733167083,-0.010606487701979186,
0.00912718204488778,-0.007153652007750224,
0.00917705735660848,0.01017363693544198,
0.009226932668329177,0.038494483322720374,
0.009276807980049876,-0.009580208662328485,
0.009326683291770574,0.01846251335456859,
0.009376558603491271,-0.012923941904591158,
0.00942643391521197,-0.00610206984664922,
0.009476309226932668,0.00015796845681627695,
0.009526184538653367,0.009899984665858962,
0.009576059850374064,0.005916560853548849,
0.009625935162094763,0.01271491835114166,
0.00967581047381546,0.005681523937601561,
0.00972568578553616,-0.009844741938969085,
0.009775561097256857,-0.007771177043974321,
0.009825436408977557,0.010995059859459632,
0.009875311720698254,-0.0060365318069478605,
0.009925187032418953,0.010143433819463085,
0.00997506234413965,-0.017105443346407102,
0.01002493765586035,0.0005676054158329192,
0.010074812967581047,0.007156138999790791,
0.010124688279301746,0.005947037751431788,
0.010174563591022444,0.007979665386867145,
0.010224438902743141,0.020604105614786605,
0.01027431421446384,-0.001075001221720552,
0.010324189526184538,-0.006075664261436486,
0.010374064837905237,0.016390746222386045,
0.010423940149625935,0.012735195784851303,
0.010473815461346634,0.025800650139561097,
0.010523690773067331,0.00890650721171972,
0.01057356608478803,0.0450650682997394,
0.010623441396508728,0.008627596757919721,
0.010673316708229427,0.029500061507304796,
0.010723192019950124,0.007799029169832814,
0.010773067331670824,-0.018847737065163746,
0.010822942643391521,-0.0013093168292035804,
0.01087281795511222,0.023947786199797635,
0.010922693266832918,0.013688670450440144,
0.010972568578553617,0.0097845178894576,
0.011022443890274314,-0.015625113158538435,
0.011072319201995013,0.015544923791904744,
0.01112219451371571,0.026023522329950574,
0.011172069825436408,0.032577745742032274,
0.011221945137157107,0.00566280592160988,
0.011271820448877805,0.021231434416956962,
0.011321695760598504,0.023573365386396233,
0.011371571072319201,0.005196538566254717,
0.0114214463840399,0.028938519642573643,
0.011471321695760598,-0.007486138364518176,
0.011521197007481297,-0.0012488855438278178,
0.011571072319201995,0.019651556517627254,
0.011620947630922694,0.008813740722771546,
0.011670822942643391,-0.0052171991092806996,
0.01172069825436409,-0.0029573165125959984,
0.011770573566084788,0.011044470622145607,
0.011820448877805487,0.031103490795663477,
0.011870324189526184,0.04509550663382497,
0.011920199501246884,0.0215308963523373,
0.011970074812967581,0.023954197643329626,
0.012019950124688279,0.0041729386646025875,
0.012069825436408978,0.03732061403584172,
0.012119700748129675,0.01399850787354997,
0.012169576059850374,0.022189429900199946,
0.012219451371571072,-0.019161161596111035,
0.012269326683291771,0.01789592169700195,
0.012319201995012468,0.004161181604930642,
0.012369077306733168,0.013974071551711126,
0.012418952618453865,0.002603170888219269,
0.012468827930174564,0.03435045744024105,
0.012518703241895262,0.003360261205832332,
0.01256857855361596,0.023760999677120382,
0.012618453865336658,0.018337172430478263,
0.012668329177057357,0.008644501448212641,
0.012718204488778055,-0.018410764728352805,
0.012768079800498754,0.026378295184390773,
0.012817955112219451,0.03288039371195105,
0.012867830423940149,-0.009344815686751228,
0.012917705735660848,0.034560270599378856,
0.012967581047381545,-0.0035419725961431565,
0.013017456359102245,-0.00403979422601038,
0.013067331670822942,0.048668084852264815,
0.013117206982543641,0.021663021395308353,
0.013167082294264339,0.02281380180837883,
0.013216957605985038,0.02347261429585428,
0.013266832917705735,0.02005694408185855,
0.013316708229426434,0.0019992863711451,
0.013366583541147132,0.04965908633880621,
0.013416458852867831,0.030507953244071545,
0.013466334164588529,0.0009478164147968884,
0.013516209476309228,0.013364398113600563,
0.013566084788029925,0.010270194604427876,
0.013615960099750624,0.0068625747133360376,
0.013665835411471322,0.0070038484707630015,
0.01371571072319202,0.023414007262124406,
0.013765586034912718,0.011916597115114804,
0.013815461346633416,0.03272606942435887,
0.013865336658354115,0.034008223313004966,
0.013915211970074812,0.015552113510414214,
0.013965087281795512,0.023635525229528432,
0.014014962593516209,0.04433819019051256,
0.014064837905236908,0.024727929460056603,
0.014114713216957606,0.015969040389804273,
0.014164588528678305,0.012872927186525947,
0.014214463840399002,0.025710552422574286,
0.014264339152119701,0.02192149981034278,
0.014314214463840399,0.03627191456732995,
0.014364089775561098,0.01661476340193218,
0.014413965087281795,0.010101936348943862,
0.014463840399002495,0.01730641573034402,
0.014513715710723192,-0.014640744865735175,
0.01456359102244389,0.01927881329613063,
0.014613466334164589,0.02746635966681634,
0.014663341645885286,0.03226941767129383,
0.014713216957605985,0.029189899170589263,
0.014763092269326683,0.0370244388845548,
0.014812967581047382,0.0399116949133779,
0.01486284289276808,0.004408911464461263,
0.014912718204488778,0.027595463151978236,
0.014962593516209476,0.03800965165233282,
0.015012468827930175,0.03212249885381355,
0.015062344139650873,-0.004448469920793806,
0.015112219451371572,0.017590801364470537,
0.01516209476309227,0.024809336651463055,
0.015211970074812968,0.03641058634100945,
0.015261845386533666,-0.004989418030317848,
0.015311720698254365,-0.0029269710863910753,
0.015361596009975062,0.015494353756697974,
0.01541147132169576,0.0214156856692184,
0.015461346633416459,0.028233336001638416,
0.015511221945137156,0.041065801796730944,
0.015561097256857856,0.014621617156148112,
0.015610972568578553,0.016056805815206653,
0.015660847880299252,0.0029269789034593006,
0.01571072319201995,-0.0015239011633458206,
0.015760598503740647,0.008133780275836871,
0.015810473815461346,0.003514959188549962,
0.015860349127182045,0.03595898563115007,
0.015910224438902745,0.02116901655913813,
0.01596009975062344,0.04146094867478894,
0.01600997506234414,0.03967149671884492,
0.01605985037406484,0.07047285307356964,
0.016109725685785538,0.022528160461904857,
0.016159600997506234,0.02902088795220238,
0.016209476309226933,0.025709346543019103,
0.016259351620947632,0.025231107856584348,
0.016309226932668328,0.022106774972951895,
0.016359102244389027,-0.007512703776703173,
0.016408977556109726,0.0365539831238151,
0.016458852867830425,0.020334209563501102,
0.01650872817955112,0.025610934694521286,
0.01655860349127182,0.013353459847489056,
0.01660847880299252,0.019356944399491757,
0.01665835411471322,0.015791991322728773,
0.016708229426433914,0.02383170939172185,
0.016758104738154613,0.024666915035235683,
0.016807980049875312,0.02850642595131241,
0.01685785536159601,0.013674539585339405,
0.016907730673316707,0.01634879811026105,
0.016957605985037406,0.0004985161702455582,
0.017007481296758106,-0.008517115170807832,
0.0170573566084788,0.005436530626138435,
0.0171072319201995,0.031583463075078255,
0.0171571072319202,0.016392621914250175,
0.0172069825436409,-0.008271196717148203,
0.017256857855361595,0.00799804703445176,
0.017306733167082294,0.060876314778091856,
0.017356608478802993,0.039492227153549386,
0.017406483790523692,0.02046617579804338,
0.017456359102244388,0.0374378060721999,
0.017506234413965087,0.0158392302643748,
0.017556109725685786,0.03304454232024796,
0.017605985037406485,0.017981240865315738,
0.01765586034912718,0.0069180453303457805,
0.01770573566084788,0.01945741600766778,
0.01775561097256858,-0.0048092547533614294,
0.01780548628428928,0.0176852421208766,
0.017855361596009974,0.022885613755945534,
0.017905236907730673,0.03696271194240125,
0.017955112219451373,0.007711632843171937,
0.018004987531172068,0.01490491792995768,
0.018054862842892767,0.007280644978021946,
0.018104738154613467,0.016497518476317072,
0.018154613466334166,0.01807054225359009,
0.01820448877805486,0.02366446459924798,
0.01825436408977556,0.009239871433419897,
0.01830423940149626,-0.002147698753822291,
0.01835411471321696,0.011183427854632477,
0.018403990024937655,0.030261182469797192,
0.018453865336658354,0.03751320242765321,
0.018503740648379053,-0.0014616729548934983,
0.018553615960099752,0.03542815197994144,
0.018603491271820448,-0.016723071182055897,
0.018653366583541147,0.004784603036494528,
0.018703241895261846,-0.007971259735279826,
0.018753117206982542,3.8530485569130205e-05,
0.01880299251870324,0.02437697304984674,
0.01885286783042394,-0.015039372746998975,
0.01890274314214464,-0.009924182978092683,
0.018952618453865335,0.017765282333646822,
0.019002493765586034,0.017043723428125275,
0.019052369077306733,0.0025651916193507552,
0.019102244389027433,0.009910773226202943,
0.01915211970074813,0.018080556901851366,
0.019201995012468828,-0.013140634962908496,
0.019251870324189527,0.0230466546129515,
0.019301745635910226,0.021025451196683972,
0.01935162094763092,-0.011201192312992513,
0.01940149625935162,0.030385783383429517,
0.01945137157107232,0.014898688184558515,
0.01950124688279302,0.011639591271045878,
0.019551122194513715,-0.0011190711842770716,
0.019600997506234414,0.009666898439087173,
0.019650872817955113,0.02473637696379226,
0.01970074812967581,-0.004101540745499954,
0.019750623441396508,0.0197749824715383,
0.019800498753117207,0.00539361522476358,
0.019850374064837906,-0.005282978484693366,
0.019900249376558602,0.003314050519508633,
0.0199501246882793,0.0027580543722735503,
0.02,0.0021942569715920745,
0.0200498753117207,0.011670407186740707,
0.020099750623441395,-0.01150472311942535,
0.020149625935162094,-0.01927584772234928,
0.020199501246882794,0.005242123159931374,
0.020249376558603493,0.002005774233581214,
0.02029925187032419,-0.012847097928940412,
0.020349127182044888,0.0010491322527573597,
0.020399002493765587,0.018522168116189782,
0.020448877805486283,-0.012269244205384333,
0.02049875311720698,0.005587324795071243,
0.02054862842892768,-0.00012770261994968744,
0.02059850374064838,-0.013022997369251478,
0.020648379052369076,-0.0002825228584694699,
0.020698254364089775,-0.01566655592268681,
0.020748129675810474,0.006815833983629581,
0.020798004987531173,-0.01418406207850992,
0.02084788029925187,0.0033801857153637213,
0.020897755610972568,0.0252723365767508,
0.020947630922693267,0.021100088813088683,
0.020997506234413967,-0.02485735626380904,
0.021047381546134662,-0.03398505056019309,
0.02109725685785536,0.004298326245764744,
0.02114713216957606,-0.010720712348753526,
0.02119700748129676,-0.013906851976929556,
0.021246882793017455,-0.007053955137282884,
0.021296758104738155,0.0005121322798066806,
0.021346633416458854,-0.010328514072510975,
0.02139650872817955,-0.023485824004731603,
0.02144638403990025,-0.025820872797283654,
0.021496259351620948,-0.001208687590978105,
0.021546134663341647,-0.037328878827479844,
0.021596009975062343,-0.04924278237356822,
0.021645885286783042,-0.03226757239875261,
0.02169576059850374,-0.01379706187519461,
0.02174563591022444,0.012237273751902634,
0.021795511221945136,0.008922632486972221,
0.021845386533665835,-0.00601928704195302,
0.021895261845386534,-0.010435279507240257,
0.021945137157107233,0.0059119707071824835,
0.02199501246882793,-0.0007026400697340476,
0.02204488778054863,-0.03080915125401764,
0.022094763092269327,-0.025544561395324544,
0.022144638403990027,-0.009142315154454347,
0.022194513715710722,-0.024491304967002345,
0.02224438902743142,0.0028621677045160537,
0.02229426433915212,-0.029164673889704423,
0.022344139650872816,-0.036281007069175246,
0.022394014962593516,-0.015822986166298687,
0.022443890274314215,0.01827566238191538,
0.022493765586034914,-0.02784346130932171,
0.02254364089775561,-0.007840507065060487,
0.02259351620947631,-0.006942790231445004,
0.022643391521197008,-0.007331230152547375,
0.022693266832917707,-0.013765444803163546,
0.022743142144638403,0.004338967486540581,
0.022793017456359102,-0.0185494279522929,
0.0228428927680798,-0.0076686504872440515,
0.0228927680798005,-0.023360013052674516,
0.022942643391521196,-0.01887090696004247,
0.022992518703241895,-0.01938564876000729,
0.023042394014962594,-0.031129310758144697,
0.02309226932668329,-0.011762975201362023,
0.02314214463840399,-0.030031780142832698,
0.02319201995012469,-0.04787454081561592,
0.023241895261845388,-0.048213866814775824,
0.023291770573566083,-0.00803761575596314,
0.023341645885286783,-0.017170777010678817,
0.02339152119700748,-0.028903200587346432,
0.02344139650872818,0.014291959864126357,
0.023491271820448877,-0.020029385257341104,
0.023541147132169576,-0.017977007169387185,
0.023591022443890275,-0.031499759226224035,
0.023640897755610974,-0.022814657885098448,
0.02369077306733167,-0.003737703810223531,
0.02374064837905237,-0.011278161781688969,
0.023790523690773068,-0.02704363113138558,
0.023840399002493767,-0.0028381857902329607,
0.023890274314214463,-0.020183313870948502,
0.023940149625935162,-0.04049778164497049,
0.02399002493765586,-0.04733059835939736,
0.024039900249376557,-0.013559905548733623,
0.024089775561097256,-0.02092628585139868,
0.024139650872817955,-0.026621282736546757,
0.024189526184538655,-0.0019744762272427205,
0.02423940149625935,-0.02367630049249755,
0.02428927680798005,-0.04090419944901373,
0.02433915211970075,-0.001506279069361103,
0.024389027431421448,-0.020000653098693675,
0.024438902743142144,0.005322058518705573,
0.024488778054862843,-0.0040905002997165645,
0.024538653366583542,-0.029264047786894884,
0.02458852867830424,-0.019347360877043394,
0.024638403990024937,-0.01323097892682392,
0.024688279301745636,0.0013012025429190374,
0.024738154613466335,0.01010758510579532,
0.02478802992518703,-0.04831171248589326,
0.02483790523690773,-0.031462744387901566,
0.02488778054862843,-0.02027577670667314,
0.02493765586034913,-0.008659992992508202,
0.024987531172069824,-0.013434812964268749,
0.025037406483790523,-0.009911180047487724,
0.025087281795511222,-0.005408042631340858,
0.02513715710723192,-0.007668870308918094,
0.025187032418952617,-0.02200263600868918,
0.025236907730673316,-0.0058507233925028015,
0.025286783042394016,-0.01567776652080165,
0.025336658354114715,-0.013998117241003869,
0.02538653366583541,-0.016851627096526867,
0.02543640897755611,-0.003587441134184067,
0.02548628428927681,-0.03268609587639561,
0.025536159600997508,-0.016393468708937636,
0.025586034912718204,0.000505208781350807,
0.025635910224438903,-0.01011421615465585,
0.025685785536159602,-0.004821455720195452,
0.025735660847880298,-0.007716373436487357,
0.025785536159600997,-0.025044723377450468,
0.025835411471321696,-0.017885222035499967,
0.025885286783042395,-0.018348176235296748,
0.02593516209476309,-0.003887397623077115,
0.02598503740648379,-0.014535833218493036,
0.02603491271820449,-0.011443927463165337,
0.02608478802992519,-0.019882086689061128,
0.026134663341645884,-0.014639904658429272,
0.026184538653366583,-0.028774535007933255,
0.026234413965087282,-0.015699969530490805,
0.02628428927680798,-0.034827699984970234,
0.026334164588528677,-0.0016235362826013677,
0.026384039900249377,-0.01396022721011419,
0.026433915211970076,-0.008604334198910282,
0.02648379052369077,-0.0217401188175719,
0.02653366583541147,-0.007907050762794252,
0.02658354114713217,-0.0042635899950931675,
0.02663341645885287,-0.026231477468021222,
0.026683291770573565,-0.0366983093881485,
0.026733167082294264,-0.009308821493396836,
0.026783042394014963,-0.022187791475550663,
0.026832917705735662,-0.000657189874333098,
0.026882793017456358,-0.011490277871485533,
0.026932668329177057,-0.017579820284227114,
0.026982543640897756,-0.010335943416183123,
0.027032418952618455,-0.014789095719445085,
0.02708229426433915,-0.016055148881099154,
0.02713216957605985,-0.04276637416737681,
0.02718204488778055,0.010356536581049612,
0.02723192019950125,-0.025277539497892194,
0.027281795511221944,-0.016084064063188953,
0.027331670822942643,-0.022061302600471275,
0.027381546134663343,-0.026296557955253323,
0.02743142144638404,-0.016940184069885535,
0.027481296758104738,0.013035129537254069,
0.027531172069825437,-0.013048716183497655,
0.027581047381546136,-0.034184910328938584,
0.02763092269326683,-0.03943074220227024,
0.02768079800498753,-0.016213245857918984,
0.02773067331670823,-0.01547565095298922,
0.02778054862842893,-0.031563767402315264,
0.027830423940149625,-0.047387324049915955,
0.027880299251870324,-0.01923337481682958,
0.027930174563591023,-0.01249837664323045,
0.027980049875311722,-0.004659797425844596,
0.028029925187032418,-0.006736953559685463,
0.028079800498753117,-0.03013223596410476,
0.028129675810473816,-0.005212308882562546,
0.028179551122194512,-0.0040128927048585115,
0.02822942643391521,-0.006626252027630554,
0.02827930174563591,-0.003943645145411559,
0.02832917705735661,-0.007181594529524898,
0.028379052369077305,-0.007511544684945688,
0.028428927680798004,-0.030608195932594864,
0.028478802992518704,-0.025823180442271967,
0.028528678304239403,-0.01831908587325924,
0.0285785536159601,0.006215818745138253,
0.028628428927680798,0.003959533464997609,
0.028678304239401497,0.0001824111205342904,
0.028728179551122196,-0.015325783347454146,
0.02877805486284289,-0.01740018227642181,
0.02882793017456359,0.009508540216763756,
0.02887780548628429,0.02445991269704173,
0.02892768079800499,-0.003812597833090208,
0.028977556109725685,0.0012025447955762662,
0.029027431421446384,-0.011013418785125365,
0.029077306733167083,-0.020894779581619113,
0.02912718204488778,-0.03768991408571649,
0.029177057356608478,0.021462509396887642,
0.029226932668329177,0.0073348684252659176,
0.029276807980049877,0.008292633945324566,
0.029326683291770572,0.007361695488187727,
0.02937655860349127,0.006758448920844672,
0.02942643391521197,-0.0024186652317735643,
0.02947630922693267,-0.009738006287416818,
0.029526184538653365,0.014406173691121325,
0.029576059850374065,0.011484748219808893,
0.029625935162094764,0.01028753500081407,
0.029675810473815463,0.015745555035777223,
0.02972568578553616,-0.007675320852751671,
0.029775561097256858,-0.0003951059472905975,
0.029825436408977557,0.0009950914559076626,
0.029875311720698253,-0.00701038074518499,
0.029925187032418952,-0.001946425796966612,
0.02997506234413965,-0.023221154166570734,
0.03002493765586035,-0.0069279297347103145,
0.030074812967581046,-0.02534750538804618,
0.030124688279301745,-0.020044516439807085,
0.030174563591022444,0.001614441922499761,
0.030224438902743143,0.013935411975554035,
0.03027431421446384,-0.0002784354842585166,
0.03032418952618454,0.009424264966366343,
0.030374064837905237,0.01650765877758971,
0.030423940149625937,-0.013195428988189538,
0.030473815461346632,0.027875707494734385,
0.03052369077306733,0.0011954332829068222,
0.03057356608478803,0.016695461560024848,
0.03062344139650873,0.004406062615416541,
0.030673316708229426,0.005935911782253458,
0.030723192019950125,0.019046044975402993,
0.030773067331670824,0.006213811678606529,
0.03082294264339152,-0.019144037930298757,
0.03087281795511222,0.004002074554934101,
0.030922693266832918,0.012260940449360524,
0.030972568578553617,0.017611663101218207,
0.031022443890274313,0.0033061226785950993,
0.031072319201995012,0.008570518302603367,
0.03112219451371571,0.023515498259165046,
0.03117206982543641,-0.0003677450255620482,
0.031221945137157106,0.00998674289716988,
0.03127182044887781,0.0016092711457961605,
0.031321695760598504,-0.005899548316048286,
0.0313715710723192,0.02656651085030516,
0.0314214463840399,0.006394367024027097,
0.0314713216957606,0.02107217147270224,
0.031521197007481294,0.0037283576199440595,
0.031571072319202,0.035654724860091885,
0.03162094763092269,-0.015691830592733182,
0.03167082294264339,0.013172049389889931,
0.03172069825436409,0.01909927159959006,
0.03177057356608479,-0.017899502271017168,
0.03182044887780549,0.03160344115580403,
0.031870324189526185,0.013343966955306229,
0.03192019950124688,-0.0071737955286501585,
0.03197007481296758,0.006686748742791638,
0.03201995012468828,-0.0016467585866034567,
0.032069825436408975,0.031761818431415484,
0.03211970074812968,0.030774931633583916,
0.03216957605985037,0.017435082711168597,
0.032219451371571076,0.0020065266265647547,
0.03226932668329177,0.018863274919981257,
0.03231920199501247,0.024671561641126646,
0.03236907730673317,0.02249246392332337,
0.032418952618453865,-0.014417739165638113,
0.03246882793017456,0.024035368410384457,
0.032518703241895264,0.027138011371984003,
0.03256857855361596,0.03694452965876702,
0.032618453865336655,0.02449667467169893,
0.03266832917705736,0.008138442060851509,
0.032718204488778053,0.05131999555185798,
0.032768079800498756,0.03185256089279138,
0.03281795511221945,0.008101396788037419,
0.03286783042394015,0.0015188415672329862,
0.03291770573566085,-0.00474358612606841,
0.032967581047381546,-0.003627652945401752,
0.03301745635910224,0.01625087950121607,
0.033067331670822944,0.038926616794927406,
0.03311720698254364,0.00420597865980263,
0.03316708229426434,0.006735350838322914,
0.03321695760598504,0.01677743258849288,
0.033266832917705734,-0.006123513587447744,
0.03331670822942644,0.01339473903095662,
0.03336658354114713,0.040186048359788284,
0.03341645885286783,0.03204928290442434,
0.03346633416458853,-0.002713859969135743,
0.033516209476309226,0.016908205353407132,
0.03356608478802992,0.015622525654365255,
0.033615960099750625,0.02370487055027222,
0.03366583541147132,0.02130729994402483,
0.03371571072319202,0.03153745316015738,
0.03376558603491272,0.0471494079118651,
0.033815461346633414,0.04921371596820537,
0.03386533665835412,0.023262778794603676,
0.03391521197007481,0.015108790653749269,
0.03396508728179551,0.04467749096412724,
0.03401496259351621,0.03524091933238334,
0.03406483790523691,0.044714100924810415,
0.0341147132169576,0.02567702313374081,
0.034164588528678305,-0.002595285691389563,
0.034214463840399,0.03470173915581517,
0.034264339152119704,0.018878042050660206,
0.0343142144638404,0.040510734248262056,
0.034364089775561095,0.057411545705140093,
0.0344139650872818,0.011199476227643603,
0.03446384039900249,0.018167515964504076,
0.03451371571072319,0.0068029303959552395,
0.03456359102244389,0.018976259027176007,
0.03461346633416459,0.013260670950073316,
0.03466334164588529,0.009851322572160114,
0.034713216957605986,-0.010960278779501315,
0.03476309226932668,0.04553512893705906,
0.034812967581047384,-0.007703925814982283,
0.03486284289276808,0.012164250162613183,
0.034912718204488775,0.013387374539972659,
0.03496259351620948,0.03262960846975156,
0.035012468827930174,0.038044016904660236,
0.03506234413965087,0.03491128593372628,
0.03511221945137157,0.010544984891688793,
0.03516209476309227,0.013912051698515662,
0.03521197007481297,0.03694568233016193,
0.035261845386533666,0.04432718977658234,
0.03531172069825436,0.006134222652459602,
0.035361596009975065,0.031562553447617055,
0.03541147132169576,0.030488123996944907,
0.035461346633416456,0.020713773394606668,
0.03551122194513716,0.0028084666800334626,
0.035561097256857854,0.01594203770856668,
0.03561097256857856,0.028466575796770734,
0.03566084788029925,-0.00020313222311544796,
0.03571072319201995,0.013728295797046309,
0.03576059850374065,0.03037656535602115,
0.03581047381546135,0.01625000675613424,
0.03586034912718204,0.033170972306624365,
0.035910224438902745,0.019809753804495817,
0.03596009975062344,-0.013238157190738054,
0.036009975062344136,0.04558474014170426,
0.03605985037406484,0.028935154692471095,
0.036109725685785535,0.005992273341235194,
0.03615960099750624,0.014394611904182408,
0.03620947630922693,0.04177513730904691,
0.03625935162094763,0.018093205855224625,
0.03630922693266833,0.015455379138027147,
0.03635910224438903,0.030649303604550655,
0.03640897755610972,0.011562138794404628,
0.036458852867830426,0.022387691264636522,
0.03650872817955112,0.01734351767774895,
0.036558603491271824,0.03181832810787486,
0.03660847880299252,0.014686262522183776,
0.036658354114713215,0.043003734562674284,
0.03670822942643392,0.030986152111473375,
0.036758104738154614,0.030836775108057116,
0.03680798004987531,0.034655467602666974,
0.03685785536159601,0.04353614244439531,
0.03690773067331671,0.016928259894428525,
0.0369576059850374,0.04147642477006046,
0.037007481296758106,0.023014765525200043,
0.0370573566084788,-0.0017157850376677275,
0.037107231920199504,0.023216474861832426,
0.0371571072319202,0.016176887515421606,
0.037206982543640896,0.01871373786987109,
0.0372568578553616,-0.002853804478610701,
0.037306733167082294,0.020146956049676194,
0.03735660847880299,0.02346586304823774,
0.03740648379052369,0.023331946254888283,
0.03745635910224439,0.015927361728576936,
0.037506234413965084,0.02877207633587521,
0.037556109725685786,0.010547337839151094,
0.03760598503740648,0.018235312918621127,
0.037655860349127185,0.0019664005784925213,
0.03770573566084788,0.04145225174610907,
0.037755610972568576,0.011814795342278802,
0.03780548628428928,0.01852468500529939,
0.037855361596009975,0.021840194663618948,
0.03790523690773067,0.022594054687397072,
0.03795511221945137,0.010551185150957057,
0.03800498753117207,0.00814644460984075,
0.03805486284289277,-0.0069415007001562,
0.03810473815461347,0.02868831594742648,
0.03815461346633416,0.02901052351979066,
0.038204488778054865,0.03283044316115214,
0.03825436408977556,0.0008708423930086362,
0.03830423940149626,0.008678156660256396,
0.03835411471321696,0.03740342887091684,
0.038403990024937655,0.008844404220450401,
0.03845386533665835,-0.0007876946260837771,
0.03850374064837905,-0.007216847778048149,
0.03855361596009975,0.002667065488750491,
0.03860349127182045,0.01279989734705396,
0.03865336658354115,0.015424879513463243,
0.03870324189526184,0.00858664585281016,
0.038753117206982546,0.003838578753841166,
0.03880299251870324,-0.003262310602455144,
0.03885286783042394,-0.015147655441256739,
0.03890274314214464,0.0380826630855214,
0.038952618453865336,0.024829831686245897,
0.03900249376558604,0.016544267111459406,
0.039052369077306734,0.01070323864334671,
0.03910224438902743,0.02742867534136967,
0.03915211970074813,0.0019270528062103054,
0.03920199501246883,0.009161676018195614,
0.039251870324189524,0.004632762375038032,
0.039301745635910226,-0.0018392500657223925,
0.03935162094763092,0.004740040610153406,
0.03940149625935162,-0.008218051172476372,
0.03945137157107232,0.012184658009760235,
0.039501246882793016,0.02367347367798321,
0.03955112219451372,-0.008319753141879709,
0.039600997506234414,0.003144515335805572,
0.03965087281795511,0.0015109663006412336,
0.03970074812967581,0.0064777838053575575,
0.03975062344139651,-0.009074768816926666,
0.039800498753117204,-0.0030723259098130846,
0.03985037406483791,-0.018909378213419224,
0.0399002493765586,-0.0003397055016611419,
0.039950124688279305,-0.02173666656755969,
0.04,7.703985560640614e-05,
0.0400498753117207,0.020746512412477963,
0.0400997506234414,-0.019144558404286447,
0.040149625935162095,0.006359477885568367,
0.04019950124688279,-0.003874398484966886,
0.04024937655860349,0.018806314449615516,
0.04029925187032419,0.004176543448796782,
0.040349127182044885,-0.002507201534049257,
0.04039900249376559,0.0024106020363692518,
0.04044887780548628,0.0012607973568143041,
0.040498753117206986,0.01912397140240623,
0.04054862842892768,0.004830951996150026,
0.04059850374064838,0.004110386652621464,
0.04064837905236908,-0.01235681667702838,
0.040698254364089775,0.003356767213986019,
0.04074812967581047,-0.02683218326455524,
0.040798004987531174,0.018371216166465244,
0.04084788029925187,-0.002698982638563243,
0.040897755610972565,0.019383060688304806,
0.04094763092269327,0.01210339645157597,
0.04099750623441396,-0.012965934490562103,
0.041047381546134666,-0.026788968116300174,
0.04109725685785536,-0.006627242159714117,
0.04114713216957606,-0.023379571204934647,
0.04119700748129676,-0.004695719713820633,
0.041246882793017456,-0.018868676857584026,
0.04129675810473815,0.0034484186244873403,
0.041346633416458854,0.02878540654225185,
0.04139650872817955,-0.012678919182389076,
0.04144638403990025,-0.014733526655909584,
0.04149625935162095,-0.023508894467768104,
0.041546134663341644,-0.029939478942543642,
0.04159600997506235,0.005891713819156522,
0.04164588528678304,-0.0214604629189405,
0.04169576059850374,0.02083027096524111,
0.04174563591022444,-0.014726524060511899,
0.041795511221945136,-0.005722387630157661,
0.04184538653366583,-0.012462763314707352,
0.041895261845386535,0.001505880752985033,
0.04194513715710723,-0.014568188284256477,
0.04199501246882793,-0.011980937917869458,
0.04204488778054863,-0.02965179912261004,
0.042094763092269324,-0.008588803643680407,
0.04214463840399003,-0.028849518640876252,
0.04219451371571072,-0.036356078864197144,
0.04224438902743142,-0.02267887248413082,
0.04229426433915212,0.0016439688145241747,
0.04234413965087282,0.006857104909556936,
0.04239401496259352,-0.018539180540549215,
0.042443890274314215,-0.003863830265665378,
0.04249376558603491,-0.017722163364374974,
0.042543640897755614,-0.020297209827933302,
0.04259351620947631,-0.011119061205837943,
0.042643391521197005,-0.01446000734606444,
0.04269326683291771,-0.0015229611448622418,
0.0427431421446384,-0.0063158203445024584,
0.0427930174563591,-0.009317789403835125,
0.0428428927680798,0.011267750590091271,
0.0428927680798005,-0.02073086210849234,
0.0429426433915212,-0.00392410598531652,
0.042992518703241896,-0.004057063645181366,
0.04304239401496259,-0.015089631448984417,
0.043092269326683294,-0.04001156300075936,
0.04314214463840399,-0.015030322102263776,
0.043192019950124685,-0.004472714198497136,
0.04324189526184539,-0.03938667809922887,
0.043291770573566084,-0.032975046622768185,
0.043341645885286786,-0.008913364638604324,
0.04339152119700748,0.02419553208357733,
0.04344139650872818,-0.051731155202396614,
0.04349127182044888,0.014535625639820313,
0.043541147132169576,0.007361211563546504,
0.04359102244389027,-0.016903619258345392,
0.043640897755610975,-0.013800998309770775,
0.04369077306733167,-0.015163108008873728,
0.043740648379052366,-0.020077877578918133,
0.04379052369077307,0.01663869957998477,
0.043840399002493764,-0.0380364777298821,
0.04389027431421447,-0.018740724883947738,
0.04394014962593516,0.0004925616756711049,
0.04399002493765586,-0.0023206830299741608,
0.04403990024937656,0.0003435646143784242,
0.04408977556109726,-0.018836817820345613,
0.04413965087281795,-0.029902073061335258,
0.044189526184538655,-0.007537702195352153,
0.04423940149625935,-0.019199815505013536,
0.04428927680798005,-0.014370184592342369,
0.04433915211970075,-0.025834524683900288,
0.044389027431421445,-0.007436461418318647,
0.04443890274314215,-0.04022320949043981,
0.04448877805486284,-0.04093490532496703,
0.04453865336658354,-0.013850096810068728,
0.04458852867830424,-0.01621727246537084,
0.04463840399002494,-0.0336943776574858,
0.04468827930174563,-0.0124361823797369,
0.044738154613466335,0.0013761676396421944,
0.04478802992518703,-0.035609480108413485,
0.044837905236907734,-0.006880300668158014,
0.04488778054862843,-0.010776163395663781,
0.044937655860349125,-0.0010972527616836952,
0.04498753117206983,-0.024970498723750584,
0.045037406483790524,0.018900365167062574,
0.04508728179551122,-0.005491612219489973,
0.04513715710723192,-0.02194398161046997,
0.04518703241895262,-0.012192191355242214,
0.04523690773067331,-0.024011434967128372,
0.045286783042394016,-0.023455200911404572,
0.04533665835411471,-0.016549164586596037,
0.045386533665835414,0.0036314125985435937,
0.04543640897755611,-0.04122422765680039,
0.045486284289276806,-0.00872955171418753,
0.04553615960099751,-0.025561581722574406,
0.045586034912718204,-0.01732693518661565,
0.0456359102244389,-0.05170344528180688,
0.0456857855361596,0.00857878652220817,
0.0457356608478803,-0.018074854943482026,
0.045785536159601,-0.029584997260996376,
0.045835411471321696,0.015874197301898478,
0.04588528678304239,-0.03299547023512929,
0.045935162094763095,0.009897862106205222,
0.04598503740648379,-0.007011633361434453,
0.046034912718204486,-0.0017527526228040616,
0.04608478802992519,-0.013779121520582211,
0.046134663341645885,-0.02045455731333913,
0.04618453865336658,-0.0038863420796802373,
0.04623441396508728,-0.01802390163162673,
0.04628428927680798,-0.017072805474854742,
0.04633416458852868,-0.04382000226626763,
0.04638403990024938,-0.030834428198797635,
0.04643391521197007,-0.005426430776265308,
0.046483790523690775,0.005232344753280542,
0.04653366583541147,-0.020535132119102018,
0.04658354114713217,-0.025299054523316766,
0.04663341645885287,-0.006312702022690677,
0.046683291770573565,-0.020782435410911723,
0.04673316708229427,0.009866810471955603,
0.04678304239401496,-0.01701380282730906,
0.04683291770573566,-0.012487427471956664,
0.04688279301745636,-0.005270776822100181,
0.04693266832917706,0.03507557705032169,
0.04698254364089775,-0.009704103935079353,
0.047032418952618456,-0.03958393419119862,
0.04708229426433915,-0.029460695599365025,
0.04713216957605985,-0.02137653565056401,
0.04718204488778055,-0.024985411175072764,
0.047231920199501246,-0.042031152499446556,
0.04728179551122195,-0.018303653608492905,
0.047331670822942644,-0.029800297695042006,
0.04738154613466334,-0.017628739698217454,
0.04743142144638404,-0.026661508958664495,
0.04748129675810474,-0.0013818988253761488,
0.047531172069825434,-0.021275346348175406,
0.047581047381546136,-0.02402352543319427,
0.04763092269326683,-0.011463588892413994,
0.047680798004987535,-0.03134237660793143,
0.04773067331670823,-0.009600720040990163,
0.047780548628428926,0.008161010140287563,
0.04783042394014963,-0.007646761308298082,
0.047880299251870324,0.0035600936985515554,
0.04793017456359102,0.0027759510196768786,
0.04798004987531172,-0.018572822457408652,
0.04802992518703242,0.0023700977683371992,
0.048079800498753114,0.021989818103611645,
0.04812967581047382,-0.010407347974276317,
0.04817955112219451,-0.013261875229819673,
0.048229426433915215,0.013153654776900885,
0.04827930174563591,-0.013734852967187388,
0.048329177057356607,0.0006230397372909207,
0.04837905236907731,0.0026712519656641037,
0.048428927680798005,0.013142417850865415,
0.0484788029925187,0.002749394793141316,
0.0485286783042394,-0.006036301242952024,
0.0485785536159601,0.005221557073733893,
0.048628428927680795,-0.005003749910449574,
0.0486783042394015,-0.0007383173191347417,
0.04872817955112219,-0.009543099383005137,
0.048778054862842896,0.005296768226394371,
0.04882793017456359,0.000544387343111337,
0.04887780548628429,0.021959328697899606,
0.04892768079800499,0.0009387374107879495,
0.048977556109725685,-0.019264764531174452,
0.04902743142144638,0.010951184713431355,
0.049077306733167084,-0.012771599894715848,
0.04912718204488778,-0.0005076478878077854,
0.04917705735660848,0.013791087879334425,
0.04922693266832918,-0.011034365049638659,
0.04927680798004987,0.012466439930882582,
0.049326683291770576,-0.02242921193416837,
0.04937655860349127,-0.01797414097229194,
0.04942643391521197,-0.010958724790383756,
0.04947630922693267,-0.00405900660900526,
0.049526184538653366,0.023340684901086053,
0.04957605985037406,0.0007985330108575379,
0.049625935162094764,-0.004114500722051925,
0.04967581047381546,-0.003985117678187131,
0.04972568578553616,-0.003638412318604778,
0.04977556109725686,0.0071702387673249456,
0.049825436408977554,0.030722778562350703,
0.04987531172069826,-0.035274520656302245,
0.04992518703241895,0.00981998826023536,
0.04997506234413965,-0.016617440202283215,
0.05002493765586035,0.009408546157206234,
0.050074812967581046,0.0057498829100134366,
0.05012468827930175,0.002949027814628719,
0.050174563591022445,0.009154451056598336,
0.05022443890274314,-0.004941333849813732,
0.05027431421446384,0.004803965211712002,
0.05032418952618454,0.01594562686584096,
0.050374064837905234,0.012027202181292832,
0.05042394014962594,0.011628112935387,
0.05047381546134663,0.01473048468007919,
0.05052369077306733,5.845273179165382e-05,
0.05057356608478803,0.005451977051397837,
0.05062344139650873,0.04132973149289121,
0.05067331670822943,-0.0006658237354486944,
0.050723192019950125,0.04051519774315884,
0.05077306733167082,-0.0029519078697362467,
0.050822942643391524,-0.0015532444683385837,
0.05087281795511222,-0.003630105009523788,
0.050922693266832915,0.0148551575806337,
0.05097256857855362,0.014235555408959426,
0.05102244389027431,0.003023565849619691,
0.051072319201995016,0.005306519799295043,
0.05112219451371571,0.016446602101121338,
0.05117206982543641,0.0077379865665058506,
0.05122194513715711,0.01046722582783874,
0.051271820448877806,-0.0012280546539740374,
0.0513216957605985,0.03732584300703937,
0.051371571072319204,0.020359585945565115,
0.0514214463840399,0.007243033047727381,
0.051471321695760595,0.019696307976184223,
0.0515211970074813,-0.009170602688229114,
0.051571072319201994,-0.001496291105839865,
0.051620947630922696,0.032725647631710514,
0.05167082294264339,-0.006218594259213554,
0.05172069825436409,0.027561011957877503,
0.05177057356608479,0.01854211886005395,
0.051820448877805486,0.038187058974888374,
0.05187032418952618,0.033451705166301776,
0.051920199501246884,0.02309070069726395,
0.05197007481296758,0.014748427444461774,
0.052019950124688276,0.0521657777933631,
0.05206982543640898,0.022850736383539835,
0.052119700748129674,0.025339836567106037,
0.05216957605985038,0.0005069200682320842,
0.05221945137157107,0.017490269035439248,
0.05226932668329177,0.012832547374871769,
0.05231920199501247,0.015438698946424221,
0.05236907730673317,0.04673324435312154,
0.05241895261845386,0.024619957629186895,
0.052468827930174565,0.03090823640687663,
0.05251870324189526,0.0182263746035793,
0.05256857855361596,0.016155135251879477,
0.05261845386533666,-0.0029154224387019506,
0.052668329177057355,0.019196675518174597,
0.05271820448877806,0.027502046553453275,
0.05276807980049875,0.038978356304128874,
0.05281795511221945,0.009598830290931526,
0.05286783042394015,0.04155368476192979,
0.05291770573566085,0.04251175397147656,
0.05296758104738154,0.02698369308753483,
0.053017456359102245,0.003650446111291405,
0.05306733167082294,0.00935340939176173,
0.053117206982543644,0.044049063261996174,
0.05316708229426434,0.03633585508436917,
0.053216957605985035,0.03286567894794941,
0.05326683291770574,0.010962519991353132,
0.053316708229426434,0.008760890412026478,
0.05336658354114713,-0.005377184086442388,
0.05341645885286783,0.005713781035094661,
0.05346633416458853,0.02064865574113068,
0.05351620947630923,0.018243740827050273,
0.053566084788029926,-0.0020391435927596888,
0.05361596009975062,0.03297486981693284,
0.053665835411471324,0.01991643543676748,
0.05371571072319202,0.04136885731218058,
0.053765586034912716,0.012872069657186711,
0.05381546134663342,0.02928206608472423,
0.053865336658354114,0.011049283319024607,
0.05391521197007481,0.02878852023027454,
0.05396508728179551,0.020296451935746057,
0.05401496259351621,0.012275555981687555,
0.05406483790523691,0.029320490437001755,
0.054114713216957606,0.0028581286582859376,
0.0541645885286783,0.030175572563925345,
0.054214463840399005,0.03139936215582645,
0.0542643391521197,0.006066847108250402,
0.054314214463840396,0.03662518885576464,
0.0543640897755611,0.027297136050972306,
0.054413965087281795,0.02165725071394096,
0.0544638403990025,0.008043004149314966,
0.05451371571072319,0.04615303249333452,
0.05456359102244389,0.005029122709146273,
0.05461346633416459,0.0293102611310341,
0.05466334164588529,0.0484459108758415,
0.05471321695760598,-0.006846972809337892,
0.054763092269326685,0.04073055088395297,
0.05481296758104738,0.006496883174184318,
0.05486284289276808,0.025442319209774765,
0.05491271820448878,0.006813633350641002,
0.054962593516209475,0.05515492079269768,
0.05501246882793018,0.03634084380091435,
0.05506234413965087,0.013753914438460227,
0.05511221945137157,0.041999477589283886,
0.05516209476309227,0.025862316809210764,
0.05521197007481297,0.020944093895329557,
0.05526184538653366,0.036127444204992094,
0.055311720698254366,0.018782033038880538,
0.05536159600997506,0.027895699723361804,
0.05541147132169576,0.0002894591059381356,
0.05546134663341646,0.03645901986811672,
0.055511221945137156,0.03303170412211043,
0.05556109725685786,-0.006944368661772709,
0.055610972568578554,0.016754517548571123,
0.05566084788029925,0.04651073096641879,
0.05571072319201995,0.011773915573349406,
0.05576059850374065,0.05104218836572191,
0.055810473815461344,0.03918328072232251,
0.055860349127182046,0.02397386783209154,
0.05591022443890274,0.03716211050729823,
0.055960099750623445,0.04221337803358281,
0.05600997506234414,0.015948869490515355,
0.056059850374064836,0.019646352347364435,
0.05610972568578554,-0.013697961464106567,
0.056159600997506234,0.0254538427324329,
0.05620947630922693,0.020769110655513047,
0.05625935162094763,0.027433332108037098,
0.05630922693266833,0.03459353854170988,
0.056359102244389024,0.0722926254020182,
0.05640897755610973,0.024148777860276593,
0.05645885286783042,0.055092970136576894,
0.056508728179551125,0.03078694567517683,
0.05655860349127182,0.026488162597499317,
0.056608478802992516,0.05136017134336174,
0.05665835411471322,0.016936828143488868,
0.056708229426433915,0.00656053166031252,
0.05675810473815461,0.031889433470763284,
0.05680798004987531,0.01987283420944696,
0.05685785536159601,0.030561370438002305,
0.05690773067331671,0.01029621955039184,
0.05695760598503741,0.016000169017868344,
0.0570074812967581,0.0334222925677789,
0.057057356608478806,0.026385910664011823,
0.0571072319201995,0.014037547720860018,
0.0571571072319202,0.011740974849294681,
0.0572069825436409,0.027007586259359624,
0.057256857855361595,0.021868653597921846,
0.05730673316708229,0.019557991158122796,
0.057356608478802994,0.019557727521692398,
0.05740648379052369,0.0401567184233829,
0.05745635910224439,0.00639553690253457,
0.05750623441396509,0.006976497629531463,
0.05755610972568578,0.017370955103928717,
0.057605985037406486,0.027449056141747467,
0.05765586034912718,-0.00393907311206149,
0.05770573566084788,0.029902973741664732,
0.05775561097256858,-8.825546924754249e-05,
0.057805486284289276,0.008619394862595435,
0.05785536159600998,0.02390339429186164,
0.057905236907730674,0.005191430381496848,
0.05795511221945137,0.018352671811887447,
0.05800498753117207,0.023196250427591856,
0.05805486284289277,0.00571388350509805,
0.058104738154613464,0.021375026093851186,
0.05815461346633417,0.031276751680210685,
0.05820448877805486,0.01203904270128856,
0.05825436408977556,0.014478250930422053,
0.05830423940149626,0.01315853747700781,
0.058354114713216956,0.026862247756409115,
0.05840399002493766,0.023575771862630667,
0.058453865336658355,0.018113911613818704,
0.05850374064837905,0.011045057596796595,
0.05855361596009975,0.0053909854612259585,
0.05860349127182045,0.008653906442653118,
0.058653366583541144,-0.010396492883459726,
0.05870324189526185,0.001929096990630397,
0.05875311720698254,-0.012269027991997472,
0.05880299251870324,-0.008950130344799766,
0.05885286783042394,0.0261548482046928,
0.05890274314214464,0.03738297209852042,
0.05895261845386534,0.0039059358901201045,
0.059002493765586035,0.0043229671761154335,
0.05905236907730673,0.00692735468084283,
0.059102244389027433,-0.00043362622290832147,
0.05915211970074813,0.00720194975138101,
0.059201995012468825,0.019267057115920794,
0.05925187032418953,0.0034120709777101703,
0.05930174563591022,0.04202811345855372,
0.059351620947630926,0.02101960040546653,
0.05940149625935162,0.009914374322022598,
0.05945137157107232,-0.0023561019709706435,
0.05950124688279302,0.015700786471824487,
0.059551122194513716,0.025500452556700408,
0.05960099750623441,0.02785472691737812,
0.059650872817955114,0.004292673672303611,
0.05970074812967581,0.015400610154189698,
0.059750623441396505,-0.030104736229481066,
0.05980049875311721,0.037781414455123966,
0.059850374064837904,-0.010603612182542323,
0.059900249376558606,0.002289291816854742,
0.0599501246882793,0.024399405816743682,
0.06,0.010203864236753927,
0.0600498753117207,-0.01171956765385166,
0.060099750623441396,0.007638763884390239,
0.06014962593516209,-0.012859628968495717,
0.060199501246882794,0.01700270465041093,
0.06024937655860349,-0.01228964206560842,
0.06029925187032419,0.025791921006326848,
0.06034912718204489,-0.014446524871833462,
0.060399002493765584,0.009309764296445939,
0.06044887780548629,-0.012263387870694604,
0.06049875311720698,0.0026762741516215436,
0.06054862842892768,0.012081763757553226,
0.06059850374064838,0.0273570472434437,
0.06064837905236908,-0.008156512251075505,
0.06069825436408977,0.0014007430591315108,
0.060748129675810475,-0.016495553193139598,
0.06079800498753117,-0.015282617696126783,
0.06084788029925187,-0.008093387958159209,
0.06089775561097257,0.00018266352991375958,
0.060947630922693265,0.02956430158435936,
0.06099750623441397,-0.03018788067699806,
0.06104738154613466,-0.0041474839797688776,
0.06109725685785536,-0.026052867488437825,
0.06114713216957606,-0.03495545839790295,
0.06119700748129676,0.008535318427189856,
0.06124688279301746,-0.006972869659761856,
0.061296758104738155,-0.01151855875026082,
0.06134663341645885,0.022758338114643013,
0.061396508728179554,-0.01705142961226744,
0.06144638403990025,0.007709336329217936,
0.061496259351620945,0.005136023018076294,
0.06154613466334165,-0.017998709959756023,
0.061596009975062344,-0.019821463561219388,
0.06164588528678304,-0.01603171520291742,
0.06169576059850374,-0.025887867824642016,
0.06174563591022444,-0.0033264389436186456,
0.06179551122194514,-0.016931510198988205,
0.061845386533665836,-0.02351254346832602,
0.06189526184538653,0.02433079045082804,
0.061945137157107234,0.02887782055389322,
0.06199501246882793,0.010058482318351925,
0.062044887780548626,0.011281687975760717,
0.06209476309226933,-0.016217707726523083,
0.062144638403990024,-0.018614362406849355,
0.06219451371571072,-0.004786679563687117,
0.06224438902743142,-0.013829349534154167,
0.06229426433915212,-0.005370452988335663,
0.06234413965087282,0.010078187703853422,
0.062394014962593516,0.025002489216455124,
0.06244389027431421,0.00981307500672196,
0.062493765586034915,-0.01623557923310571,
0.06254364089775562,0.014533261248626406,
0.06259351620947631,0.026122921204418982,
0.06264339152119701,0.008009305128575925,
0.0626932668329177,-0.03376701471374244,
0.0627431421446384,-0.022012388851361794,
0.0627930174563591,-0.009505234658568663,
0.0628428927680798,0.016089633266959814,
0.0628927680798005,0.020566176700852375,
0.0629426433915212,-0.01875613770021785,
0.06299251870324189,-0.01029238807213764,
0.06304239401496259,-0.02658959253102438,
0.0630922693266833,-0.029378723277687462,
0.063142144638404,-0.020302597319552224,
0.06319201995012469,-0.0036402382253242615,
0.06324189526184539,-0.019222100830844045,
0.06329177057356608,-0.007505919506595657,
0.06334164588528678,0.012946591770089576,
0.06339152119700749,-0.00522477800053326,
0.06344139650872818,-0.02948695569385845,
0.06349127182044888,0.0025827405966752093,
0.06354114713216957,-0.00965712132509117,
0.06359102244389027,-0.023853146729751647,
0.06364089775561098,-0.007013908729592202,
0.06369077306733167,-0.03967332350776681,
0.06374064837905237,0.004178545614650026,
0.06379052369077307,-0.027295300647548836,
0.06384039900249376,0.0349556014415373,
0.06389027431421446,-0.03045135574780558,
0.06394014962593517,-0.0026795046676686227,
0.06399002493765586,-0.004598033858080337,
0.06403990024937656,-0.027260739172805158,
0.06408977556109725,0.004175084804261542,
0.06413965087281795,-0.013391151383634486,
0.06418952618453866,-0.030011573986694882,
0.06423940149625935,-0.008153017297206864,
0.06428927680798005,-0.007295846510327685,
0.06433915211970075,-0.030288500031222458,
0.06438902743142144,-0.027454267037975245,
0.06443890274314215,-0.025010227162770224,
0.06448877805486285,-0.00024545907569421474,
0.06453865336658354,-0.012734088065991184,
0.06458852867830424,0.006086386697303162,
0.06463840399002493,0.003567956357532367,
0.06468827930174563,-0.024813358507880592,
0.06473815461346634,-0.025567825850854518,
0.06478802992518704,-0.013259053185111712,
0.06483790523690773,-0.008141912384563833,
0.06488778054862843,-0.010049298553641351,
0.06493765586034912,-0.0003209036096083386,
0.06498753117206983,-0.017861834101084155,
0.06503740648379053,-0.04820025353721697,
0.06508728179551122,-0.005427491145970693,
0.06513715710723192,-0.003627805370676432,
0.06518703241895261,-0.029469086137196912,
0.06523690773067331,-0.014571827749254281,
0.06528678304239402,-0.024050046904386835,
0.06533665835411472,-0.012396425353331506,
0.06538653366583541,-0.03361195639366946,
0.06543640897755611,0.021172047512848395,
0.0654862842892768,-0.005806768729031941,
0.06553615960099751,0.005568110930301044,
0.06558603491271821,-0.010151151268437488,
0.0656359102244389,0.012462185199976127,
0.0656857855361596,-0.030293410117112708,
0.0657356608478803,-0.01461463883216305,
0.06578553615960099,-0.01812418832428158,
0.0658354114713217,-0.016732110593573553,
0.0658852867830424,0.011666460091430424,
0.06593516209476309,0.01907035242518039,
0.06598503740648379,-0.014384432128131062,
0.06603491271820448,-0.04095186131837086,
0.06608478802992519,-0.018299732703414895,
0.06613466334164589,-0.03506699079564981,
0.06618453865336658,-0.001713996204444273,
0.06623441396508728,-0.03106621792951081,
0.06628428927680798,-0.024579128829164423,
0.06633416458852869,-0.007244166647578164,
0.06638403990024938,-0.016723235532006296,
0.06643391521197008,-0.021233403517237563,
0.06648379052369077,-0.008970978082485462,
0.06653366583541147,-0.020438815224106163,
0.06658354114713216,-0.025583687346212053,
0.06663341645885287,-0.01149963040713516,
0.06668329177057357,-0.004005019761979502,
0.06673316708229426,-0.027353262208650777,
0.06678304239401496,-0.008431281892840325,
0.06683291770573566,-0.00920602214945566,
0.06688279301745637,-0.020420877821567603,
0.06693266832917706,-0.023532789853535956,
0.06698254364089776,0.01831955641689817,
0.06703241895261845,0.006448898018590551,
0.06708229426433915,0.0045591660773716056,
0.06713216957605984,-0.00873823782155993,
0.06718204488778055,0.005284151615865915,
0.06723192019950125,-0.014046199307673604,
0.06728179551122195,0.0039054086072187882,
0.06733167082294264,0.026957168844164346,
0.06738154613466334,-0.04092447970394131,
0.06743142144638405,-0.017440372947145344,
0.06748129675810474,-0.015231779175681744,
0.06753117206982544,-0.0014205368765589305,
0.06758104738154613,0.018868901671714275,
0.06763092269326683,-0.00821426015008977,
0.06768079800498752,-0.011257464180042262,
0.06773067331670823,0.009940040713033876,
0.06778054862842893,0.013285408678293028,
0.06783042394014963,0.0038643204961226014,
0.06788029925187032,-0.005018254741736408,
0.06793017456359102,-0.008698373906583842,
0.06798004987531173,-0.019796447227374395,
0.06802992518703242,-0.04044935500250596,
0.06807980049875312,-0.005952794600262577,
0.06812967581047381,-0.001067538670729437,
0.06817955112219451,-0.027524089037303797,
0.0682294264339152,-0.013309754715565437,
0.06827930174563591,0.011887657507887714,
0.06832917705735661,-0.03287752199094185,
0.0683790523690773,-0.007090158480855377,
0.068428927680798,-0.002372376693118571,
0.0684788029925187,-0.019514278073257785,
0.06852867830423941,-0.020138629537861445,
0.0685785536159601,0.021351086099015665,
0.0686284289276808,-0.007920561356239439,
0.0686783042394015,-0.01816687414212029,
0.06872817955112219,-0.0017609322307803109,
0.0687780548628429,0.010954158781964585,
0.0688279301745636,-0.03052244851276212,
0.06887780548628429,0.0050756394558940775,
0.06892768079800499,0.025388577667806205,
0.06897755610972568,-0.00012204074229850146,
0.06902743142144638,0.005985398646281141,
0.06907730673316709,-0.005632152623109123,
0.06912718204488778,-0.002217102099801398,
0.06917705735660848,-0.005835518377490333,
0.06922693266832917,0.013018941490095795,
0.06927680798004987,-0.011633542379950661,
0.06932668329177058,0.00880433037573429,
0.06937655860349128,-0.0023663567271672093,
0.06942643391521197,0.01252385023652546,
0.06947630922693267,-0.009989355902174092,
0.06952618453865336,0.02423934000116692,
0.06957605985037406,-0.012788287108126382,
0.06962593516209477,-0.013176171024217948,
0.06967581047381546,-0.006220659431906443,
0.06972568578553616,0.03052406327767953,
0.06977556109725686,-0.014163694940369252,
0.06982543640897755,-0.0038816389737531083,
0.06987531172069826,0.00851662060354251,
0.06992518703241896,0.004827083538798351,
0.06997506234413965,0.004249974219863605,
0.07002493765586035,0.03457328008274507,
0.07007481296758104,0.010022226634942583,
0.07012468827930174,0.010053566529413267,
0.07017456359102245,0.023205561334691174,
0.07022443890274314,0.008281953192651443,
0.07027431421446384,-0.002926637650417039,
0.07032418952618454,0.011341444696841747,
0.07037406483790523,0.021694455041929524,
0.07042394014962594,0.011050618283755542,
0.07047381546134664,0.00982952009120839,
0.07052369077306733,0.013803991244938937,
0.07057356608478803,0.006897700824772437,
0.07062344139650872,-0.0015692140038815194,
0.07067331670822943,0.019690460184822706,
0.07072319201995013,0.03717693011567613,
0.07077306733167082,0.03472775760973229,
0.07082294264339152,-0.0007184586673802413,
0.07087281795511222,0.056448866831340934,
0.07092269326683291,0.006759816588376846,
0.07097256857855362,-0.004525805347838372,
0.07102244389027432,0.04019396159355046,
0.07107231920199501,0.04634304665475955,
0.07112219451371571,0.005904411934023385,
0.0711720698254364,0.05171072272459541,
0.07122194513715711,0.002927341760943926,
0.07127182044887781,-0.005772285110833886,
0.0713216957605985,0.0007981866732330156,
0.0713715710723192,0.00555811912495606,
0.0714214463840399,0.01784474198167178,
0.07147132169576059,-0.008644493710966001,
0.0715211970074813,0.003606315928038171,
0.071571072319202,0.04291979589878696,
0.0716209476309227,0.0036699328667971817,
0.07167082294264339,0.0074209821617648945,
0.07172069825436408,0.025901517459913197,
0.0717705735660848,0.01817757344095997,
0.07182044887780549,0.02343642993084978,
0.07187032418952619,0.043556836100288265,
0.07192019950124688,0.004101048283821806,
0.07197007481296758,0.020154376786425877,
0.07201995012468827,0.009699099284352268,
0.07206982543640898,0.0018951157544896298,
0.07211970074812968,0.0254691722128812,
0.07216957605985037,0.041746311131419536,
0.07221945137157107,0.022496052067423195,
0.07226932668329177,0.010931138708577086,
0.07231920199501247,0.018635348237773696,
0.07236907730673317,-0.011036318232757195,
0.07241895261845387,0.04236664207688076,
0.07246882793017456,0.005692510445891622,
0.07251870324189526,-0.0035142929413485534,
0.07256857855361595,0.018989756365852175,
0.07261845386533666,0.017258905246804207,
0.07266832917705736,0.01970088599890741,
0.07271820448877805,0.03612235392910839,
0.07276807980049875,0.013121135449758266,
0.07281795511221945,0.00017371767798977922,
0.07286783042394016,0.0067859929978121136,
0.07291770573566085,0.030169978724359385,
0.07296758104738155,0.04591058576722367,
0.07301745635910224,0.02339096026304901,
0.07306733167082294,0.010971338932533214,
0.07311720698254365,0.0279364370884347,
0.07316708229426434,0.015378072970244294,
0.07321695760598504,0.027928499174961624,
0.07326683291770573,0.03975327102014904,
0.07331670822942643,0.047430932564568276,
0.07336658354114713,0.034711912653916474,
0.07341645885286784,0.018829620278047056,
0.07346633416458853,0.016883892695139117,
0.07351620947630923,0.002047346092268497,
0.07356608478802992,0.023495262777554822,
0.07361596009975062,0.002461421370064533,
0.07366583541147133,0.022217659308049097,
0.07371571072319202,0.016084900319282162,
0.07376558603491272,0.025084403181239365,
0.07381546134663342,0.021275329839745668,
0.07386533665835411,0.028990191738758875,
0.0739152119700748,-0.004055529910759557,
0.07396508728179552,0.047648543050873265,
0.07401496259351621,0.016649102466531073,
0.07406483790523691,0.02021852702559377,
0.0741147132169576,0.027420951925635737,
0.0741645885286783,0.03776976755781013,
0.07421446384039901,0.009720215797104042,
0.0742643391521197,0.038270698543604306,
0.0743142144638404,0.007193913399897292,
0.0743640897755611,0.018001350117472444,
0.07441396508728179,0.043699257405528456,
0.07446384039900249,1.3031215648044714e-06,
0.0745137157107232,0.0002683622191932862,
0.07456359102244389,0.02296425019723274,
0.07461346633416459,0.018568968314038283,
0.07466334164588528,0.010879151172397203,
0.07471321695760598,0.024484771310928192,
0.07476309226932669,0.04884949518741205,
0.07481296758104738,0.007580361804062095,
0.07486284289276808,0.008388059511283238,
0.07491271820448878,0.042172400531820003,
0.07496259351620947,0.04162053053724034,
0.07501246882793017,0.04659743195184676,
0.07506234413965088,0.0241834789380927,
0.07511221945137157,0.02925720245247509,
0.07516209476309227,0.019573055775704354,
0.07521197007481296,0.02199169068493717,
0.07526184538653366,-0.005100909506641875,
0.07531172069825437,0.017044030294385715,
0.07536159600997507,0.011942202081404885,
0.07541147132169576,0.024368821111867757,
0.07546134663341646,0.012962078195992188,
0.07551122194513715,0.03938337395656023,
0.07556109725685786,0.04956135210033977,
0.07561097256857856,0.008063873233246494,
0.07566084788029925,0.015681009588188147,
0.07571072319201995,0.03854562103612001,
0.07576059850374064,0.04247317973055094,
0.07581047381546134,0.022755484140202863,
0.07586034912718205,0.04896209319831303,
0.07591022443890275,0.006195155490044558,
0.07596009975062344,0.018430902827038652,
0.07600997506234414,0.027108399191387633,
0.07605985037406483,0.04228086138233242,
0.07610972568578554,0.021466074566293666,
0.07615960099750624,0.02603167349362512,
0.07620947630922693,0.019980308322792847,
0.07625935162094763,0.05472636671241106,
0.07630922693266833,0.025666266219757948,
0.07635910224438902,0.02730892703600022,
0.07640897755610973,0.0050420900084866965,
0.07645885286783043,0.020529574787787507,
0.07650872817955112,0.012173835075718904,
0.07655860349127182,0.029608387038932513,
0.07660847880299251,0.041105421558835134,
0.07665835411471322,0.018719866315415924,
0.07670822942643392,0.02078340432964449,
0.07675810473815461,0.04471593529608946,
0.07680798004987531,0.030698859678770556,
0.076857855361596,0.029677337723822625,
0.0769077306733167,0.04047392457838968,
0.07695760598503741,0.033412388090896035,
0.0770074812967581,0.03498522507346073,
0.0770573566084788,0.01707585538322679,
0.0771072319201995,0.03180808815884194,
0.0771571072319202,0.0071875692462426005,
0.0772069825436409,0.0007119600163697955,
0.0772568578553616,0.061849989191329516,
0.0773067331670823,0.005863340507278185,
0.07735660847880299,0.014857825912879295,
0.07740648379052369,0.008106293307307532,
0.0774563591022444,0.047778237912799164,
0.07750623441396509,0.0034903483478518627,
0.07755610972568579,0.01840279179637885,
0.07760598503740648,0.02787579414519878,
0.07765586034912718,0.0005704416789989349,
0.07770573566084787,0.017016386216739114,
0.07775561097256858,0.0641938149662067,
0.07780548628428928,0.03492979734327775,
0.07785536159600998,0.0074856599758523455,
0.07790523690773067,0.023947417446841864,
0.07795511221945137,0.009682065348128916,
0.07800498753117208,0.020082150724277513,
0.07805486284289277,0.028460668881940324,
0.07810473815461347,0.03882131820303601,
0.07815461346633416,-0.011401867782145619,
0.07820448877805486,0.02218702925782336,
0.07825436408977555,-0.0006959194810663826,
0.07830423940149626,0.040136936856387875,
0.07835411471321696,0.03213835590668068,
0.07840399002493766,0.023465260077507027,
0.07845386533665835,0.0025804286406663126,
0.07850374064837905,0.028622064645120487,
0.07855361596009976,-0.006176750188012737,
0.07860349127182045,0.019382858285014803,
0.07865336658354115,-0.007599867499751894,
0.07870324189526184,-0.005031608641581654,
0.07875311720698254,0.0011310608491902872,
0.07880299251870324,0.0049523822865264544,
0.07885286783042394,0.005238217782383505,
0.07890274314214464,-0.013215765780225944,
0.07895261845386534,-0.014303308955565527,
0.07900249376558603,0.01881575496148474,
0.07905236907730673,0.0166137414173491,
0.07910224438902744,0.009845120497508937,
0.07915211970074813,0.014942582016257847,
0.07920199501246883,0.018791457468487965,
0.07925187032418952,0.012938267667919539,
0.07930174563591022,0.016940861808601347,
0.07935162094763092,-0.0025041903699931922,
0.07940149625935163,0.027693043977574147,
0.07945137157107232,0.002615735120302466,
0.07950124688279302,0.02462324840602862,
0.07955112219451371,0.015548450622889624,
0.07960099750623441,0.0012247302835618548,
0.07965087281795512,-0.019859617224700872,
0.07970074812967581,-0.0028781690599511377,
0.07975062344139651,0.009154294189497753,
0.0798004987531172,0.018063818679136215,
0.0798503740648379,0.002218053326564011,
0.07990024937655861,0.019793771806523003,
0.0799501246882793,0.016659882760932426,
0.08,0.0006460018292368122,
0.0800498753117207,-0.011850272328303166,
0.0800997506234414,-0.018308892976575262,
0.08014962593516209,0.012761002027890399,
0.0801995012468828,0.010148147930914935,
0.0802493765586035,-0.016491110452358862,
0.08029925187032419,-0.019634428637455546,
0.08034912718204489,-0.0011815401825074358,
0.08039900249376558,-0.0004444787633471302,
0.08044887780548629,-0.012186285780953428,
0.08049875311720699,-0.004852628902469293,
0.08054862842892768,0.0002206920294137841,
0.08059850374064838,0.011660018276778476,
0.08064837905236907,-0.018671709090450503,
0.08069825436408977,-0.007693934527542789,
0.08074812967581048,0.004613379563487327,
0.08079800498753117,0.011243938552226228,
0.08084788029925187,-0.006019900700569706,
0.08089775561097257,-0.029631642805071558,
0.08094763092269326,-0.007770934105075515,
0.08099750623441397,0.019739861063013408,
0.08104738154613467,0.00214229278468753,
0.08109725685785536,0.0058527922178860485,
0.08114713216957606,-0.00601382915207716,
0.08119700748129675,-0.014196907342675175,
0.08124688279301745,0.0022976493458527333,
0.08129675810473816,-0.010647680272508819,
0.08134663341645886,0.0089485450857034,
0.08139650872817955,-0.004636052417991738,
0.08144638403990025,-0.015938593239991826,
0.08149625935162094,0.0009422077073255363,
0.08154613466334165,-0.00788737158789077,
0.08159600997506235,-0.004792783845512105,
0.08164588528678304,0.014944069874512144,
0.08169576059850374,0.01468701922415741,
0.08174563591022443,0.017321977155337495,
0.08179551122194513,0.003602731282647288,
0.08184538653366584,-0.01249542192832961,
0.08189526184538654,0.02693815085456798,
0.08194513715710723,0.0009359305514241908,
0.08199501246882793,-0.0007382236660188179,
0.08204488778054862,-0.01148038364141753,
0.08209476309226933,-0.010881942079713335,
0.08214463840399003,-0.019254244958659437,
0.08219451371571072,-0.017483214716684473,
0.08224438902743142,-0.02552668181057664,
0.08229426433915212,0.003453602813676039,
0.08234413965087282,-0.018691879096625515,
0.08239401496259352,0.008689149679098073,
0.08244389027431422,-0.006047015293512193,
0.08249376558603491,-0.0074738691275214215,
0.08254364089775561,-0.021185148622990153,
0.0825935162094763,0.012104559179181972,
0.08264339152119701,-0.004270024633497041,
0.08269326683291771,-0.02534080868505892,
0.0827431421446384,-0.017712931385312367,
0.0827930174563591,0.0014456068001796416,
0.0828428927680798,-0.0017550720785768463,
0.0828927680798005,-0.010329051407585896,
0.0829426433915212,-0.000635549463745215,
0.0829925187032419,0.009849718961125816,
0.08304239401496259,-0.00831955910684477,
0.08309226932668329,-0.026155595235336955,
0.08314214463840398,-0.010329891714659561,
0.0831920199501247,-0.02971938132757628,
0.08324189526184539,0.0023790773649103366,
0.08329177057356608,-0.003443338367476961,
0.08334164588528678,-0.00579583180118879,
0.08339152119700748,-0.019068781700575133,
0.08344139650872819,-0.008729495956075695,
0.08349127182044888,-0.005753441748385576,
0.08354114713216958,0.008698393764224262,
0.08359102244389027,-0.03264738519575486,
0.08364089775561097,0.000603239622331702,
0.08369077306733166,-0.00415840132606074,
0.08374064837905237,-0.04637858365200871,
0.08379052369077307,-0.023490428302925227,
0.08384039900249377,-0.0033406454330259863,
0.08389027431421446,-0.006415117329781811,
0.08394014962593516,-0.016364136762392963,
0.08399002493765587,-0.04199331362302937,
0.08403990024937656,-0.018673396268278325,
0.08408977556109726,-0.006478938157700072,
0.08413965087281795,-0.007941453943314775,
0.08418952618453865,-0.02235982378435796,
0.08423940149625936,-0.013138942629112632,
0.08428927680798005,-0.020896772450783713,
0.08433915211970075,-0.016043729348295614,
0.08438902743142145,-0.007298235539257233,
0.08443890274314214,-0.014984666851603642,
0.08448877805486284,-0.03519546518894248,
0.08453865336658355,0.0008739938309792281,
0.08458852867830424,-0.01268559114456566,
0.08463840399002494,-0.014822241842318222,
0.08468827930174563,-0.025567531695174547,
0.08473815461346633,-0.056186286245726774,
0.08478802992518704,-0.0369538038362177,
0.08483790523690773,0.018743665540843266,
0.08488778054862843,-0.006638225297426718,
0.08493765586034913,-0.031168984390947896,
0.08498753117206982,-0.03361762463553457,
0.08503740648379052,0.01420545623253832,
0.08508728179551123,-0.021695571944649182,
0.08513715710723192,-0.003807586231568485,
0.08518703241895262,-0.033096654676134804,
0.08523690773067331,-0.021598727116700498,
0.08528678304239401,0.010562653813242355,
0.08533665835411472,-0.027144718070467585,
0.08538653366583542,-0.0028198237512667822,
0.08543640897755611,-0.02113749175966962,
0.0854862842892768,-0.0006937924546597998,
0.0855361596009975,-0.003951896782381137,
0.0855860349127182,-0.004330526110584569,
0.08563591022443891,-0.0023962571949359395,
0.0856857855361596,-0.009098271218172397,
0.0857356608478803,-0.0402835169939242,
0.085785536159601,-0.017163603216558174,
0.08583541147132169,-0.01339285621614772,
0.0858852867830424,-0.011485144299680061,
0.0859351620947631,-0.015040481099715345,
0.08598503740648379,-0.017093762378607803,
0.08603491271820449,0.0016466577527754038,
0.08608478802992518,-0.007169983844249484,
0.08613466334164588,-0.02128861851425711,
0.08618453865336659,-0.02853646496915629,
0.08623441396508728,-0.028065855755609045,
0.08628428927680798,-0.004493815937645517,
0.08633416458852868,0.00877453217831453,
0.08638403990024937,0.009555741008387355,
0.08643391521197008,0.002233997593521284,
0.08648379052369078,-0.025960521087814964,
0.08653366583541147,0.005487252221090571,
0.08658354114713217,0.02259478223394024,
0.08663341645885286,-0.02043635088438179,
0.08668329177057357,-0.010503602361404137,
0.08673316708229427,-0.009518061044409784,
0.08678304239401496,-0.008891984706778858,
0.08683291770573566,-0.02410247393271952,
0.08688279301745636,0.011829939785214343,
0.08693266832917705,-0.020223063628941874,
0.08698254364089776,-0.012618131987411994,
0.08703241895261846,-0.009837548646267782,
0.08708229426433915,-0.009159460421832086,
0.08713216957605985,-0.005077433202993451,
0.08718204488778054,0.012065170435262229,
0.08723192019950125,-0.025297127077153654,
0.08728179551122195,-0.007567164623878302,
0.08733167082294264,0.02247674452317124,
0.08738154613466334,-0.009184757253839791,
0.08743142144638404,0.00530586297282812,
0.08748129675810473,-0.001998678361029166,
0.08753117206982544,0.009863220581333534,
0.08758104738154614,-1.9609008295069785e-07,
0.08763092269326683,-0.01575212440848494,
0.08768079800498753,-0.004790130133375424,
0.08773067331670822,-0.013346850688873977,
0.08778054862842893,-0.026337269144408558,
0.08783042394014963,-0.018279524712540955,
0.08788029925187033,0.008812521024321063,
0.08793017456359102,-0.00836233570521879,
0.08798004987531172,-0.02251797220696479,
0.08802992518703241,-0.004884711549302857,
0.08807980049875312,0.0023694453917333467,
0.08812967581047382,0.0015446419139490287,
0.08817955112219451,0.022375234420480186,
0.08822942643391521,-0.010170371362262069,
0.0882793017456359,-0.004161605577697227,
0.08832917705735661,0.010368132636827478,
0.08837905236907731,-0.01152286842373013,
0.088428927680798,-7.002127152431472e-05,
0.0884788029925187,-0.014185921783355582,
0.0885286783042394,-0.009026993215136923,
0.0885785536159601,0.011176220350527961,
0.0886284289276808,-0.0036906413947966317,
0.0886783042394015,-0.0037998761448410643,
0.0887281795511222,0.0027487478020350098,
0.08877805486284289,-0.009240300804936418,
0.08882793017456359,-0.013236213749072741,
0.0888778054862843,-0.027897433896180785,
0.08892768079800499,-0.010051046888156303,
0.08897755610972569,-0.02581278881816257,
0.08902743142144638,-0.009684533942563661,
0.08907730673316708,-0.0010616717329122631,
0.08912718204488779,0.009569782507281915,
0.08917705735660848,0.0008696271414789143,
0.08922693266832918,0.01680671904970444,
0.08927680798004987,-0.003733097081119118,
0.08932668329177057,0.0011553740147510825,
0.08937655860349127,0.010119121860320036,
0.08942643391521198,-0.019076211919858428,
0.08947630922693267,-0.00020238614836348874,
0.08952618453865337,-0.015644263671851646,
0.08957605985037406,-0.020150922206024137,
0.08962593516209476,0.01974536695252732,
0.08967581047381547,-0.005980166968507814,
0.08972568578553616,0.0003755780205828684,
0.08977556109725686,0.011041263132976797,
0.08982543640897755,0.00943108160470323,
0.08987531172069825,-0.02286994575599649,
0.08992518703241895,0.015943117856032137,
0.08997506234413966,0.03685403686689372,
0.09002493765586035,0.0004411269531413662,
0.09007481296758105,0.006169451453493022,
0.09012468827930174,0.00449209267453006,
0.09017456359102244,0.03220512606835995,
0.09022443890274315,0.005346422788950668,
0.09027431421446384,0.02874275990266996,
0.09032418952618454,-0.016682646301928797,
0.09037406483790524,0.012486535580815639,
0.09042394014962593,-0.00583756313477771,
0.09047381546134663,0.012957637671882802,
0.09052369077306734,0.0263239609839235,
0.09057356608478803,0.014006159364248918,
0.09062344139650873,-0.0023782273453893978,
0.09067331670822942,-0.012500237088475611,
0.09072319201995012,0.022405918480554614,
0.09077306733167083,0.026196210013355262,
0.09082294264339152,0.028753346557612375,
0.09087281795511222,0.013539129452294189,
0.09092269326683292,0.008406690951093854,
0.09097256857855361,-0.0006331744037703368,
0.09102244389027432,0.017676536878536323,
0.09107231920199502,0.015192323948057354,
0.09112219451371571,0.02708973171918283,
0.09117206982543641,0.010704870337934387,
0.0912219451371571,0.019956135924172537,
0.0912718204488778,0.02025487818310281,
0.09132169576059851,0.012594893576955991,
0.0913715710723192,0.02468935731027324,
0.0914214463840399,0.022706787931356123,
0.0914713216957606,0.017057759880083175,
0.09152119700748129,0.01157559081027922,
0.091571072319202,0.010042241146706099,
0.0916209476309227,0.03527749386157173,
0.09167082294264339,0.0060639801710751645,
0.09172069825436409,0.002687860317046287,
0.09177057356608478,0.025172863965107956,
0.09182044887780548,0.012918196453563915,
0.09187032418952619,0.012510246895969423,
0.09192019950124689,0.026355429902541756,
0.09197007481296758,0.022207962151732128,
0.09201995012468828,-0.008802019386424314,
0.09206982543640897,0.0105375408538166,
0.09211970074812968,0.001857767576054662,
0.09216957605985038,0.0296235146693775,
0.09221945137157107,0.048545458638891315,
0.09226932668329177,0.0235539934590725,
0.09231920199501246,0.014900624040871729,
0.09236907730673316,0.005579810697824889,
0.09241895261845387,0.012647333924482066,
0.09246882793017457,0.024519357380083505,
0.09251870324189526,0.020208449030564676,
0.09256857855361596,0.036400508018495065,
0.09261845386533665,0.024165905383604108,
0.09266832917705736,0.023097351447043054,
0.09271820448877806,0.018591407148797902,
0.09276807980049875,0.03202862535644787,
0.09281795511221945,0.0368002362057281,
0.09286783042394015,0.006155328382231342,
0.09291770573566084,0.017286308151054905,
0.09296758104738155,0.017654361289743806,
0.09301745635910225,0.03150730842209984,
0.09306733167082294,0.024748262891408232,
0.09311720698254364,0.013350338452482693,
0.09316708229426433,0.0381625686994303,
0.09321695760598504,0.03719722740209386,
0.09326683291770574,0.027938696600739374,
0.09331670822942643,0.035487611355738406,
0.09336658354114713,0.038201451861162763,
0.09341645885286783,0.0184193915080485,
0.09346633416458854,0.03234124174724269,
0.09351620947630923,0.009544185000259157,
0.09356608478802993,0.019076034228545955,
0.09361596009975062,0.03824958305462086,
0.09366583541147132,0.05832080510432242,
0.09371571072319201,0.0312674092631979,
0.09376558603491272,0.03658354561014665,
0.09381546134663342,0.03759031620556444,
0.09386533665835411,0.02212684812049961,
0.09391521197007481,0.04192435002446515,
0.0939650872817955,0.031188596385617058,
0.09401496259351622,-0.009835918794265971,
0.09406483790523691,0.02752724363575778,
0.09411471321695761,0.027833409078595883,
0.0941645885286783,0.03324210351125349,
0.094214463840399,0.02754748908795542,
0.0942643391521197,0.023987382640720485,
0.0943142144638404,0.038284761029091466,
0.0943640897755611,0.049645936483865505,
0.0944139650872818,0.023056754878785078,
0.09446384039900249,0.01314385952346928,
0.09451371571072319,0.022433329206956065,
0.0945635910224439,0.01583345324842929,
0.09461346633416459,0.010370132873335977,
0.09466334164588529,0.04612185132764035,
0.09471321695760598,0.03735419718673258,
0.09476309226932668,0.054461990720723025,
0.09481296758104737,0.02799071053387274,
0.09486284289276808,0.022926981869716687,
0.09491271820448878,0.04559820153542212,
0.09496259351620948,0.0385167907624131,
0.09501246882793017,0.04051017628562133,
0.09506234413965087,0.04976550168965052,
0.09511221945137158,0.03374659651114837,
0.09516209476309227,0.024482396937810777,
0.09521197007481297,0.027711746169424446,
0.09526184538653366,0.04161124247497583,
0.09531172069825436,0.046823098828223164,
0.09536159600997507,0.042877702054537045,
0.09541147132169576,0.045435630289090784,
0.09546134663341646,0.008511612886259998,
0.09551122194513716,0.023488128214175442,
0.09556109725685785,0.014527797416685797,
0.09561097256857855,0.02233917671889929,
0.09566084788029926,0.02074214724203385,
0.09571072319201995,0.03870654178267571,
0.09576059850374065,0.017690934672327078,
0.09581047381546134,0.0015488523406928974,
0.09586034912718204,0.035316354783946825,
0.09591022443890275,0.031555253581494906,
0.09596009975062345,0.030819842543554004,
0.09600997506234414,0.030918419158958568,
0.09605985037406484,-0.004526064372018079,
0.09610972568578553,0.031106825116637156,
0.09615960099750623,0.03060476030330859,
0.09620947630922694,0.04887318108995313,
0.09625935162094763,0.013279992440034836,
0.09630922693266833,0.03234023994887782,
0.09635910224438902,0.053668731464987865,
0.09640897755610972,0.013704035260193717,
0.09645885286783043,0.01237009311515567,
0.09650872817955113,0.06397543805007538,
0.09655860349127182,0.024074208177067916,
0.09660847880299252,0.02592387834354193,
0.09665835411471321,0.020830568725387463,
0.09670822942643391,0.03611172580797167,
0.09675810473815462,0.017912633648403165,
0.09680798004987531,0.04233909870507089,
0.09685785536159601,0.010070608991897911,
0.0969077306733167,0.06567477368401557,
0.0969576059850374,0.032811783694844485,
0.09700748129675811,-0.0005336414203022319,
0.0970573566084788,0.025015014296772133,
0.0971072319201995,0.027191825253460367,
0.0971571072319202,0.03189464717867289,
0.0972069825436409,0.0036661710213559823,
0.09725685785536159,0.020179805797399294,
0.0973067331670823,0.020163940323017524,
0.097356608478803,0.02602853872340114,
0.09740648379052369,0.026475631127086386,
0.09745635910224439,0.03509888213004612,
0.09750623441396508,0.033109796639099645,
0.09755610972568579,0.013857922146494932,
0.09760598503740649,0.023151615412206894,
0.09765586034912718,0.025931935161427416,
0.09770573566084788,0.028237249565443698,
0.09775561097256857,0.008511973686203496,
0.09780548628428928,0.003852944211533326,
0.09785536159600998,0.013004703609017242,
0.09790523690773068,0.01867064572828492,
0.09795511221945137,0.04016246999637266,
0.09800498753117207,0.013178361040223314,
0.09805486284289276,0.02016502237314069,
0.09810473815461347,0.05083934996864624,
0.09815461346633417,0.0402985806117178,
0.09820448877805486,0.013253576719139942,
0.09825436408977556,0.03801963329010098,
0.09830423940149625,0.025391338422350834,
0.09835411471321696,0.011647145072476578,
0.09840399002493766,0.030058634214089282,
0.09845386533665836,0.008075125307358298,
0.09850374064837905,-0.0035702442973383486,
0.09855361596009975,0.006174069275609461,
0.09860349127182044,0.03995948019080174,
0.09865336658354115,0.0220990682276341,
0.09870324189526185,0.02053066084248197,
0.09875311720698254,0.01610558241002861,
0.09880299251870324,0.026877786386565378,
0.09885286783042393,0.028484342438771085,
0.09890274314214464,0.004313073861881369,
0.09895261845386534,0.005334617751836047,
0.09900249376558604,-0.0009292563210412386,
0.09905236907730673,0.019230746890615824,
0.09910224438902743,0.01860208472367981,
0.09915211970074812,0.025676876201952706,
0.09920199501246883,0.03549063658991139,
0.09925187032418953,-0.008125069765323477,
0.09930174563591022,0.03168291804280996,
0.09935162094763092,0.026271360211209814,
0.09940149625935162,0.018387546346591517,
0.09945137157107233,0.010107785966760093,
0.09950124688279302,0.024906233713115733,
0.09955112219451372,0.008713137123215524,
0.09960099750623441,0.021924945630811127,
0.09965087281795511,0.023396081140806435,
0.0997007481296758,0.013299716426151933,
0.09975062344139651,0.004240998192374338,
0.09980049875311721,0.008210656735161236,
0.0998503740648379,0.02303306573753761,
0.0999002493765586,0.015066512782737542,
0.0999501246882793,0.026656939705681854,
0.1,0.0063600633629063335,
0.1000498753117207,0.011265529059747079,
0.1000997506234414,0.016665656079052085,
0.10014962593516209,0.007407121226964289,
0.10019950124688279,-0.014947080823161374,
0.1002493765586035,0.04620093667034074,
0.1002992518703242,-0.0016956928583117094,
0.10034912718204489,-0.002676315361026845,
0.10039900249376559,-0.002896604844895085,
0.10044887780548628,-0.009220895316346211,
0.10049875311720698,-0.004681974689551692,
0.10054862842892769,-0.013072987230478252,
0.10059850374064838,-0.008345427025815328,
0.10064837905236908,0.003166804514567835,
0.10069825436408977,-0.012236785317696598,
0.10074812967581047,0.006216574397999366,
0.10079800498753118,0.005694133756796424,
0.10084788029925187,0.013423994583958269,
0.10089775561097257,0.0024829640098036196,
0.10094763092269327,0.024366104621728824,
0.10099750623441396,-0.014006544340392155,
0.10104738154613466,0.022388789286720716,
0.10109725685785537,0.001913132127448455,
0.10114713216957606,-0.00398145576371466,
0.10119700748129676,0.012992651065654046,
0.10124688279301745,-0.01379250573102532,
0.10129675810473815,0.011446691128536197,
0.10134663341645886,-0.007791779311866655,
0.10139650872817955,0.00045713995342450044,
0.10144638403990025,-0.02313016520689689,
0.10149625935162095,0.016142141572597826,
0.10154613466334164,-0.015852452106173122,
0.10159600997506234,-0.018670011309617533,
0.10164588528678305,0.00516764065644524,
0.10169576059850374,-0.02090052170627138,
0.10174563591022444,0.015550922203794452,
0.10179551122194513,-0.014910140279005654,
0.10184538653366583,-0.009550846557267708,
0.10189526184538654,-0.0155584744166898,
0.10194513715710724,-0.022920907775560977,
0.10199501246882793,-0.010268453123715155,
0.10204488778054863,-0.013166789153152053,
0.10209476309226932,0.0012774119484991195,
0.10214463840399003,-0.014393253037647071,
0.10219451371571073,0.003812773039224949,
0.10224438902743142,-0.007829207464537259,
0.10229426433915212,-0.022830073645717194,
0.10234413965087281,0.004015622120090578,
0.10239401496259351,-0.01041232176322051,
0.10244389027431422,-0.012837407941971142,
0.10249376558603492,-0.006792869587212713,
0.10254364089775561,0.012037195146696033,
0.10259351620947631,0.014597300421834708,
0.102643391521197,0.00961262834897996,
0.10269326683291771,-0.013836095435550385,
0.10274314214463841,-0.004635021549378638,
0.1027930174563591,0.020256941701303294,
0.1028428927680798,-0.009802711575555303,
0.1028927680798005,-0.001501294041517105,
0.10294264339152119,-0.03597312607583027,
0.1029925187032419,0.003677971420675809,
0.1030423940149626,-0.0004000321638941949,
0.10309226932668329,-0.00609879475381139,
0.10314214463840399,0.0024874451909442114,
0.10319201995012468,-0.024024016848901365,
0.10324189526184539,-0.04309610158215325,
0.10329177057356609,-0.02319921391261005,
0.10334164588528678,0.011064290253154002,
0.10339152119700748,-0.014692136551852418,
0.10344139650872818,-0.06379026164352114,
0.10349127182044887,-0.0231414434358758,
0.10354114713216958,-0.008459330178708252,
0.10359102244389028,0.015900149331681886,
0.10364089775561097,-0.022181214147322263,
0.10369077306733167,-0.011816909049523724,
0.10374064837905236,0.0010452135202828287,
0.10379052369077307,0.003449402152040001,
0.10384039900249377,-0.013935398519230043,
0.10389027431421446,-0.023257886947862336,
0.10394014962593516,0.017336605350089563,
0.10399002493765586,-0.029081604516000545,
0.10403990024937655,-0.03363312297069661,
0.10408977556109726,-0.001673522854943996,
0.10413965087281796,-0.004583446190843768,
0.10418952618453865,-0.007948343034653407,
0.10423940149625935,-0.013108146806760593,
0.10428927680798004,-0.010128446800094322,
0.10433915211970075,-0.0070867956286058695,
0.10438902743142145,-0.020423398035703942,
0.10443890274314215,-0.02094030621890542,
0.10448877805486284,0.010754089812785089,
0.10453865336658354,0.009153437462309245,
0.10458852867830425,-0.02734997896705374,
0.10463840399002494,8.457407031026674e-05,
0.10468827930174564,-0.013489517954620629,
0.10473815461346633,-0.023929642955244256,
0.10478802992518703,0.005809875861694298,
0.10483790523690772,0.004504324445311717,
0.10488778054862843,0.0072770108200199204,
0.10493765586034913,-0.02685411888666097,
0.10498753117206983,-0.0021400363197064502,
0.10503740648379052,0.016880903432963695,
0.10508728179551122,-0.002298370540080171,
0.10513715710723193,0.009309017351829702,
0.10518703241895262,0.0018829231004453932,
0.10523690773067332,-0.0031612546402212637,
0.10528678304239401,5.656518874506272e-05,
0.10533665835411471,-0.03639361676999929,
0.1053865336658354,-0.02668497466106931,
0.10543640897755611,-0.00045514474881258593,
0.10548628428927681,-0.0030924076706391555,
0.1055361596009975,-0.015123233028888152,
0.1055860349127182,-0.027437160105136325,
0.1056359102244389,0.003630857499379367,
0.10568578553615961,-0.03860069747684806,
0.1057356608478803,-0.03046710651087078,
0.105785536159601,-0.04994994768708466,
0.1058354114713217,-0.01749311523439904,
0.10588528678304239,-0.016569150291251052,
0.10593516209476309,-0.016151130023537734,
0.1059850374064838,0.018939876287028427,
0.10603491271820449,-0.0082599658606247,
0.10608478802992519,-0.019943020035763204,
0.10613466334164588,-0.011588936052908077,
0.10618453865336658,-0.04030794724315034,
0.10623441396508729,-0.0026936889760776446,
0.10628428927680798,0.0002902718610269337,
0.10633416458852868,-0.022031485000604496,
0.10638403990024937,-0.005975374948030444,
0.10643391521197007,0.006389160775918286,
0.10648379052369077,-0.014814744399032933,
0.10653366583541148,0.007557518439284382,
0.10658354114713217,0.008132438082427992,
0.10663341645885287,0.008262434175169258,
0.10668329177057356,0.005922865976331775,
0.10673316708229426,-0.029767601191734952,
0.10678304239401497,-0.020122755829500905,
0.10683291770573566,-0.00883117361386655,
0.10688279301745636,-0.027900510379876585,
0.10693266832917706,-0.013289173234819977,
0.10698254364089775,-0.029233587939749582,
0.10703241895261846,0.0173931839287239,
0.10708229426433916,0.019093058899045154,
0.10713216957605985,-0.014560557684594189,
0.10718204488778055,0.016475412457806322,
0.10723192019950124,-0.021120792755338895,
0.10728179551122194,-0.0024332242481917817,
0.10733167082294265,-0.012724622956722925,
0.10738154613466334,0.010624453011217096,
0.10743142144638404,-0.00027212234178494114,
0.10748129675810474,-0.003833320682949379,
0.10753117206982543,0.041950646043965444,
0.10758104738154614,0.02223304222961049,
0.10763092269326684,-0.014047856020795425,
0.10768079800498753,-0.016707519342392195,
0.10773067331670823,-0.009400994999362106,
0.10778054862842892,0.018761362751845777,
0.10783042394014962,0.012578527665304037,
0.10788029925187033,-0.017808767331389905,
0.10793017456359102,-0.0011026071296861041,
0.10798004987531172,0.007077156775386565,
0.10802992518703242,0.007346852683081058,
0.10807980049875311,0.019442242037154493,
0.10812967581047382,0.022796473598888832,
0.10817955112219452,-0.013312168694746416,
0.10822942643391521,0.004381035074527738,
0.10827930174563591,0.009293586880198,
0.1083291770573566,-0.014075198523390186,
0.1083790523690773,-0.014659534061244619,
0.10842892768079801,-0.011514881417062538,
0.1084788029925187,0.012402998055894742,
0.1085286783042394,-0.04179943311723156,
0.1085785536159601,-0.020163787416559952,
0.10862842892768079,0.018227176189231118,
0.1086783042394015,-0.01555132331821744,
0.1087281795511222,0.029516557933913286,
0.1087780548628429,0.028175059259038647,
0.10882793017456359,-0.008428509611798769,
0.10887780548628428,0.020570734611133856,
0.108927680798005,0.003252345441679114,
0.10897755610972569,0.01322269326499892,
0.10902743142144639,0.01006634100031928,
0.10907730673316708,-0.005599490012652184,
0.10912718204488778,-0.010201598115128585,
0.10917705735660847,0.00025132287161702595,
0.10922693266832918,-0.005332042852947516,
0.10927680798004988,0.01253824412195938,
0.10932668329177057,0.01165732048054777,
0.10937655860349127,-0.011091477156388873,
0.10942643391521197,-0.021776850884054014,
0.10947630922693267,0.022400611358786425,
0.10952618453865337,0.019518295924221996,
0.10957605985037407,0.021772109287070754,
0.10962593516209476,9.921689229180995e-05,
0.10967581047381546,0.0067494952288902335,
0.10972568578553615,0.011355478312554727,
0.10977556109725686,0.015402759461403421,
0.10982543640897756,0.022842911117737234,
0.10987531172069825,0.004328173681370187,
0.10992518703241895,0.00944212556063106,
0.10997506234413965,0.014319093628553287,
0.11002493765586036,0.02001285151772931,
0.11007481296758105,-0.009694793970265013,
0.11012468827930175,0.002718657001157073,
0.11017456359102244,0.042308818783507576,
0.11022443890274314,0.006825540922672047,
0.11027431421446383,0.008997434080075252,
0.11032418952618454,-0.0029140781688834667,
0.11037406483790524,0.003521259630701521,
0.11042394014962593,0.02220523169340808,
0.11047381546134663,0.010481251822409476,
0.11052369077306733,0.02941854972959226,
0.11057356608478804,0.037075937870484556,
0.11062344139650873,0.021165766202298854,
0.11067331670822943,0.012526921782371787,
0.11072319201995012,0.04007731189561206,
0.11077306733167082,0.012052682331618695,
0.11082294264339151,0.03020108359272139,
0.11087281795511222,0.03555314110214701,
0.11092269326683292,0.01263030697963526,
0.11097256857855362,0.01031660704183715,
0.11102244389027431,0.022739386404488058,
0.111072319201995,0.05229596514953919,
0.11112219451371572,0.018131221194678693,
0.11117206982543641,0.01471140183090625,
0.11122194513715711,0.0044881665596400305,
0.1112718204488778,0.0297622914745887,
0.1113216957605985,0.021960381749045074,
0.11137157107231921,-0.004281328907095993,
0.1114214463840399,0.02708101485512388,
0.1114713216957606,0.022200015230325366,
0.1115211970074813,0.0091691183040754,
0.11157107231920199,0.027641420592649568,
0.11162094763092269,0.018507347419439314,
0.1116708229426434,0.016596753081625726,
0.11172069825436409,0.003888286385523602,
0.11177057356608479,-0.016149149030365968,
0.11182044887780548,0.043311777650850404,
0.11187032418952618,0.019212622019963023,
0.11192019950124689,0.018028276144337507,
0.11197007481296758,0.02387679658153209,
0.11201995012468828,0.02156098673957235,
0.11206982543640898,0.022997042900574336,
0.11211970074812967,0.027469149928956594,
0.11216957605985037,0.01759259780044479,
0.11221945137157108,0.009707686266265897,
0.11226932668329177,0.015521207525843479,
0.11231920199501247,0.03718354465376738,
0.11236907730673316,0.009922596703281716,
0.11241895261845386,0.011401876428236138,
0.11246882793017457,0.028768180647159386,
0.11251870324189527,-0.007685880647852243,
0.11256857855361596,0.02086918329926355,
0.11261845386533666,0.02415038274454144,
0.11266832917705735,0.017614367247111087,
0.11271820448877805,0.022793317578536372,
0.11276807980049876,0.02548360960866262,
0.11281795511221945,0.0181344286556866,
0.11286783042394015,0.02763875789207038,
0.11291770573566084,0.02371088219379324,
0.11296758104738154,0.05175567007596585,
0.11301745635910225,0.00898790514966619,
0.11306733167082295,0.038886024115392256,
0.11311720698254364,0.024305448273363915,
0.11316708229426434,0.028607782273426276,
0.11321695760598503,0.019919201598754106,
0.11326683291770574,0.022099054791806474,
0.11331670822942644,0.025233183308599475,
0.11336658354114713,0.03271615776407839,
0.11341645885286783,0.04048520867870864,
0.11346633416458853,0.0315237472004127,
0.11351620947630922,0.0316861480057591,
0.11356608478802993,-0.0002189402409747583,
0.11361596009975063,0.026561842642008743,
0.11366583541147132,0.049038116388011824,
0.11371571072319202,0.04439191655426694,
0.11376558603491271,0.015639590030699566,
0.11381546134663342,-0.009080705418906525,
0.11386533665835412,0.0025366012742782974,
0.11391521197007481,0.025728389902862477,
0.11396508728179551,0.03323991003387399,
0.1140149625935162,-0.0030247080730745127,
0.1140648379052369,0.007930065760933608,
0.11411471321695761,0.004509981441232297,
0.1141645885286783,0.026420565658310555,
0.114214463840399,0.04028942529479275,
0.1142643391521197,0.03150427454613648,
0.1143142144638404,0.05621133861688074,
0.1143640897755611,0.04284332227129667,
0.1144139650872818,0.042361287832219,
0.1144638403990025,0.049653827823006445,
0.11451371571072319,0.04990734431430158,
0.11456359102244389,0.025048322342850808,
0.11461346633416458,0.040645543954431165,
0.11466334164588529,0.0362263419089106,
0.11471321695760599,0.04227753421921651,
0.11476309226932668,0.05023798305033722,
0.11481296758104738,0.0019343377552307785,
0.11486284289276807,0.032993772360732664,
0.11491271820448878,0.03215397404279204,
0.11496259351620948,0.050106254906706796,
0.11501246882793018,0.014143228292714327,
0.11506234413965087,0.0225214339602313,
0.11511221945137157,0.04033748429322506,
0.11516209476309226,0.030818745646493232,
0.11521197007481297,0.021604155872829895,
0.11526184538653367,0.0349352030240443,
0.11531172069825436,0.038107116936071,
0.11536159600997506,0.03446735184431745,
0.11541147132169575,0.03449101139283429,
0.11546134663341646,0.0036172132653211862,
0.11551122194513716,0.04016150951706994,
0.11556109725685786,0.022456897241461028,
0.11561097256857855,0.023027403296460622,
0.11566084788029925,0.05391204518096647,
0.11571072319201996,0.03123651815182794,
0.11576059850374065,0.0339028050618504,
0.11581047381546135,0.050188882568149185,
0.11586034912718204,0.03515690389667338,
0.11591022443890274,0.044686891455468614,
0.11596009975062344,0.03561526710132952,
0.11600997506234415,0.02832297615916896,
0.11605985037406484,0.022026893645070284,
0.11610972568578554,0.03434507847958674,
0.11615960099750623,0.04992504511656354,
0.11620947630922693,0.04036932526147003,
0.11625935162094764,0.03344623034125739,
0.11630922693266833,0.03300001279834129,
0.11635910224438903,0.03415426125123438,
0.11640897755610972,0.010529315649514828,
0.11645885286783042,0.053858055577347894,
0.11650872817955112,0.005081125012825212,
0.11655860349127183,0.04172348253345455,
0.11660847880299252,0.016914449243385404,
0.11665835411471322,0.029967255251189987,
0.11670822942643391,-0.0032160082614760242,
0.11675810473815461,0.024192456090455113,
0.11680798004987532,0.004848183685181487,
0.11685785536159601,0.05956394632325695,
0.11690773067331671,0.01898795179091124,
0.1169576059850374,0.014333917804456649,
0.1170074812967581,0.0049714240022763825,
0.1170573566084788,0.05570653672475877,
0.1171072319201995,0.033205761439677524,
0.1171571072319202,0.0039528826116840415,
0.1172069825436409,0.04162528314460068,
0.1172568578553616,0.00422339490082459,
0.11730673316708229,0.013034014508740309,
0.117356608478803,0.03427300342686396,
0.1174064837905237,0.0283799036296986,
0.11745635910224439,0.013421789830379385,
0.11750623441396509,0.022601472657538365,
0.11755610972568578,0.036352094739832974,
0.11760598503740648,0.015288181256832076,
0.11765586034912719,0.026073697853089443,
0.11770573566084788,0.0052877839795753,
0.11775561097256858,0.02812308085135407,
0.11780548628428927,0.00551464688313196,
0.11785536159600997,0.009727873549486513,
0.11790523690773068,-0.008041726278375232,
0.11795511221945137,0.02542699777833034,
0.11800498753117207,0.027849085790126148,
0.11805486284289277,0.02334669610883094,
0.11810473815461346,0.014230714736852064,
0.11815461346633417,0.008318506107942564,
0.11820448877805487,0.02994093834016528,
0.11825436408977556,0.03317207015053523,
0.11830423940149626,0.0013722547815326995,
0.11835411471321695,0.037387905004153725,
0.11840399002493765,0.04223919770336696,
0.11845386533665836,0.00824511373452607,
0.11850374064837906,0.0176559463401776,
0.11855361596009975,0.023582233119740656,
0.11860349127182045,0.0004981340400548838,
0.11865336658354114,0.02988520896692727,
0.11870324189526185,0.007784879278337589,
0.11875311720698255,0.025575536943040468,
0.11880299251870324,0.018699245271847798,
0.11885286783042394,0.007887716541638834,
0.11890274314214463,0.0011839057379074477,
0.11895261845386533,0.012153063555073132,
0.11900249376558604,0.018178775544018567,
0.11905236907730674,0.011241634623724692,
0.11910224438902743,0.010249349537416588,
0.11915211970074813,0.023337863197359685,
0.11920199501246882,-0.0003156951249066193,
0.11925187032418953,-0.021395967201746233,
0.11930174563591023,0.012933271848068136,
0.11935162094763092,-0.0009718446087978519,
0.11940149625935162,0.012766089115350694,
0.11945137157107232,0.006697837219690336,
0.11950124688279301,0.023470488575922547,
0.11955112219451372,-0.020567382079557904,
0.11960099750623442,0.0212400809112629,
0.11965087281795511,0.034981827241460386,
0.11970074812967581,0.007483537859437401,
0.1197506234413965,0.0183431285572915,
0.11980049875311721,0.024538170324057973,
0.11985037406483791,0.001739019341561526,
0.1199002493765586,0.002621792331087204,
0.1199501246882793,0.039525445812722215,
0.12,-0.006760177373009166,
0.1200498753117207,0.006987733608956071,
0.1200997506234414,-0.0009233699462603351,
0.1201496259351621,-0.01765589067293926,
0.12019950124688279,-0.0078111887644844455,
0.12024937655860349,0.024742922807725404,
0.12029925187032418,-0.006638081236365946,
0.1203491271820449,0.030525112559093907,
0.12039900249376559,-0.02781482758041343,
0.12044887780548628,0.021301132754085794,
0.12049875311720698,0.0015695114808412362,
0.12054862842892768,-0.013880389352607839,
0.12059850374064839,-0.007724717723198048,
0.12064837905236908,-0.004404603082190723,
0.12069825436408978,-0.004023794233864288,
0.12074812967581047,-0.010180218186603793,
0.12079800498753117,0.001173796430687601,
0.12084788029925186,-0.02285802545193824,
0.12089775561097257,-0.007635418492439921,
0.12094763092269327,0.006985328516246591,
0.12099750623441397,0.010313773453033578,
0.12104738154613466,0.010494819027060738,
0.12109725685785536,0.00376554528786291,
0.12114713216957607,0.004852413143813506,
0.12119700748129676,0.006053837963896307,
0.12124688279301746,0.015657263422898762,
0.12129675810473815,-0.014666684146447501,
0.12134663341645885,-0.01440206674205809,
0.12139650872817954,0.015151124934311097,
0.12144638403990025,0.004198753908465397,
0.12149625935162095,0.007348866702493897,
0.12154613466334165,-0.006229582692029194,
0.12159600997506234,-0.024728740958875492,
0.12164588528678304,-0.024191932556996573,
0.12169576059850375,0.02581690339584823,
0.12174563591022444,0.004796201146611133,
0.12179551122194514,0.009388203032170991,
0.12184538653366583,-0.006844857846883688,
0.12189526184538653,-0.015365490735803178,
0.12194513715710723,-0.0056367298723678265,
0.12199501246882793,-0.0006519156331646118,
0.12204488778054863,0.004261554699789914,
0.12209476309226933,-0.01975474084717805,
0.12214463840399002,0.009601572022296674,
0.12219451371571072,-0.010793782431718878,
0.12224438902743143,0.01755497322024238,
0.12229426433915212,-0.006113308359939617,
0.12234413965087282,-0.004653854807964944,
0.12239401496259351,-0.00931002959425223,
0.12244389027431421,0.0023301354373233907,
0.12249376558603492,-0.011308143653769205,
0.12254364089775562,-0.015953006934336725,
0.12259351620947631,-0.01653415823049698,
0.122643391521197,-0.007483285476244073,
0.1226932668329177,-0.017893898740122552,
0.1227431421446384,-0.004460904026771387,
0.12279301745635911,0.017386093719270797,
0.1228428927680798,-0.008608360207759489,
0.1228927680798005,-0.0021304752583969667,
0.1229426433915212,-0.007015828230783747,
0.12299251870324189,0.01422991857445376,
0.1230423940149626,-0.012970947663636927,
0.1230922693266833,0.028036886291450687,
0.12314214463840399,0.004011197310855226,
0.12319201995012469,-0.0058168126673031045,
0.12324189526184538,0.007970550152860018,
0.12329177057356608,0.0014918024785388253,
0.12334164588528679,-0.031307520969255355,
0.12339152119700748,0.006523198639545794,
0.12344139650872818,-0.012830998594854127,
0.12349127182044888,0.015438683354108688,
0.12354114713216957,-0.000438871047782478,
0.12359102244389028,0.014081435202340611,
0.12364089775561098,-0.011505356569035867,
0.12369077306733167,-0.015142423714309232,
0.12374064837905237,0.007642227367909257,
0.12379052369077306,-0.029429939836957245,
0.12384039900249376,-0.012350193702429227,
0.12389027431421447,-0.027711745334631756,
0.12394014962593516,-0.01567051601875529,
0.12399002493765586,-0.018930151572420353,
0.12403990024937656,-0.007436187237037075,
0.12408977556109725,0.010454684056478121,
0.12413965087281796,-0.016778828677514422,
0.12418952618453866,-0.008563064398952394,
0.12423940149625935,-0.011393703746897299,
0.12428927680798005,-0.025040922962912982,
0.12433915211970074,-0.01720785303797998,
0.12438902743142144,0.0007016790207711732,
0.12443890274314215,0.025219404840925993,
0.12448877805486284,-0.02170055813118646,
0.12453865336658354,-0.007144859287487284,
0.12458852867830424,-0.049690243083853884,
0.12463840399002493,0.005289297252097385,
0.12468827930174564,-0.0036716045298420767,
0.12473815461346634,0.0071291256513144295,
0.12478802992518703,-0.014665089000522073,
0.12483790523690773,0.01718748041698815,
0.12488778054862842,0.004258900694689767,
0.12493765586034913,-0.01772439376449665,
0.12498753117206983,-0.02171412931397592,
0.12503740648379053,-0.01089374477630055,
0.12508728179551123,0.007198373102972456,
0.12513715710723192,-0.015353217947786718,
0.12518703241895263,0.0005822160564927653,
0.1252369077306733,-0.013970233541212964,
0.12528678304239402,-0.010849952658236206,
0.1253366583541147,-0.01584609282075474,
0.1253865336658354,0.004291969852699399,
0.12543640897755612,-0.0056870532448807486,
0.1254862842892768,-0.03206996827041856,
0.1255361596009975,-0.004317231480607497,
0.1255860349127182,-0.01243768533588358,
0.1256359102244389,-0.010698231306155315,
0.1256857855361596,-0.015470025217721717,
0.1257356608478803,0.0043119003762130265,
0.125785536159601,-0.023146548221813865,
0.12583541147132168,0.009540080324027148,
0.1258852867830424,-0.01507427989065678,
0.1259351620947631,0.004862553974752581,
0.12598503740648379,-0.011833627429535028,
0.1260349127182045,0.020591944960707247,
0.12608478802992518,-0.005074001956542239,
0.1261346633416459,-0.009903976927413861,
0.1261845386533666,-0.018850629663668704,
0.12623441396508728,0.003234700255404876,
0.126284289276808,0.01060694514222205,
0.12633416458852867,0.001862492630717815,
0.12638403990024938,0.010874575018521132,
0.1264339152119701,-0.019075802751807945,
0.12648379052369077,-0.02365887112223329,
0.12653366583541148,-0.02357112142507734,
0.12658354114713216,-0.011949182076533806,
0.12663341645885287,-0.008865874885185301,
0.12668329177057355,0.0008808985182821548,
0.12673316708229426,-0.011784702568922611,
0.12678304239401497,-0.017439284691583366,
0.12683291770573565,-0.0021024234923630626,
0.12688279301745636,-0.030321939929032433,
0.12693266832917705,-0.015532791519862053,
0.12698254364089775,-0.015315489606406725,
0.12703241895261846,-0.012583705640075306,
0.12708229426433915,0.00018082274112116246,
0.12713216957605986,-0.0007868465333934708,
0.12718204488778054,0.004080592800434324,
0.12723192019950125,-0.0002071870666099521,
0.12728179551122196,0.03221146199496287,
0.12733167082294264,0.004384479806343794,
0.12738154613466335,0.009300529126185886,
0.12743142144638403,0.00817895964225397,
0.12748129675810474,-0.00547494426702702,
0.12753117206982545,-0.007825524183453746,
0.12758104738154613,-0.0007706901450742955,
0.12763092269326684,-0.0211300743300383,
0.12768079800498752,-0.002336904880730575,
0.12773067331670823,0.003963458172602626,
0.1277805486284289,-0.014713141925211337,
0.12783042394014962,-0.011487366187432256,
0.12788029925187033,0.024696338111468378,
0.12793017456359101,0.005231767862543906,
0.12798004987531172,0.0028335059139098394,
0.1280299251870324,-0.034057756711547295,
0.12807980049875312,-0.0289123731629946,
0.12812967581047383,-0.007760814005508544,
0.1281795511221945,-0.019584831735365127,
0.12822942643391522,0.016674509704649385,
0.1282793017456359,-0.006243554733268708,
0.1283291770573566,0.0004112266632890873,
0.12837905236907732,-0.014621994033395742,
0.128428927680798,0.0070735397787068735,
0.1284788029925187,-0.01832058620193703,
0.1285286783042394,0.001962783364745588,
0.1285785536159601,0.026861681373639514,
0.1286284289276808,0.01713446941549534,
0.1286783042394015,0.031178493261058562,
0.1287281795511222,0.01738610671229884,
0.12877805486284288,-0.012020847369185343,
0.1288279301745636,0.0009304474312960844,
0.1288778054862843,0.018271225154632875,
0.12892768079800498,0.01284751314749895,
0.1289775561097257,-0.0015410774701695188,
0.12902743142144638,-0.02176890125902347,
0.12907730673316709,0.01741957228190956,
0.12912718204488777,0.020697635296778226,
0.12917705735660848,-0.00905479485557863,
0.1292269326683292,-0.01673521760565455,
0.12927680798004987,-0.0013569086261271237,
0.12932668329177058,0.01585397174729391,
0.12937655860349126,0.017354257441719877,
0.12942643391521197,0.024148233094247074,
0.12947630922693268,0.04185114856317142,
0.12952618453865336,0.0022211615369569938,
0.12957605985037407,-0.022351726249144256,
0.12962593516209475,0.019080985459653685,
0.12967581047381546,0.028685118263583935,
0.12972568578553617,0.014996348580660795,
0.12977556109725685,0.014853159277407341,
0.12982543640897756,-0.005047841365780634,
0.12987531172069824,-0.01373915210708567,
0.12992518703241895,-0.012046818846049306,
0.12997506234413966,-0.008863046267495095,
0.13002493765586035,-0.003638518622781471,
0.13007481296758105,0.017232138555401472,
0.13012468827930174,0.034391854909386524,
0.13017456359102245,0.004201072020928626,
0.13022443890274316,0.01518224322091162,
0.13027431421446384,0.027097082776625234,
0.13032418952618455,0.014895938576136785,
0.13037406483790523,0.027839103644939252,
0.13042394014962594,0.006312105472102688,
0.13047381546134662,0.041296334113246895,
0.13052369077306733,-0.004126874262134634,
0.13057356608478804,0.01846613844183809,
0.13062344139650872,0.02139402963780583,
0.13067331670822943,0.021873169539715236,
0.1307231920199501,0.016189344958506248,
0.13077306733167082,0.012589949890028164,
0.13082294264339153,-0.0018828509492967993,
0.13087281795511221,0.04234179671680363,
0.13092269326683292,0.005835786113877939,
0.1309725685785536,0.027173805385460794,
0.13102244389027431,0.019730258668791696,
0.13107231920199502,0.03297494440164731,
0.1311221945137157,0.014652899223199501,
0.13117206982543642,0.02553975966519719,
0.1312219451371571,0.022935865396224803,
0.1312718204488778,0.012115343387086537,
0.13132169576059852,0.01574014504073489,
0.1313715710723192,-0.003999176412264976,
0.1314214463840399,0.02264455106994541,
0.1314713216957606,0.0029965130810479003,
0.1315211970074813,0.025272622993956554,
0.13157107231920198,0.007059200043813062,
0.1316209476309227,0.010192251599958051,
0.1316708229426434,0.02789636896595776,
0.13172069825436408,0.008951470831444019,
0.1317705735660848,0.035437988194017916,
0.13182044887780547,0.033902512783904784,
0.13187032418952618,0.02675741069790209,
0.1319201995012469,0.041255685420153135,
0.13197007481296757,0.01476424662353833,
0.13201995012468828,0.020299221183481174,
0.13206982543640897,0.04484220770231348,
0.13211970074812968,0.014412766927292847,
0.13216957605985039,0.032032884037268575,
0.13221945137157107,0.015808454167860624,
0.13226932668329178,0.03301173888955548,
0.13231920199501246,0.03014066335726674,
0.13236907730673317,0.03149600707947436,
0.13241895261845388,0.029629117586680333,
0.13246882793017456,0.04313613463288209,
0.13251870324189527,0.037641751401375725,
0.13256857855361595,0.016650541092829478,
0.13261845386533666,0.042583906470598884,
0.13266832917705737,0.04637830829587937,
0.13271820448877805,0.03460588464314213,
0.13276807980049876,0.04099286641382342,
0.13281795511221944,0.028259254410074108,
0.13286783042394015,0.009751345750376072,
0.13291770573566083,0.04916393933680211,
0.13296758104738154,0.00847018445588641,
0.13301745635910225,0.04011698662764604,
0.13306733167082294,0.017240222972740034,
0.13311720698254365,0.014861570199063385,
0.13316708229426433,-0.005874658330100278,
0.13321695760598504,0.014115824944277355,
0.13326683291770575,0.030484206414887305,
0.13331670822942643,0.03554240763039431,
0.13336658354114714,0.03112705558729053,
0.13341645885286782,0.015782824867598015,
0.13346633416458853,0.028532701513704226,
0.13351620947630924,0.022181767497696913,
0.13356608478802992,0.01638775396614159,
0.13361596009975063,0.049174885738908825,
0.1336658354114713,-0.00012346213943185622,
0.13371571072319202,0.029852696232460525,
0.13376558603491273,0.009380159309319586,
0.1338154613466334,0.02615617854888619,
0.13386533665835412,0.02946714535573367,
0.1339152119700748,0.023012195907388983,
0.13396508728179551,0.011805926870298272,
0.1340149625935162,0.015722391044143094,
0.1340648379052369,0.029164272822999694,
0.13411471321695762,0.03816282921512539,
0.1341645885286783,0.025503337168388984,
0.134214463840399,0.023169181709757364,
0.1342643391521197,0.03680455052839848,
0.1343142144638404,0.011510374795635575,
0.1343640897755611,0.03951713784835639,
0.1344139650872818,0.03926697374541387,
0.1344638403990025,0.04795620896685558,
0.13451371571072318,0.04027628926240351,
0.1345635910224439,0.02917567648065256,
0.1346134663341646,0.049268449691345514,
0.13466334164588528,0.013395397721849202,
0.134713216957606,0.012112724806276617,
0.13476309226932667,-0.0005715982787615828,
0.13481296758104738,0.08299992225431482,
0.1348628428927681,0.03630433523325416,
0.13491271820448877,0.050173246907624286,
0.13496259351620948,0.020187254182214252,
0.13501246882793017,0.05042799556963885,
0.13506234413965088,0.03566697081016121,
0.13511221945137158,0.04383941372231391,
0.13516209476309227,0.025421461229287984,
0.13521197007481298,0.029736220610592674,
0.13526184538653366,0.04969978355956664,
0.13531172069825437,0.014245330575193033,
0.13536159600997505,0.05653635214126612,
0.13541147132169576,0.02203874517278239,
0.13546134663341647,0.061749638567645246,
0.13551122194513715,0.01594026642014761,
0.13556109725685786,0.028311492756435727,
0.13561097256857854,0.01291502214603472,
0.13566084788029925,0.027179474457451103,
0.13571072319201996,0.011105130206884313,
0.13576059850374064,0.04215619529369773,
0.13581047381546135,0.019024682152992023,
0.13586034912718203,0.06230375086188778,
0.13591022443890274,0.03529949209169902,
0.13596009975062345,0.02607526743463433,
0.13600997506234414,0.008227989402545741,
0.13605985037406484,0.033982692994201154,
0.13610972568578553,0.03759034933720194,
0.13615960099750624,0.020012807782357485,
0.13620947630922695,0.012593367144158162,
0.13625935162094763,0.026608546992390833,
0.13630922693266834,0.048915591726712476,
0.13635910224438902,0.02653025999926218,
0.13640897755610973,0.037596328731086676,
0.1364588528678304,0.03676317293601879,
0.13650872817955112,0.0179840091858798,
0.13655860349127183,0.046344844932234015,
0.1366084788029925,0.0321155371877772,
0.13665835411471322,0.03585353221928384,
0.1367082294264339,0.014847851056874826,
0.1367581047381546,0.03965881344961101,
0.13680798004987532,0.020496941721294043,
0.136857855361596,0.02418725073319005,
0.1369077306733167,0.022616841009903813,
0.1369576059850374,0.0464525504437384,
0.1370074812967581,0.0265406439769258,
0.13705735660847881,0.007403284207511896,
0.1371072319201995,0.03707830989766022,
0.1371571072319202,0.051761943257728135,
0.1372069825436409,0.014877573893779875,
0.1372568578553616,0.04363251008282876,
0.1373067331670823,0.022167200999172115,
0.137356608478803,0.03611250458695608,
0.1374064837905237,0.03529708776921814,
0.13745635910224438,0.01292896553022257,
0.1375062344139651,0.03675149459763174,
0.1375561097256858,0.05443867051101492,
0.13760598503740648,0.03090835464616982,
0.1376558603491272,0.014949895547452585,
0.13770573566084787,0.023105217858147314,
0.13775561097256858,0.012958397882705421,
0.13780548628428926,0.01664148516377239,
0.13785536159600997,0.02504711477332742,
0.13790523690773068,0.019604486515057647,
0.13795511221945136,0.01458866428064101,
0.13800498753117207,0.05087004462256469,
0.13805486284289276,0.01484896932129499,
0.13810473815461347,0.024955379387072235,
0.13815461346633418,0.016904321685456143,
0.13820448877805486,0.004543722876507481,
0.13825436408977557,0.03313873598895372,
0.13830423940149625,0.014426245631019475,
0.13835411471321696,0.006831851235789974,
0.13840399002493767,0.018936505921396528,
0.13845386533665835,0.000683427890678219,
0.13850374064837906,0.026139150132490366,
0.13855361596009974,-0.00020058293211775574,
0.13860349127182045,0.022899082984046283,
0.13865336658354116,0.023483790779634958,
0.13870324189526184,0.009192128910326162,
0.13875311720698255,0.013002380097056395,
0.13880299251870323,0.02126745589020662,
0.13885286783042394,-0.01580062665299777,
0.13890274314214462,0.003894029923697249,
0.13895261845386533,0.030904965263148065,
0.13900249376558604,0.018910877794160254,
0.13905236907730673,0.02676464909895588,
0.13910224438902744,0.023653592414528454,
0.13915211970074812,0.03882854674405443,
0.13920199501246883,0.01779052172372008,
0.13925187032418954,0.017497400486090543,
0.13930174563591022,0.03298474922839341,
0.13935162094763093,0.03407994654756652,
0.1394014962593516,-0.0002760729100057327,
0.13945137157107232,0.02696558132380514,
0.13950124688279303,0.0011007626522447564,
0.1395511221945137,0.02300208199595222,
0.13960099750623442,0.023836273899636704,
0.1396508728179551,0.0014777855223851166,
0.1397007481296758,0.010740975594716328,
0.13975062344139652,0.02356166607647074,
0.1398004987531172,-0.01599067063240582,
0.1398503740648379,0.0012333824712338296,
0.1399002493765586,0.0032719190662941202,
0.1399501246882793,0.008206389149217279,
0.14,0.012921022897150872,
0.1400498753117207,0.002855685349401331,
0.1400997506234414,0.023584393587768485,
0.1401496259351621,-0.001393620315873187,
0.1401995012468828,0.0281435977825919,
0.14024937655860348,0.031692073436292406,
0.1402992518703242,0.009368631079062672,
0.1403491271820449,0.01951245076284766,
0.14039900249376558,-0.0018618766565819834,
0.1404488778054863,0.023890928271039436,
0.14049875311720697,0.019284123052213078,
0.14054862842892768,0.010602219619983718,
0.1405985037406484,0.002501709517999494,
0.14064837905236907,0.01428441431995173,
0.14069825436408978,0.0158499331140441,
0.14074812967581046,0.013281719320677916,
0.14079800498753117,-0.002400449977674848,
0.14084788029925188,0.01210389780103448,
0.14089775561097256,0.004914401561240974,
0.14094763092269327,0.027702313019097348,
0.14099750623441396,8.067993250680415e-05,
0.14104738154613466,-0.01207609058691841,
0.14109725685785537,-0.006713305101725481,
0.14114713216957606,-0.002400730865128939,
0.14119700748129677,0.028158360220057767,
0.14124688279301745,0.017782631213025937,
0.14129675810473816,0.012157538295567953,
0.14134663341645887,-0.032345555897983436,
0.14139650872817955,0.02041813435375276,
0.14144638403990026,-0.012582828748716506,
