time,amplitude,label
0.0,0.01682700403983379,
4.987531172069826e-05,0.018007581158046904,
9.975062344139652e-05,0.026809088461422367,
0.00014962593516209475,0.01285131974750798,
0.00019950124688279303,0.03026960149565746,
0.00024937655860349125,0.007868348010638203,
0.0002992518703241895,0.04176762639290679,
0.00034912718204488776,-0.021368645664397584,
0.00039900249376558606,0.014417396227465162,
0.0004488778054862843,0.012832202641273148,
0.0004987531172069825,0.00898781203117286,
0.0005486284289276808,-0.0052682679190953294,
0.000598503740648379,0.025113248561816362,
0.0006483790523690773,-0.00924863271260145,
0.0006982543640897755,0.01227629780881437,
0.0007481296758104738,0.006462414293371984,
0.0007980049875311721,0.030595659739220515,
0.0008478802992518703,0.008238905697143252,
0.0008977556109725686,-0.0026071253454942114,
0.0009476309226932668,0.0037629257019517557,
0.000997506234413965,0.025024775707820038,
0.0010473815461346633,0.03181460386549071,
0.0010972568578553616,0.023295771545286878,
0.00114713216957606,0.03177799241338507,
0.001197007481296758,-0.00019643790280507618,
0.0012468827930174563,0.03512538476002044,
0.0012967581047381546,0.007330442438143815,
0.001346633416458853,0.007505842412454556,
0.001396508728179551,-0.0083005329882586,
0.0014463840399002493,0.012777693546465284,
0.0014962593516209476,0.010932673903211293,
0.001546134663341646,0.019648876331021286,
0.0015960099750623442,0.012793725752027457,
0.0016458852867830423,0.004261602846123515,
0.0016957605985037406,0.03763951319061904,
0.001745635910224439,0.014519636791571068,
0.0017955112219451373,-0.014197428127960526,
0.0018453865336658353,0.014064460268406572,
0.0018952618453865336,0.014860240007128921,
0.001945137157107232,0.002270180699351327,
0.00199501246882793,0.01145724001840851,
0.0020448877805486283,0.037659611827304096,
0.0020947630922693266,0.04664376503525003,
0.002144638403990025,0.020800703681892452,
0.0021945137157107233,0.011488724478352273,
0.0022443890274314216,0.011177494401017826,
0.00229426433915212,0.022958482612125918,
0.0023441396508728177,0.04468297357194765,
0.002394014962593516,0.0018648578975853352,
0.0024438902743142144,-0.0015440688667575642,
0.0024937655860349127,0.02296296638444683,
0.002543640897755611,0.0419981971324897,
0.0025935162094763093,-0.005077574069742696,
0.0026433915211970076,0.020332785204966723,
0.002693266832917706,0.023293472193829937,
0.002743142144638404,0.01384775588552662,
0.002793017456359102,0.041893538085906956,
0.0028428927680798004,-0.016743411126350534,
0.0028927680798004987,0.0037632471545442185,
0.002942643391521197,0.0453346602532154,
0.0029925187032418953,0.05232954925568667,
0.0030423940149625936,0.013113529902345203,
0.003092269326683292,0.023631946350822698,
0.00314214463840399,0.03229297851865619,
0.0031920199501246885,0.018227185737522626,
0.0032418952618453864,0.01094907764628675,
0.0032917705735660847,0.011246608018505211,
0.003341645885286783,0.005132071890659888,
0.0033915211970074813,0.06666651643348329,
0.0034413965087281796,0.026625492881767167,
0.003491271820448878,0.005905206917110582,
0.003541147132169576,0.03442539217382011,
0.0035910224438902745,0.012746681212193934,
0.0036408977556109724,0.02531612959992103,
0.0036907730673316707,0.025228224208849195,
0.003740648379052369,0.03090929366920283,
0.0037905236907730673,0.02905288557050919,
0.0038403990024937656,0.03609044154335443,
0.003890274314214464,0.02026185231061436,
0.003940149625935162,0.013176506747980578,
0.00399002493765586,0.03602936919618757,
0.004039900249376558,0.021629738338289614,
0.004089775561097257,0.007351979025296168,
0.004139650872817955,0.027350159479164395,
0.004189526184538653,0.030041581070793993,
0.004239401496259352,0.02177117121770446,
0.00428927680798005,0.018018278794313728,
0.004339152119700748,-0.004027976710441288,
0.0043890274314214465,0.03187347827890603,
0.004438902743142145,0.008233245859288035,
0.004488778054862843,-0.0006717848957531435,
0.004538653366583541,0.013608616314345368,
0.00458852867830424,0.016383749326881233,
0.004638403990024938,0.023438030171675485,
0.0046882793017456355,0.03673702479644526,
0.004738154613466334,0.03476200910780664,
0.004788029925187032,0.010836106517325047,
0.00483790523690773,0.022446168078113258,
0.004887780548628429,0.04699966028890906,
0.004937655860349127,0.00017411044822499694,
0.004987531172069825,0.013970254915674545,
0.005037406483790524,0.026637282989457563,
0.005087281795511222,0.009307737007026105,
0.00513715710723192,0.013393061739206971,
0.0051870324189526185,0.04749157594987913,
0.005236907730673317,0.033492037457577686,
0.005286783042394015,0.015626180791355172,
0.0053366583541147134,0.024543098431302705,
0.005386533665835412,0.011000436364263778,
0.00543640897755611,0.01948099582225801,
0.005486284289276808,0.031749733263190624,
0.005536159600997507,0.015076125838849886,
0.005586034912718204,0.024547811519143644,
0.005635910224438902,0.0038012630464675044,
0.005685785536159601,0.012811021665546507,
0.005735660847880299,-0.009597903920912556,
0.005785536159600997,0.040012748335152185,
0.005835411471321696,-0.010987368177363156,
0.005885286783042394,0.005640384531819177,
0.005935162094763092,0.011381345627558076,
0.0059850374064837905,0.01799674124157858,
0.006034912718204489,-5.416101190249337e-05,
0.006084788029925187,0.010773103932894117,
0.0061346633416458855,-0.002700899349694485,
0.006184538653366584,0.01597185842817091,
0.006234413965087282,0.023259538710214932,
0.00628428927680798,0.026166820500611643,
0.006334164588528679,-0.0018864620831558453,
0.006384039900249377,0.028494143057604678,
0.006433915211970074,0.020926621420464607,
0.006483790523690773,0.009536680588646772,
0.006533665835411471,-0.01175874469339621,
0.006583541147132169,0.009151110920183135,
0.006633416458852868,0.0005072563996236824,
0.006683291770573566,0.008348745032757132,
0.006733167082294264,0.01599388500915439,
0.0067830423940149626,0.006042534785852552,
0.006832917705735661,0.03534248452876869,
0.006882793017456359,0.04412255469940525,
0.0069326683291770575,0.029881861932586545,
0.006982543640897756,0.02136073885096207,
0.007032418952618454,0.017749752385712442,
0.007082294264339152,0.03650968656277479,
0.007132169576059851,0.0048798278855429495,
0.007182044887780549,-0.016450652893242955,
0.007231920199501247,0.03660479846580314,
0.007281795511221945,0.028642879860855612,
0.007331670822942643,-0.001459346556401694,
0.007381546134663341,-0.02629840260741865,
0.00743142144638404,0.011834100741518715,
0.007481296758104738,0.03378889092996442,
0.007531172069825436,0.0128904224662033,
0.007581047381546135,0.026581861062206585,
0.007630922693266833,0.03635729920672016,
0.007680798004987531,-0.02788627581272493,
0.0077306733167082295,0.006898506472565884,
0.007780548628428928,0.021739977456153824,
0.007830423940149626,0.020561712977243338,
0.007880299251870324,0.03567560940692063,
0.007930174563591023,0.024581021799465266,
0.00798004987531172,0.02207383696513076,
0.00802992518703242,0.01843727624902497,
0.008079800498753117,0.0172472754009803,
0.008129675810473816,0.05501680028958242,
0.008179551122194513,0.01047318715976233,
0.008229426433915213,0.019286266745309727,
0.00827930174563591,-0.006872667133440026,
0.00832917705735661,0.009649416358671909,
0.008379052369077307,0.020255303965836382,
0.008428927680798006,0.035037778492656595,
0.008478802992518703,0.003942876079789492,
0.0085286783042394,0.01245716429539825,
0.0085785536159601,-0.006768034483588681,
0.008628428927680797,-0.012594634931113208,
0.008678304239401496,0.021973010888229443,
0.008728179551122194,0.01397336237064944,
0.008778054862842893,-0.005836948138344532,
0.00882793017456359,0.0014661165918353311,
0.00887780548628429,0.03549005888939846,
0.008927680798004987,0.026918146542161306,
0.008977556109725686,-0.004999942636057746,
0.009027431421446384,-0.011084258787332012,
0.009077306733167083,-0.0010484831955823574,
0.00912718204488778,-0.014884297281753688,
0.00917705735660848,-0.021091758785223638,
0.009226932668329177,0.03363754206542224,
0.009276807980049876,0.006876333881723347,
0.009326683291770574,0.02251985848098623,
0.009376558603491271,0.0019432921996966695,
0.00942643391521197,0.0013947682164745666,
0.009476309226932668,-0.006520391536402146,
0.009526184538653367,0.018598193786998344,
0.009576059850374064,-0.005973747751264828,
0.009625935162094763,-0.022636510509975994,
0.00967581047381546,-0.0072454309296543125,
0.00972568578553616,-0.0016547880375823985,
0.009775561097256857,0.004848327064776604,
0.009825436408977557,0.010477755225791495,
0.009875311720698254,-0.016506023887860592,
0.009925187032418953,-0.011157520540116057,
0.00997506234413965,-0.007143195212147734,
0.01002493765586035,-0.00640919567456606,
0.010074812967581047,0.013381451089346637,
0.010124688279301746,0.0023510616916679328,
0.010174563591022444,-0.03431309701206935,
0.010224438902743141,-0.017941982085292737,
0.01027431421446384,-0.02723298952941794,
0.010324189526184538,-0.01938632088747725,
0.010374064837905237,-0.012562985680463237,
0.010423940149625935,-0.010634078272231229,
0.010473815461346634,-0.0031515134432063135,
0.010523690773067331,-0.01587765462276932,
0.01057356608478803,-0.0010367431899507623,
0.010623441396508728,-0.02097619277887031,
0.010673316708229427,-0.00976005312213516,
0.010723192019950124,-0.026942582519064326,
0.010773067331670824,-0.015828797224229616,
0.010822942643391521,-0.013747531706303048,
0.01087281795511222,-0.024476895931164172,
0.010922693266832918,-0.005421264036971381,
0.010972568578553617,-0.009071617070038123,
0.011022443890274314,0.01202858795316506,
0.011072319201995013,-0.03308923345606396,
0.01112219451371571,0.021893445157202672,
0.011172069825436408,-0.041250278443122415,
0.011221945137157107,-0.022541889593777866,
0.011271820448877805,0.006120684856469919,
0.011321695760598504,-0.01323483706897113,
0.011371571072319201,-0.014324081360188902,
0.0114214463840399,-0.014195525665721836,
0.011471321695760598,-0.023151512251663488,
0.011521197007481297,-0.016599947662013302,
0.011571072319201995,-0.006374633894124343,
0.011620947630922694,-0.019398684280252834,
0.011670822942643391,-0.00553831591600165,
0.01172069825436409,-0.017563945852213953,
0.011770573566084788,-0.0017619212086127517,
0.011820448877805487,-0.017274493084337275,
0.011870324189526184,-0.006300419263725039,
0.011920199501246884,-0.022193564488643153,
0.011970074812967581,0.0077915071387442865,
0.012019950124688279,0.0030922340050924986,
0.012069825436408978,-0.02457437718544337,
0.012119700748129675,-0.006627908037490927,
0.012169576059850374,-0.03971503993594855,
0.012219451371571072,-0.007338880064737436,
0.012269326683291771,-0.02633131855213585,
0.012319201995012468,-0.02566704593129944,
0.012369077306733168,-0.013655661047442768,
0.012418952618453865,-0.015574380643792544,
0.012468827930174564,-0.002688236748931391,
0.012518703241895262,-0.024049623651921724,
0.01256857855361596,-0.016327207897421186,
0.012618453865336658,-0.026468261274181542,
0.012668329177057357,0.0013550338076248787,
0.012718204488778055,-0.018944654363102706,
0.012768079800498754,-0.0010792818846199863,
0.012817955112219451,-0.02284766545152833,
0.012867830423940149,-0.03146257976817265,
0.012917705735660848,0.009385068998291255,
0.012967581047381545,-0.008367718145871337,
0.013017456359102245,-0.01690494587596461,
0.013067331670822942,-0.012810418086087072,
0.013117206982543641,-0.00944606255864551,
0.013167082294264339,0.003616194288997062,
0.013216957605985038,0.006257660181482792,
0.013266832917705735,-0.011378472213137446,
0.013316708229426434,-0.02893857748532314,
0.013366583541147132,0.007557111633278997,
0.013416458852867831,-0.022252320625838446,
0.013466334164588529,-0.0013860287417587457,
0.013516209476309228,-0.030315281200136546,
0.013566084788029925,0.006804150210484701,
0.013615960099750624,0.0023648411937579362,
0.013665835411471322,-0.025615732143266193,
0.01371571072319202,-0.01414125707905985,
0.013765586034912718,-0.02671201611676029,
0.013815461346633416,-0.022406495151070915,
0.013865336658354115,-0.014702876859393381,
0.013915211970074812,0.0034376360468076385,
0.013965087281795512,-0.026469225394188157,
0.014014962593516209,-0.016307412799389902,
0.014064837905236908,0.003554723009187879,
0.014114713216957606,-0.021444238203884452,
0.014164588528678305,0.0001281564206624397,
0.014214463840399002,-0.011061457288777794,
0.014264339152119701,-0.02616456656759839,
0.014314214463840399,-0.03175668309431307,
0.014364089775561098,-0.0030047851521575707,
0.014413965087281795,-0.06307489693948015,
0.014463840399002495,0.007652824930989656,
0.014513715710723192,-0.0016124187762279855,
0.01456359102244389,0.0077340763500172785,
0.014613466334164589,-0.0413470122684326,
0.014663341645885286,-0.008592561735614969,
0.014713216957605985,-0.005340762879121887,
0.014763092269326683,-0.01491821579789326,
0.014812967581047382,-0.018721631973730373,
0.01486284289276808,-0.027246728918772885,
0.014912718204488778,-0.03950456363143004,
0.014962593516209476,0.009454737752706784,
0.015012468827930175,-0.010306315109061744,
0.015062344139650873,-0.02251585397375306,
0.015112219451371572,0.0007048877640673246,
0.01516209476309227,-0.013308188370578688,
0.015211970074812968,-0.024932683646050023,
0.015261845386533666,-0.0017400655927203787,
0.015311720698254365,-0.006614723371391545,
0.015361596009975062,-0.008438707979631394,
0.01541147132169576,0.026154969831790765,
0.015461346633416459,-0.0056097677923748635,
0.015511221945137156,-0.020421606401600925,
0.015561097256857856,-0.013042229801950321,
0.015610972568578553,-0.01297174463062976,
0.015660847880299252,-0.020424923469681288,
0.01571072319201995,-0.034956870026577,
0.015760598503740647,-0.011678566055254937,
0.015810473815461346,-0.02538415916913576,
0.015860349127182045,-0.04573382019393461,
0.015910224438902745,-0.016099716958551367,
0.01596009975062344,-0.004181971650890182,
0.01600997506234414,-0.03592580911866385,
0.01605985037406484,-0.027684156974304243,
0.016109725685785538,-0.0076883418579738036,
0.016159600997506234,-0.027952046202330653,
0.016209476309226933,-0.024934879130136575,
0.016259351620947632,-0.011259693477663264,
0.016309226932668328,-0.015856671448074518,
0.016359102244389027,0.003227468858294261,
0.016408977556109726,-0.0028553178116777524,
0.016458852867830425,-0.018368303356679293,
0.01650872817955112,-0.007631412613498205,
0.01655860349127182,-0.0072439848301563805,
0.01660847880299252,-0.022332915536636654,
0.01665835411471322,-0.00765635964686142,
0.016708229426433914,-0.013951886280770518,
0.016758104738154613,-0.009281266774659395,
0.016807980049875312,-0.02876164085647783,
0.01685785536159601,-0.025094864665183705,
0.016907730673316707,-0.021772881871403756,
0.016957605985037406,-0.018272487440478463,
0.017007481296758106,-0.011329421463057052,
0.0170573566084788,0.010415836480245163,
0.0171072319201995,-0.011428889851742847,
0.0171571072319202,-0.023022836780850393,
0.0172069825436409,-0.014610345667276897,
0.017256857855361595,0.010309446012501028,
0.017306733167082294,-0.0299707486160116,
0.017356608478802993,-0.013650200003644863,
0.017406483790523692,-0.003813722049576654,
0.017456359102244388,-0.011226329475192707,
0.017506234413965087,-0.01791482589329897,
0.017556109725685786,-0.04048757708836284,
0.017605985037406485,0.01404204258707805,
0.01765586034912718,0.025448025213871166,
0.01770573566084788,-0.0003558374882824851,
0.01775561097256858,-0.005391327939024389,
0.01780548628428928,-0.0016222117691982426,
0.017855361596009974,0.01110464600328907,
0.017905236907730673,-0.014584313397612236,
0.017955112219451373,-0.03368621049273593,
0.018004987531172068,-0.006523601162870458,
0.018054862842892767,-0.009652920335182445,
0.018104738154613467,-0.039326776399429095,
0.018154613466334166,-0.013896204592282881,
0.01820448877805486,-0.01901166330197675,
0.01825436408977556,0.0027184734694425785,
0.01830423940149626,-0.016032503012017554,
0.01835411471321696,0.0006458269803590868,
0.018403990024937655,0.007238807409498419,
0.018453865336658354,0.01668200729329377,
0.018503740648379053,-0.02065682951237961,
0.018553615960099752,-0.0124749749120228,
0.018603491271820448,-0.02594529176769293,
0.018653366583541147,-0.0070663514646954455,
0.018703241895261846,0.008438689377242922,
0.018753117206982542,-0.03135129075380829,
0.01880299251870324,-0.03395185440350011,
0.01885286783042394,-0.021261504225947928,
0.01890274314214464,-0.008428464501233163,
0.018952618453865335,0.0006147178349457825,
0.019002493765586034,0.014383104196925612,
0.019052369077306733,0.014891113292846746,
0.019102244389027433,-0.018950735257989754,
0.01915211970074813,0.026835976583987873,
0.019201995012468828,-0.014341865889454984,
0.019251870324189527,-0.014454982584815701,
0.019301745635910226,0.009325816422009962,
0.01935162094763092,0.00010759741298856833,
0.01940149625935162,-0.009133582399212236,
0.01945137157107232,0.006321530027883743,
0.01950124688279302,0.005734346951977744,
0.019551122194513715,-0.005219660434241295,
0.019600997506234414,0.023992332905924913,
0.019650872817955113,-0.006097269247709175,
0.01970074812967581,0.024817528032393385,
0.019750623441396508,0.012509078924938515,
0.019800498753117207,-0.009569492578991222,
0.019850374064837906,0.008926718204944345,
0.019900249376558602,0.003671944863290824,
0.0199501246882793,-0.0002816629427434998,
0.02,0.005250944767383884,
0.0200498753117207,0.009509164377432922,
0.020099750623441395,-0.010840001215244314,
0.020149625935162094,0.03244269281986203,
0.020199501246882794,-0.00304641569254649,
0.020249376558603493,0.0202563037204752,
0.02029925187032419,0.006507886509736223,
0.020349127182044888,0.01956879355655061,
0.020399002493765587,0.02080838400444186,
0.020448877805486283,0.013824212226805625,
0.02049875311720698,-0.016576322694408487,
0.02054862842892768,-0.0005298164349626083,
0.02059850374064838,0.01146211706975277,
0.020648379052369076,0.0005224751585259195,
0.020698254364089775,0.029022340616061897,
0.020748129675810474,0.01714733022139889,
0.020798004987531173,0.0032615852103519364,
0.02084788029925187,0.007532377928020613,
0.020897755610972568,0.01240040758218568,
0.020947630922693267,0.02077633135781927,
0.020997506234413967,0.02686028860976877,
0.021047381546134662,0.005376027392584731,
0.02109725685785536,0.011989328145298484,
0.02114713216957606,0.003083731586671348,
0.02119700748129676,0.01949138090295924,
0.021246882793017455,0.015514368903376874,
0.021296758104738155,0.025371793863969788,
0.021346633416458854,-0.00022342740608609704,
0.02139650872817955,0.020009363335274807,
0.02144638403990025,-0.00019364450659691522,
0.021496259351620948,0.013051327884694515,
0.021546134663341647,0.02461780756960511,
0.021596009975062343,0.01662403128369332,
0.021645885286783042,-0.001689332656946995,
0.02169576059850374,0.012630653556327205,
0.02174563591022444,0.02662867403192274,
0.021795511221945136,0.005498154262378256,
0.021845386533665835,-0.00377802255459668,
0.021895261845386534,0.047845646288621826,
0.021945137157107233,0.00032676185904346663,
0.02199501246882793,0.04003770250559375,
0.02204488778054863,0.03498150851432685,
0.022094763092269327,0.019172445962494178,
0.022144638403990027,0.034023284928487205,
0.022194513715710722,0.021791038531420698,
0.02224438902743142,0.023565417379273975,
0.02229426433915212,-0.007315191348618844,
0.022344139650872816,0.03797851782804983,
0.022394014962593516,0.020697478879883872,
0.022443890274314215,0.04364730120521927,
0.022493765586034914,0.026625580322619673,
0.02254364089775561,0.03648268138174024,
0.02259351620947631,0.015087684462382144,
0.022643391521197008,0.03687356793115683,
0.022693266832917707,7.434269215171596e-06,
0.022743142144638403,0.003257027321316719,
0.022793017456359102,0.015136769743726814,
0.0228428927680798,0.030268638831969168,
0.0228927680798005,0.01978994940132968,
0.022942643391521196,0.01914590239808649,
0.022992518703241895,0.02055680465191626,
0.023042394014962594,0.028606869672932682,
0.02309226932668329,0.028375330739909197,
0.02314214463840399,0.0038048639912723475,
0.02319201995012469,0.04487392669952499,
0.023241895261845388,0.028705114512591334,
0.023291770573566083,0.023197760329846794,
0.023341645885286783,0.04510149066451094,
0.02339152119700748,0.029625459351788126,
0.02344139650872818,0.010275865865245018,
0.023491271820448877,0.04456947463299224,
0.023541147132169576,-0.016721297517653198,
0.023591022443890275,0.03167939672823825,
0.023640897755610974,0.01966279400576973,
0.02369077306733167,0.025207226280626677,
0.02374064837905237,0.034138565268651985,
0.023790523690773068,0.03333484919983063,
0.023840399002493767,0.00528419989777058,
0.023890274314214463,0.02216332365427473,
0.023940149625935162,0.014335716058902177,
0.02399002493765586,0.033724034774865415,
0.024039900249376557,0.0008350247238694368,
0.024089775561097256,0.02465604333876526,
0.024139650872817955,0.01668412768866565,
0.024189526184538655,0.03188780333047138,
0.02423940149625935,0.013557814095436426,
0.02428927680798005,0.02993843840009835,
0.02433915211970075,-0.0028193927132217807,
0.024389027431421448,0.0016938291976660094,
0.024438902743142144,0.03008097086359188,
0.024488778054862843,0.02954447101976432,
0.024538653366583542,0.024771248277138367,
0.02458852867830424,0.03460405640667384,
0.024638403990024937,0.018007635520347055,
0.024688279301745636,0.020197282987841778,
0.024738154613466335,0.009303902642439615,
0.02478802992518703,0.029813640810715754,
0.02483790523690773,0.02927885373288417,
0.02488778054862843,0.011587630158492901,
0.02493765586034913,0.017501946773550475,
0.024987531172069824,0.02664005923311356,
0.025037406483790523,0.01673511722120018,
0.025087281795511222,0.017311486864633418,
0.02513715710723192,0.023920064910771737,
0.025187032418952617,0.00854289952206048,
0.025236907730673316,0.023476487554158786,
0.025286783042394016,0.01926171951206211,
0.025336658354114715,-0.012176574147699234,
0.02538653366583541,0.028692253270603173,
0.02543640897755611,0.03317164461923514,
0.02548628428927681,0.014283830432087832,
0.025536159600997508,0.062258693578836274,
0.025586034912718204,-0.00432737819086533,
0.025635910224438903,-0.007836743269517422,
0.025685785536159602,0.028348938131688064,
0.025735660847880298,0.011382347430477691,
0.025785536159600997,-0.003523161879597326,
0.025835411471321696,0.029778356584662036,
0.025885286783042395,0.003003800314906397,
0.02593516209476309,0.03916267704546453,
0.02598503740648379,0.010086637255276334,
0.02603491271820449,-0.00013547737581290006,
0.02608478802992519,0.01620863757373911,
0.026134663341645884,0.015524677312443544,
0.026184538653366583,0.00881576518371277,
0.026234413965087282,-0.004373359461404481,
0.02628428927680798,0.02616099441030459,
0.026334164588528677,0.03092404740616913,
0.026384039900249377,0.006991145252078616,
0.026433915211970076,-0.0035116541545802717,
0.02648379052369077,0.02444586632294139,
0.02653366583541147,0.02248152456568897,
0.02658354114713217,0.01804331999790607,
0.02663341645885287,0.024399150387128515,
0.026683291770573565,0.0074903967911464035,
0.026733167082294264,0.0156530929553832,
0.026783042394014963,-0.0064401613780848375,
0.026832917705735662,0.0017822800136036154,
0.026882793017456358,0.01587159232042651,
0.026932668329177057,-0.002079717183529282,
0.026982543640897756,-0.021268731797181667,
0.027032418952618455,0.033377181196484335,
0.02708229426433915,0.0038560555334107675,
0.02713216957605985,0.035388451089769776,
0.02718204488778055,-0.002562860114196817,
0.02723192019950125,0.03269655708721149,
0.027281795511221944,0.030614426318210857,
0.027331670822942643,0.01017917830567884,
0.027381546134663343,0.01788478188650626,
0.02743142144638404,0.038064942653190534,
0.027481296758104738,0.010586978398737679,
0.027531172069825437,0.025585532790852593,
0.027581047381546136,-0.004060237652690446,
0.02763092269326683,0.04594310768961239,
0.02768079800498753,0.03695094073756518,
0.02773067331670823,-0.008814598634604962,
0.02778054862842893,-0.002471015793500826,
0.027830423940149625,0.012648622662254527,
0.027880299251870324,-0.0030941833535626656,
0.027930174563591023,0.004476372415941651,
0.027980049875311722,0.007120565905079435,
0.028029925187032418,-0.014167721892929447,
0.028079800498753117,0.004437082790813122,
0.028129675810473816,0.030640599159168922,
0.028179551122194512,0.02177691123084986,
0.02822942643391521,0.026999279186957555,
0.02827930174563591,0.021901672076459655,
0.02832917705735661,-0.02585735657223686,
0.028379052369077305,0.009246003711832809,
0.028428927680798004,-0.010754187906827658,
0.028478802992518704,0.03099400180830958,
0.028528678304239403,0.010331414284460919,
0.0285785536159601,0.015639297436647364,
0.028628428927680798,-0.0035425202925060597,
0.028678304239401497,0.0005125970142593559,
0.028728179551122196,-0.0014703858763183975,
0.02877805486284289,0.017003064922204054,
0.02882793017456359,0.016479215782207745,
0.02887780548628429,0.02361205392218738,
0.02892768079800499,-0.010721844420103724,
0.028977556109725685,0.022801941206459862,
0.029027431421446384,-0.01551710592307889,
0.029077306733167083,0.0010845503539220099,
0.02912718204488778,0.016351983661702298,
0.029177057356608478,0.020060928024383765,
0.029226932668329177,-0.01927209370294547,
0.029276807980049877,-0.019284349367402566,
0.029326683291770572,0.016777969502435545,
0.02937655860349127,0.012789515139565206,
0.02942643391521197,0.006434433375250323,
0.02947630922693267,0.012733786660807002,
0.029526184538653365,0.0035642157037785935,
0.029576059850374065,-0.004164501566942346,
0.029625935162094764,0.025796685885592953,
0.029675810473815463,0.015323034159709705,
0.02972568578553616,0.0022859746867228163,
0.029775561097256858,-0.0059733515710136895,
0.029825436408977557,-0.022211833921910208,
0.029875311720698253,0.01737565025406531,
0.029925187032418952,-0.0025116134805655823,
0.02997506234413965,0.00043667183352280245,
0.03002493765586035,0.023355883181083382,
0.030074812967581046,-0.0022006635058658,
0.030124688279301745,-0.011160318705602437,
0.030174563591022444,0.006936083826976878,
0.030224438902743143,0.005568664754225555,
0.03027431421446384,0.014464129582772756,
0.03032418952618454,-0.001670889463599026,
0.030374064837905237,-0.006097331314173303,
0.030423940149625937,0.015874033464634126,
0.030473815461346632,-0.00029410377234022345,
0.03052369077306733,-0.005862485536853545,
0.03057356608478803,-0.00410760248075805,
0.03062344139650873,-0.03537868261848064,
0.030673316708229426,0.0021031954527631234,
0.030723192019950125,-0.0010780959380882315,
0.030773067331670824,-0.016241598899074405,
0.03082294264339152,-0.02091282451493956,
0.03087281795511222,-0.007804320156865531,
0.030922693266832918,-0.010659070660805181,
0.030972568578553617,0.000643709139243746,
0.031022443890274313,-0.019972793424137446,
0.031072319201995012,-0.038892148538480754,
0.03112219451371571,-0.032666953216039935,
0.03117206982543641,-0.004408331771788038,
0.031221945137157106,-0.0027567888962512005,
0.03127182044887781,-0.015715582607877136,
0.031321695760598504,-0.013835152915418182,
0.0313715710723192,-0.02108472247703219,
0.0314214463840399,0.0027872370539497905,
0.0314713216957606,0.011043651473382349,
0.031521197007481294,-0.013883792427336982,
0.031571072319202,-0.02778352151454273,
0.03162094763092269,0.0006916691786911129,
0.03167082294264339,-0.020740415317039768,
0.03172069825436409,-0.021683521430188674,
0.03177057356608479,-0.010365837208344511,
0.03182044887780549,-0.0020885700236934774,
0.031870324189526185,-0.018269791103586546,
0.03192019950124688,-0.005489513707895287,
0.03197007481296758,0.017211211115902375,
0.03201995012468828,-0.029078270178480976,
0.032069825436408975,-0.01278623948072818,
0.03211970074812968,-0.006499744620251942,
0.03216957605985037,-0.013193146666628483,
0.032219451371571076,-0.00904223725483135,
0.03226932668329177,0.002026085170975094,
0.03231920199501247,-0.02528621090080476,
0.03236907730673317,-0.009638181285029837,
0.032418952618453865,-0.02729439720614609,
0.03246882793017456,-0.029653139895514727,
0.032518703241895264,0.0010046751136006688,
0.03256857855361596,-0.010390134308037927,
0.032618453865336655,0.013433033303867121,
0.03266832917705736,-0.023632509439699568,
0.032718204488778053,-0.021150961341990314,
0.032768079800498756,-0.03964879248305579,
0.03281795511221945,-0.0011466839113166375,
0.03286783042394015,0.006289630475051381,
0.03291770573566085,-0.0393195620719501,
0.032967581047381546,-0.016937470981077517,
0.03301745635910224,-0.012863785137267499,
0.033067331670822944,-0.015006554938214433,
0.03311720698254364,-0.01917700923403514,
0.03316708229426434,-0.026197397688070827,
0.03321695760598504,-0.018034907111579936,
0.033266832917705734,-0.013005241777986011,
0.03331670822942644,-0.029191082869413534,
0.03336658354114713,-0.017470754896167527,
0.03341645885286783,-0.023814962249232127,
0.03346633416458853,-0.03947459230577881,
0.033516209476309226,-0.013929352563937247,
0.03356608478802992,-0.014074457481096349,
0.033615960099750625,-0.013754339888293247,
0.03366583541147132,-0.04871565848565675,
0.03371571072319202,-0.005482169553725316,
0.03376558603491272,-0.010852961390157758,
0.033815461346633414,-0.01582351799303397,
0.03386533665835412,-0.03289278328971454,
0.03391521197007481,0.010791397221215752,
0.03396508728179551,-0.02827302789346548,
0.03401496259351621,0.004986007020532035,
0.03406483790523691,-0.019556141133378217,
0.0341147132169576,-0.013168609417502645,
0.034164588528678305,-0.04600157601701914,
0.034214463840399,-0.05920734266575663,
0.034264339152119704,-0.03328843176316347,
0.0343142144638404,-0.02174969575778854,
0.034364089775561095,-0.022190196231105387,
0.0344139650872818,-0.031484949587475886,
0.03446384039900249,-0.017358337562551066,
0.03451371571072319,-0.015834769704203146,
0.03456359102244389,-0.02783693600832684,
0.03461346633416459,-0.008049113115685985,
0.03466334164588529,-0.012648328588577869,
0.034713216957605986,-0.014392539887460244,
0.03476309226932668,-0.009221539183236982,
0.034812967581047384,-0.007981392104239243,
0.03486284289276808,-0.014023624501993709,
0.034912718204488775,-0.011889283294784631,
0.03496259351620948,-0.04087859177388349,
0.035012468827930174,-0.015640596754065497,
0.03506234413965087,-0.04101085437373088,
0.03511221945137157,-0.006645043816427387,
0.03516209476309227,-0.02558604359500371,
0.03521197007481297,-0.012004584147589613,
0.035261845386533666,-0.018893876732577895,
0.03531172069825436,-0.040358416564125005,
0.035361596009975065,-0.03830466202081279,
0.03541147132169576,-0.01808901472416598,
0.035461346633416456,-0.01670675791861294,
0.03551122194513716,-0.006564753193381012,
0.035561097256857854,-0.020199205928228332,
0.03561097256857856,0.017609806669584605,
0.03566084788029925,-0.00764857901376358,
0.03571072319201995,-0.01155266872665558,
0.03576059850374065,-0.0060657923079779925,
0.03581047381546135,-0.030867553982332076,
0.03586034912718204,-0.015393431310825345,
0.035910224438902745,-0.02437308935306519,
0.03596009975062344,-0.023530646942645166,
0.036009975062344136,-0.029201091565497727,
0.03605985037406484,-0.019243102506980792,
0.036109725685785535,-0.022726473277157856,
0.03615960099750624,-0.025435581861434728,
0.03620947630922693,0.003324973873002273,
0.03625935162094763,-0.0005132063754885591,
0.03630922693266833,-0.00203639430870085,
0.03635910224438903,-0.013924824130935754,
0.03640897755610972,-0.0246319884387314,
0.036458852867830426,0.005591701527994299,
0.03650872817955112,-0.017722719439761364,
0.036558603491271824,-0.03010724163028427,
0.03660847880299252,-0.03784782871688217,
0.036658354114713215,-0.012017103497653605,
0.03670822942643392,-0.02012729129636205,
0.036758104738154614,2.79702029022319e-07,
0.03680798004987531,-0.018153643677203925,
0.03685785536159601,-0.00689609973665445,
0.03690773067331671,-0.006160680514331965,
0.0369576059850374,-0.019897532783203296,
0.037007481296758106,-0.021979600947977282,
0.0370573566084788,-0.0032930760959805567,
0.037107231920199504,-0.020375594963732126,
0.0371571072319202,-0.003942700760478484,
0.037206982543640896,0.005701330625049003,
0.0372568578553616,-0.02207319940381186,
0.037306733167082294,-0.011244477776898649,
0.03735660847880299,-0.002005380730803678,
0.03740648379052369,-0.017807079375834627,
0.03745635910224439,-0.0002805052354352758,
0.037506234413965084,-0.025013079796390107,
0.037556109725685786,-0.010245881949567829,
0.03760598503740648,0.010529090872541138,
0.037655860349127185,0.000653099845367911,
0.03770573566084788,0.022170236330799807,
0.037755610972568576,0.0189381687529648,
0.03780548628428928,-0.01777652121635679,
0.037855361596009975,-0.017085359725954694,
0.03790523690773067,-0.03061089597289854,
0.03795511221945137,0.008285343019781732,
0.03800498753117207,0.007724169494922856,
0.03805486284289277,0.01812206244756618,
0.03810473815461347,0.004096220689196941,
0.03815461346633416,0.011734463980609991,
0.038204488778054865,0.006380602679030959,
0.03825436408977556,0.008552666595542496,
0.03830423940149626,0.009000896723837259,
0.03835411471321696,0.003905103437828604,
0.038403990024937655,-0.03048415684707426,
0.03845386533665835,-0.008293172448100787,
0.03850374064837905,-0.0015439581193098313,
0.03855361596009975,0.007213232405637172,
0.03860349127182045,0.007826532867987995,
0.03865336658354115,0.008139186033158344,
0.03870324189526184,-0.0032906367143009756,
0.038753117206982546,0.0161208408490274,
0.03880299251870324,0.0015063490571772485,
0.03885286783042394,-0.012853999883948915,
0.03890274314214464,0.017659162550226027,
0.038952618453865336,-0.0022488403733864977,
0.03900249376558604,0.012805947222532072,
0.039052369077306734,-0.02161862717380297,
0.03910224438902743,-0.01412031107944581,
0.03915211970074813,-0.009268164388126991,
0.03920199501246883,-0.021926149128669064,
0.039251870324189524,-0.00898061877777016,
0.039301745635910226,-0.006744244789503603,
0.03935162094763092,-0.009664275267822977,
0.03940149625935162,-0.0034761633347945324,
0.03945137157107232,0.006317849595733805,
0.039501246882793016,-4.662937869767854e-06,
0.03955112219451372,0.02614871534482172,
0.039600997506234414,-0.014607070965164226,
0.03965087281795511,0.005714323733663677,
0.03970074812967581,-0.00407455607098761,
0.03975062344139651,0.020811895476734878,
0.039800498753117204,0.015049219115923551,
0.03985037406483791,0.022161942727469554,
0.0399002493765586,0.007074944013933194,
0.039950124688279305,-0.02062775970252614,
0.04,0.011575479799989349,
0.0400498753117207,0.005730236719041217,
0.0400997506234414,0.020012938584682588,
0.040149625935162095,0.003209352202022899,
0.04019950124688279,0.028456898752171646,
0.04024937655860349,-0.01581365839705864,
0.04029925187032419,0.01707596121787134,
0.040349127182044885,0.010826656626018064,
0.04039900249376559,0.016957810273837075,
0.04044887780548628,0.03345531314093292,
0.040498753117206986,0.015948699220259127,
0.04054862842892768,-0.014691965066892434,
0.04059850374064838,0.040677484564660936,
0.04064837905236908,0.02366066511332812,
0.040698254364089775,0.016264856087382894,
0.04074812967581047,0.026608281688773654,
0.040798004987531174,-0.0023442535504493954,
0.04084788029925187,-0.006043141355607974,
0.040897755610972565,-0.006458584752746983,
0.04094763092269327,0.005410509270336202,
0.04099750623441396,0.021366663910755528,
0.041047381546134666,0.014376141377850775,
0.04109725685785536,0.014981111296857003,
0.04114713216957606,0.0014047757641479936,
0.04119700748129676,0.0025833632839849345,
0.041246882793017456,-0.011127954143335565,
0.04129675810473815,0.006435816774527587,
0.041346633416458854,-0.013445060068240797,
0.04139650872817955,-0.02290340795600219,
0.04144638403990025,-0.006641013370665239,
0.04149625935162095,0.013498254198731656,
0.041546134663341644,0.015388045295967403,
0.04159600997506235,0.0017790347021810968,
0.04164588528678304,0.005290003020472063,
0.04169576059850374,0.025880983204479194,
0.04174563591022444,0.025672930006939227,
0.041795511221945136,0.005306722771282604,
0.04184538653366583,0.03364644725972906,
0.041895261845386535,0.031093007452861126,
0.04194513715710723,0.02941522549282517,
0.04199501246882793,0.021014144669948043,
0.04204488778054863,0.021922133006096016,
0.042094763092269324,0.01802881397499666,
0.04214463840399003,0.012577183615122745,
0.04219451371571072,0.02023547759500994,
0.04224438902743142,0.015510815647656275,
0.04229426433915212,-0.004591971448374078,
0.04234413965087282,0.02692167335332488,
0.04239401496259352,0.023412405181973548,
0.042443890274314215,0.03239553120569037,
0.04249376558603491,0.003172888709843436,
0.042543640897755614,0.014716975556842253,
0.04259351620947631,0.01567424333484297,
0.042643391521197005,0.05058020568743393,
0.04269326683291771,-0.0004062742446301511,
0.0427431421446384,0.026917560232572156,
0.0427930174563591,0.03186046439320295,
0.0428428927680798,0.01572623964374332,
0.0428927680798005,0.0389695010160641,
0.0429426433915212,0.02486607813763412,
0.042992518703241896,0.01891831063588226,
0.04304239401496259,0.037825931878690426,
0.043092269326683294,0.019077492049482406,
0.04314214463840399,0.042336874521427606,
0.043192019950124685,0.03113494873372382,
0.04324189526184539,0.004687105160881451,
0.043291770573566084,0.04759476481081887,
0.043341645885286786,0.020685478911244958,
0.04339152119700748,0.006335012814284894,
0.04344139650872818,0.008266776783298277,
0.04349127182044888,0.028531364897312814,
0.043541147132169576,0.03188405901181482,
0.04359102244389027,0.014829282049678422,
0.043640897755610975,0.04715009084659018,
0.04369077306733167,0.005145657031623899,
0.043740648379052366,0.02124325067835244,
0.04379052369077307,0.015427810519207934,
0.043840399002493764,0.03694961280631801,
0.04389027431421447,0.027010623488128042,
0.04394014962593516,0.013175991697126391,
0.04399002493765586,0.025292408355375547,
0.04403990024937656,0.005127035363466856,
0.04408977556109726,0.016266649943799002,
0.04413965087281795,-0.004134081813212502,
0.044189526184538655,0.0348401692270819,
0.04423940149625935,0.006539111237767466,
0.04428927680798005,0.029130195723488933,
0.04433915211970075,0.01157128259957805,
0.044389027431421445,0.027331662028749374,
0.04443890274314215,0.027103662546447832,
0.04448877805486284,0.01904103479520375,
0.04453865336658354,0.02376772477264606,
0.04458852867830424,0.02619502776375903,
0.04463840399002494,0.03473011804700666,
0.04468827930174563,0.021448129780388327,
0.044738154613466335,0.03147124106620346,
0.04478802992518703,0.057669575148617785,
0.044837905236907734,0.020201944618083605,
0.04488778054862843,0.01561067374999213,
0.044937655860349125,0.011571941568433306,
0.04498753117206983,0.0011819297720866602,
0.045037406483790524,0.03304779285247419,
0.04508728179551122,0.03691338109571443,
0.04513715710723192,0.0451600569878039,
0.04518703241895262,0.041698411621946416,
0.04523690773067331,-0.006256067220389114,
0.045286783042394016,-0.009488247240132183,
0.04533665835411471,0.06160388216222458,
0.045386533665835414,0.03521559100738194,
0.04543640897755611,0.005857805664152064,
0.045486284289276806,0.015056671580515784,
0.04553615960099751,0.044655189234262774,
0.045586034912718204,0.01804666391643101,
0.0456359102244389,0.0020589813154394294,
0.0456857855361596,0.0318814331496191,
0.0457356608478803,0.011064981699644602,
0.045785536159601,0.02787001260941496,
0.045835411471321696,-0.005572835568831147,
0.04588528678304239,0.03732141280331429,
0.045935162094763095,0.003058544922315682,
0.04598503740648379,-0.002722558350518371,
0.046034912718204486,0.004363483158841379,
0.04608478802992519,0.019830311560299862,
0.046134663341645885,0.04869375107686532,
0.04618453865336658,0.012313103466575485,
0.04623441396508728,0.00559419714908913,
0.04628428927680798,0.026894882147532564,
0.04633416458852868,0.023203430815548615,
0.04638403990024938,0.000541030557928722,
0.04643391521197007,0.021571304403434435,
0.046483790523690775,0.009634465824505634,
0.04653366583541147,0.047428307249476526,
0.04658354114713217,0.03043992124293222,
0.04663341645885287,0.002176803633032836,
0.046683291770573565,0.04171294395260375,
0.04673316708229427,-0.003895999814751687,
0.04678304239401496,0.002613384607380668,
0.04683291770573566,0.040021731343877986,
0.04688279301745636,0.028702582857781468,
0.04693266832917706,-0.007719451956034466,
0.04698254364089775,0.008138977462906984,
0.047032418952618456,0.04299987113972825,
0.04708229426433915,0.012915593387869073,
0.04713216957605985,-0.012759051544424766,
0.04718204488778055,0.012867261480531054,
0.047231920199501246,0.022740810348450997,
0.04728179551122195,-0.005464479328600849,
0.047331670822942644,-0.0009056660745500808,
0.04738154613466334,0.0036627425443434905,
0.04743142144638404,0.011078273161446817,
0.04748129675810474,0.03518861969851149,
0.047531172069825434,0.02135101329206621,
0.047581047381546136,-0.0005263482229519965,
0.04763092269326683,0.03491964578357355,
0.047680798004987535,0.02595761443517592,
0.04773067331670823,0.0005060198273626627,
0.047780548628428926,0.0499592490123108,
0.04783042394014963,0.012589412161986531,
0.047880299251870324,0.03375841588112391,
0.04793017456359102,0.01332461711599804,
0.04798004987531172,-0.004380032829877804,
0.04802992518703242,0.023973593397024824,
0.048079800498753114,0.012926845034621453,
0.04812967581047382,-0.01571782959547227,
0.04817955112219451,0.022789224601086837,
0.048229426433915215,0.004161813031287084,
0.04827930174563591,-0.002985752597971132,
0.048329177057356607,0.028282666728329662,
0.04837905236907731,-0.021349693755175612,
0.048428927680798005,0.004390817226583809,
0.0484788029925187,0.01097151093704549,
0.0485286783042394,0.007018889339293869,
0.0485785536159601,-0.003666131987411534,
0.048628428927680795,0.03221283415686066,
0.0486783042394015,0.014923434077949264,
0.04872817955112219,0.003341732804169097,
0.048778054862842896,0.007982186663351296,
0.04882793017456359,-0.017082424937959285,
0.04887780548628429,-0.002246529153449247,
0.04892768079800499,0.023949118105379454,
0.048977556109725685,-0.018533186118564835,
0.04902743142144638,0.010433919526173993,
0.049077306733167084,-0.009395014008182469,
0.04912718204488778,-0.02300537551485043,
0.04917705735660848,-0.0066269128407396944,
0.04922693266832918,0.008847121145112132,
0.04927680798004987,-0.008169015075865026,
0.049326683291770576,0.003976096149082293,
0.04937655860349127,-0.0012205496004783702,
0.04942643391521197,0.014817810760821804,
0.04947630922693267,0.026507816969565775,
0.049526184538653366,-0.00663072786236719,
0.04957605985037406,-0.0021031490266207264,
0.049625935162094764,-0.03473910805320026,
0.04967581047381546,0.01613730210378996,
0.04972568578553616,0.014815819154002534,
0.04977556109725686,-0.01402932206800325,
0.049825436408977554,-0.0063415305388398145,
0.04987531172069826,-0.0024257523632284683,
0.04992518703241895,0.0003556315182020654,
0.04997506234413965,-0.007469232843230289,
0.05002493765586035,-0.003134762223534355,
0.050074812967581046,0.0262707219703265,
0.05012468827930175,0.03380908245482658,
0.050174563591022445,-0.009220597200296063,
0.05022443890274314,-0.01802722610505498,
0.05027431421446384,-0.013470939781510677,
0.05032418952618454,0.0035174200278811096,
0.050374064837905234,-0.020829923372875175,
0.05042394014962594,-0.007006337750580217,
0.05047381546134663,-0.0029126638627948046,
0.05052369077306733,0.027530584335006145,
0.05057356608478803,0.013000825442275368,
0.05062344139650873,-0.005118300696711038,
0.05067331670822943,-0.02619683829204841,
0.050723192019950125,-0.023898548302539523,
0.05077306733167082,0.005989694475903518,
0.050822942643391524,-0.014103053530767634,
0.05087281795511222,-0.0008481757296698051,
0.050922693266832915,-0.01434277494128568,
0.05097256857855362,0.005837332483297125,
0.05102244389027431,0.01153322976703669,
0.051072319201995016,0.011605602613693424,
0.05112219451371571,-0.0118761101336047,
0.05117206982543641,-0.01911123158539485,
0.05122194513715711,-0.011650431757650901,
0.051271820448877806,-0.011479647347099355,
0.0513216957605985,-0.026696957191023704,
0.051371571072319204,-0.02190801512462773,
0.0514214463840399,-0.012527135355115357,
0.051471321695760595,-0.008655407284833737,
0.0515211970074813,-0.012197219053691937,
0.051571072319201994,-0.02151269309339131,
0.051620947630922696,0.0189273327886861,
0.05167082294264339,0.003088461998747344,
0.05172069825436409,-0.020462859565392878,
0.05177057356608479,-0.0038055013558785118,
0.051820448877805486,-0.008740760127891028,
0.05187032418952618,-0.030717342277975006,
0.051920199501246884,-0.01545269720320147,
0.05197007481296758,0.005930419629117707,
0.052019950124688276,-0.03360797858116936,
0.05206982543640898,-0.04128474632830639,
0.052119700748129674,-0.009414731396047035,
0.05216957605985038,-0.004665228973163624,
0.05221945137157107,-0.007819405756974667,
0.05226932668329177,7.103622299865775e-07,
0.05231920199501247,-0.02138761077293329,
0.05236907730673317,-0.020944870898700688,
0.05241895261845386,-0.022322873442324795,
0.052468827930174565,-0.010188117359143625,
0.05251870324189526,-0.009962674462319446,
0.05256857855361596,-0.010179739556668309,
0.05261845386533666,-0.008997378337670465,
0.052668329177057355,-0.045813501373648355,
0.05271820448877806,0.009878241628882053,
0.05276807980049875,-0.0239940605425875,
0.05281795511221945,-0.005003535046096868,
0.05286783042394015,-0.026871787421665246,
0.05291770573566085,-0.007159367242559482,
0.05296758104738154,-0.019450571063494515,
0.053017456359102245,-0.003223910987543344,
0.05306733167082294,0.017074496383919235,
0.053117206982543644,-0.009536887672205013,
0.05316708229426434,-0.021100882675393885,
0.053216957605985035,-0.0018796844070235758,
0.05326683291770574,-0.023342420801393413,
0.053316708229426434,0.0043952435649034696,
0.05336658354114713,-0.013929099429852924,
0.05341645885286783,-0.03311383099113767,
0.05346633416458853,0.0071986239790199635,
0.05351620947630923,-0.033963920474399834,
0.053566084788029926,-0.031699828641488285,
0.05361596009975062,-0.018220386460467117,
0.053665835411471324,-0.00609460174679812,
0.05371571072319202,-0.009100045231250166,
0.053765586034912716,-0.0062717850705588125,
0.05381546134663342,-0.02509476448391613,
0.053865336658354114,-0.0321259702220328,
0.05391521197007481,-0.009467321123327575,
0.05396508728179551,-0.009493919453262997,
0.05401496259351621,-0.021273676452288313,
0.05406483790523691,-0.00822938161973113,
0.054114713216957606,0.01723304725645677,
0.0541645885286783,-0.011657716893987459,
0.054214463840399005,0.00045120864341791425,
0.0542643391521197,-0.001764170645457041,
0.054314214463840396,-0.03468911117706362,
0.0543640897755611,-0.009083919997280773,
0.054413965087281795,-0.03536842065602163,
0.0544638403990025,0.016708016153864774,
0.05451371571072319,-0.04261223556935887,
0.05456359102244389,-0.01878337200067719,
0.05461346633416459,-0.02580861169988466,
0.05466334164588529,-0.011934650324334007,
0.05471321695760598,-0.0373639438968419,
0.054763092269326685,-0.037386253476173095,
0.05481296758104738,-0.043464209273498026,
0.05486284289276808,-0.014630400365608618,
0.05491271820448878,-0.01906916847386732,
0.054962593516209475,-0.009668112222908243,
0.05501246882793018,-0.0048591622820840005,
0.05506234413965087,-0.002945482073954746,
0.05511221945137157,-0.018863700473282195,
0.05516209476309227,0.003612276819543266,
0.05521197007481297,-0.030624595127338852,
0.05526184538653366,0.003896406140741198,
0.055311720698254366,-0.028850640888880914,
0.05536159600997506,-0.010065071535499587,
0.05541147132169576,-0.008601219782450601,
0.05546134663341646,0.009221197308426913,
0.055511221945137156,-0.022353925377029505,
0.05556109725685786,-0.016465095654589448,
0.055610972568578554,-0.02556463881064374,
0.05566084788029925,0.006055876829257227,
0.05571072319201995,-0.04161892032073394,
0.05576059850374065,-0.01916565463150621,
0.055810473815461344,-0.02153234084887465,
0.055860349127182046,-0.01961376141691331,
0.05591022443890274,-0.028924231410072006,
0.055960099750623445,-0.01677845133740165,
0.05600997506234414,-0.0118698450393944,
0.056059850374064836,-0.013753777929477443,
0.05610972568578554,-0.017290327635008734,
0.056159600997506234,-0.01899971523366066,
0.05620947630922693,-0.035543160763614856,
0.05625935162094763,-0.023139075073908756,
0.05630922693266833,-0.0005633388882671318,
0.056359102244389024,0.0047196868176747776,
0.05640897755610973,-0.020591532041996412,
0.05645885286783042,-0.028699871672292807,
0.056508728179551125,0.007379217443295328,
0.05655860349127182,-0.009760164329322038,
0.056608478802992516,-0.011712334894447165,
0.05665835411471322,-0.0036068139393580266,
0.056708229426433915,-0.022050229623236318,
0.05675810473815461,-0.012047677237256013,
0.05680798004987531,0.01148848515823472,
0.05685785536159601,-0.026417575555538933,
0.05690773067331671,0.013493107766413843,
0.05695760598503741,-0.0031750648550041005,
0.0570074812967581,-0.03805201687190686,
0.057057356608478806,0.028975492205090478,
0.0571072319201995,-0.031826097681685594,
0.0571571072319202,0.008169794100175893,
0.0572069825436409,-0.00923933316976984,
0.057256857855361595,-0.04899063445073374,
0.05730673316708229,-0.02533421158412528,
0.057356608478802994,-0.018908287666052036,
0.05740648379052369,-0.007692429269626164,
0.05745635910224439,0.00385511831071868,
0.05750623441396509,-0.017442455410549392,
0.05755610972568578,-0.018258134634740644,
0.057605985037406486,-0.016004051438748987,
0.05765586034912718,0.0010214269222292103,
0.05770573566084788,-0.04490770729667689,
0.05775561097256858,-0.017717471548051623,
0.057805486284289276,0.016006746067214354,
0.05785536159600998,0.011547156354337354,
0.057905236907730674,-0.01100345562004506,
0.05795511221945137,0.0007655951069461828,
0.05800498753117207,-0.011503293553109436,
0.05805486284289277,-0.027552336235654902,
0.058104738154613464,-0.021406738446107063,
0.05815461346633417,0.012198244723264563,
0.05820448877805486,0.037947567052525735,
0.05825436408977556,0.009488566114516102,
0.05830423940149626,0.0016112309341262216,
0.058354114713216956,-0.018443755912105866,
0.05840399002493766,0.029245924740378067,
0.058453865336658355,0.009586988413034995,
0.05850374064837905,0.00213185812188038,
0.05855361596009975,-0.023251568921077055,
0.05860349127182045,0.020678595884231293,
0.058653366583541144,0.012311650103085285,
0.05870324189526185,-0.010090011035995173,
0.05875311720698254,0.034920003000116134,
0.05880299251870324,0.008008325239579147,
0.05885286783042394,0.008079917310281143,
0.05890274314214464,-0.014426002218569147,
0.05895261845386534,-8.879670331357961e-06,
0.059002493765586035,0.011143993622187043,
0.05905236907730673,0.004354410192410852,
0.059102244389027433,0.023992406739024523,
0.05915211970074813,-0.03553896360130966,
0.059201995012468825,0.0048219099272534035,
0.05925187032418953,-0.005629463603708496,
0.05930174563591022,0.03295768634089331,
0.059351620947630926,-0.0015224566609123589,
0.05940149625935162,0.0010516762521863557,
0.05945137157107232,0.002053615597249461,
0.05950124688279302,0.003807683758351678,
0.059551122194513716,0.03108363572570193,
0.05960099750623441,0.02156691473432495,
0.059650872817955114,0.03001199222669614,
0.05970074812967581,0.021814954432473853,
0.059750623441396505,-0.006225053000912744,
0.05980049875311721,0.014256837254775473,
0.059850374064837904,-0.024943293144650984,
0.059900249376558606,0.004714716626041787,
0.0599501246882793,0.0009534817161429617,
0.06,0.02349208120448698,
0.0600498753117207,-0.008587985075171712,
0.060099750623441396,0.008579594729278923,
0.06014962593516209,0.018983469715165735,
0.060199501246882794,0.019678787125835043,
0.06024937655860349,0.020209379021336356,
0.06029925187032419,-0.004967802063843311,
0.06034912718204489,0.0004384558649027752,
0.060399002493765584,0.012279247440046515,
0.06044887780548629,0.039860067732786476,
0.06049875311720698,0.0015504431543768293,
0.06054862842892768,-0.008801745109255979,
0.06059850374064838,0.007030566094562299,
0.06064837905236908,0.011703494585701621,
0.06069825436408977,0.014918286190400296,
0.060748129675810475,0.00353913355388491,
0.06079800498753117,-0.0023968863682289655,
0.06084788029925187,-0.010964621461141461,
0.06089775561097257,0.01682919749966969,
0.060947630922693265,-0.0018272814026249248,
0.06099750623441397,0.009080068919668057,
0.06104738154613466,-0.015948133558884352,
0.06109725685785536,0.002885674459263172,
0.06114713216957606,0.02836795219181282,
0.06119700748129676,0.02485598354023786,
0.06124688279301746,-0.015420869388995215,
0.061296758104738155,-0.0021113393307056645,
0.06134663341645885,0.048707066721115605,
0.061396508728179554,0.007966468292709554,
0.06144638403990025,0.014708809529367584,
0.061496259351620945,0.0027989785263235756,
0.06154613466334165,0.03952643993774495,
0.061596009975062344,-0.005375048906805773,
0.06164588528678304,0.02519194676806261,
0.06169576059850374,-0.010965402849995011,
0.06174563591022444,0.026416083316193002,
0.06179551122194514,0.034038852457537364,
0.061845386533665836,0.016880823686358848,
0.06189526184538653,0.020517481403842144,
0.061945137157107234,0.013215462252026513,
0.06199501246882793,0.008250020946234393,
0.062044887780548626,0.04111751907789315,
0.06209476309226933,0.00030829302515908083,
0.062144638403990024,0.03834633111136962,
0.06219451371571072,0.034590381172070805,
0.06224438902743142,0.02792843084138274,
0.06229426433915212,0.024027463553561577,
0.06234413965087282,0.029128283094445387,
0.062394014962593516,0.030147859830701167,
0.06244389027431421,0.030017972024304708,
0.062493765586034915,0.02167575588141206,
0.06254364089775562,0.009486583402697929,
0.06259351620947631,0.030642996970372406,
0.06264339152119701,0.034343433324002866,
0.0626932668329177,0.0210525498979394,
0.0627431421446384,0.003784568455980318,
0.0627930174563591,0.03272893938468457,
0.0628428927680798,0.03872872025059047,
0.0628927680798005,-0.024453282343227824,
0.0629426433915212,0.00829229542752775,
0.06299251870324189,0.01348474187856927,
0.06304239401496259,0.03736061426284408,
0.0630922693266833,-0.038553770018682605,
0.063142144638404,0.020720325515740684,
0.06319201995012469,0.01220598291240084,
0.06324189526184539,0.021908222654220297,
0.06329177057356608,0.023461168146743087,
0.06334164588528678,0.023916655818641122,
0.06339152119700749,0.03763021708992331,
0.06344139650872818,0.001945004751174463,
0.06349127182044888,0.023140065635717983,
0.06354114713216957,0.024181053792987062,
0.06359102244389027,0.024213241983878312,
0.06364089775561098,0.03928786525869184,
0.06369077306733167,0.045497101893518785,
0.06374064837905237,0.03030444864692862,
0.06379052369077307,0.027110264201764666,
0.06384039900249376,0.027084009337625985,
0.06389027431421446,-0.006137921999479993,
0.06394014962593517,0.03934626851369086,
0.06399002493765586,0.05272749172760986,
0.06403990024937656,0.015191248927191925,
0.06408977556109725,0.013573601579568205,
0.06413965087281795,0.03755550089711658,
0.06418952618453866,0.004866056732504648,
0.06423940149625935,0.03974976262321706,
0.06428927680798005,-0.003996183745465211,
0.06433915211970075,0.02669340721731612,
0.06438902743142144,0.015156968387776823,
0.06443890274314215,0.02953717645251973,
0.06448877805486285,0.009386149085673605,
0.06453865336658354,0.013922498851383485,
0.06458852867830424,-0.02874768162988222,
0.06463840399002493,0.020382850736406197,
0.06468827930174563,0.03098483447791934,
0.06473815461346634,0.037390890510485164,
0.06478802992518704,0.04637310414081698,
0.06483790523690773,0.018889811463044456,
0.06488778054862843,0.033138519451665724,
0.06493765586034912,0.027896242959420437,
0.06498753117206983,0.025322113458951773,
0.06503740648379053,0.04424701343045264,
0.06508728179551122,0.017618696700588184,
0.06513715710723192,0.03833690182004023,
0.06518703241895261,0.031101162289156617,
0.06523690773067331,0.029896880955059442,
0.06528678304239402,0.019846644383950528,
0.06533665835411472,0.01665018675936418,
0.06538653366583541,0.021687845456163674,
0.06543640897755611,0.01765734747632034,
0.0654862842892768,0.016422816044621587,
0.06553615960099751,0.029262851042746032,
0.06558603491271821,0.023933062787055388,
0.0656359102244389,0.005814243053172529,
0.0656857855361596,0.01664041060100878,
0.0657356608478803,0.012591222424372354,
0.06578553615960099,0.045340599664928705,
0.0658354114713217,0.02223012221463551,
0.0658852867830424,0.018437063392389156,
0.06593516209476309,0.0023589592299026532,
0.06598503740648379,0.006822142531994129,
0.06603491271820448,0.003176797947604764,
0.06608478802992519,0.03538508225495652,
0.06613466334164589,0.0013735691443086673,
0.06618453865336658,0.015889578258412255,
0.06623441396508728,0.03810581874824828,
0.06628428927680798,0.009100025641744065,
0.06633416458852869,0.05001507135008381,
0.06638403990024938,0.005191225232528797,
0.06643391521197008,0.045738131957998834,
0.06648379052369077,0.01605128404994644,
0.06653366583541147,0.015499872512503898,
0.06658354114713216,0.020326355381555063,
0.06663341645885287,0.008816588897435813,
0.06668329177057357,0.038088554604194524,
0.06673316708229426,0.017849506398799647,
0.06678304239401496,0.01583165834376848,
0.06683291770573566,0.024175983438818154,
0.06688279301745637,-0.017509725128287683,
0.06693266832917706,0.0014485465359508828,
0.06698254364089776,0.013317717411648233,
0.06703241895261845,-0.0028384822176588664,
0.06708229426433915,0.010761186010091904,
0.06713216957605984,0.019303014499576526,
0.06718204488778055,0.014275906607662956,
0.06723192019950125,0.016691106788394066,
0.06728179551122195,0.03540949824843681,
0.06733167082294264,0.05552033368562898,
0.06738154613466334,0.035417500734612355,
0.06743142144638405,0.002683615453760075,
0.06748129675810474,0.0009330528765720946,
0.06753117206982544,0.009160893188043577,
0.06758104738154613,0.02001788388928724,
0.06763092269326683,0.01873557763022211,
0.06768079800498752,0.010407546497331149,
0.06773067331670823,0.0005812498549767273,
0.06778054862842893,0.00016692899938823905,
0.06783042394014963,0.02365212199139295,
0.06788029925187032,0.017443809748154637,
0.06793017456359102,0.035454500899557526,
0.06798004987531173,0.032182078745065616,
0.06802992518703242,0.020308211622664003,
0.06807980049875312,0.023971180563633603,
0.06812967581047381,0.00304131517298796,
0.06817955112219451,0.008585217737590743,
0.0682294264339152,0.003910685763553009,
0.06827930174563591,0.010528600267993935,
0.06832917705735661,0.003101572611021411,
0.0683790523690773,0.022738700543755548,
0.068428927680798,0.0038385157711021663,
0.0684788029925187,0.011923729878806426,
0.06852867830423941,0.012015207124388149,
0.0685785536159601,0.031038263460829926,
0.0686284289276808,0.011145777653288056,
0.0686783042394015,0.029164441444411507,
0.06872817955112219,-0.0032828658391848495,
0.0687780548628429,-0.0067974066601175255,
0.0688279301745636,0.00561722947453781,
0.06887780548628429,-0.0035472455039855574,
0.06892768079800499,0.02285618410358044,
0.06897755610972568,0.013952951253691814,
0.06902743142144638,-0.025589315801708375,
0.06907730673316709,0.007291360069510184,
0.06912718204488778,0.02286040723865853,
0.06917705735660848,0.001112988202820707,
0.06922693266832917,-0.0016909850875536266,
0.06927680798004987,-0.015973493536592005,
0.06932668329177058,-0.015595298284229033,
0.06937655860349128,-0.0009664495237329783,
0.06942643391521197,-0.00011291655998990711,
0.06947630922693267,0.009640981620509671,
0.06952618453865336,-0.006836069046787762,
0.06957605985037406,0.008813773816783686,
0.06962593516209477,-0.0054263535251069805,
0.06967581047381546,-0.014085614072842454,
0.06972568578553616,0.0075532567621002245,
0.06977556109725686,0.00791103428100019,
0.06982543640897755,-0.007416301527232556,
0.06987531172069826,0.0030641881200217467,
0.06992518703241896,-0.009830931222100686,
0.06997506234413965,0.028777784234274358,
0.07002493765586035,0.0056715358328486174,
0.07007481296758104,0.041973032878916954,
0.07012468827930174,0.0028068644178889813,
0.07017456359102245,0.007270549942290317,
0.07022443890274314,-0.009135987984591334,
0.07027431421446384,0.010099367771359748,
0.07032418952618454,-0.007428560250254919,
0.07037406483790523,-0.0022583076391114215,
0.07042394014962594,-0.02081911636919321,
0.07047381546134664,-0.021105819367451303,
0.07052369077306733,-0.010135877137374329,
0.07057356608478803,-0.012499017465898644,
0.07062344139650872,0.012499432043425261,
0.07067331670822943,-0.0032339806383939896,
0.07072319201995013,-0.01488524990678736,
0.07077306733167082,-0.010698080304376885,
0.07082294264339152,0.003457870513577029,
0.07087281795511222,0.02466357473707518,
0.07092269326683291,-0.010093365415608298,
0.07097256857855362,-0.014331670452306811,
0.07102244389027432,-0.02334607643889494,
0.07107231920199501,-0.016912124529276415,
0.07112219451371571,-0.019114328852150204,
0.0711720698254364,-0.002026038731927843,
0.07122194513715711,-0.006307354217840902,
0.07127182044887781,0.02557439718277815,
0.0713216957605985,-0.0015335156321638916,
0.0713715710723192,-0.008375175536138969,
0.0714214463840399,-0.001480072409966864,
0.07147132169576059,0.000876413128634246,
0.0715211970074813,-0.003139689303493261,
0.071571072319202,0.017878822030816446,
0.0716209476309227,-0.007183263212200556,
0.07167082294264339,-0.02682621686827967,
0.07172069825436408,-0.016218539230003638,
0.0717705735660848,-0.012874768957340502,
0.07182044887780549,-0.03258250260810218,
0.07187032418952619,0.013298400630072262,
0.07192019950124688,-0.010179348073175047,
0.07197007481296758,0.01178663665308594,
0.07201995012468827,0.01351387934848922,
0.07206982543640898,-0.005048571599884192,
0.07211970074812968,-0.029774062250491763,
0.07216957605985037,0.005202893666661398,
0.07221945137157107,0.002764758851057529,
0.07226932668329177,-0.022492283310668493,
0.07231920199501247,-0.03153542503320245,
0.07236907730673317,-0.002022055386740199,
0.07241895261845387,-0.04675630783065133,
0.07246882793017456,-0.017752293123440503,
0.07251870324189526,-0.0051130957498911524,
0.07256857855361595,-0.0010498572431619588,
0.07261845386533666,-0.03835555790202265,
0.07266832917705736,-0.011089770160472832,
0.07271820448877805,-0.020457103753160448,
0.07276807980049875,-0.028982095801837,
0.07281795511221945,-0.024225801213391726,
0.07286783042394016,-0.017234267817787814,
0.07291770573566085,-0.022275489239327276,
0.07296758104738155,-0.0017151386104339965,
0.07301745635910224,-0.006896161100877983,
0.07306733167082294,-0.0155024917782485,
0.07311720698254365,-0.017249831149937764,
0.07316708229426434,-0.009310757643662832,
0.07321695760598504,-0.017622519033366316,
0.07326683291770573,-0.039407874102160095,
0.07331670822942643,0.007187144981475678,
0.07336658354114713,-0.006206021075704624,
0.07341645885286784,-0.014895069701017952,
0.07346633416458853,-0.028145973122306493,
0.07351620947630923,0.00861616487942236,
0.07356608478802992,-0.00627089014875493,
0.07361596009975062,0.006595728907142887,
0.07366583541147133,-0.013618919029433489,
0.07371571072319202,-0.03224265054526365,
0.07376558603491272,-0.015302153199060798,
0.07381546134663342,-0.018232894073862357,
0.07386533665835411,-0.013345939493815542,
0.0739152119700748,-0.04884296656993711,
0.07396508728179552,-0.008862674344895446,
0.07401496259351621,-0.01572663349508551,
0.07406483790523691,-0.0025773609319686714,
0.0741147132169576,-0.039761676021214026,
0.0741645885286783,0.01507419316586199,
0.07421446384039901,-0.016376905783127175,
0.0742643391521197,-0.0007515370129156165,
0.0743142144638404,-0.03281235360161121,
0.0743640897755611,-0.024578869257988356,
0.07441396508728179,-0.012560127310888038,
0.07446384039900249,0.0029589345279501782,
0.0745137157107232,-0.021829403418566453,
0.07456359102244389,-0.02499628421299334,
0.07461346633416459,-0.03099138102051468,
0.07466334164588528,-0.012118064162009074,
0.07471321695760598,0.002394669412320291,
0.07476309226932669,0.01198452582227488,
0.07481296758104738,-0.023805939578988182,
0.07486284289276808,0.03670616885660613,
0.07491271820448878,-0.04201589548480002,
0.07496259351620947,-0.027590563680493087,
0.07501246882793017,-0.012504713684780174,
0.07506234413965088,0.0245834525440929,
0.07511221945137157,-0.010409866757390777,
0.07516209476309227,-0.009962956592288389,
0.07521197007481296,-0.007890827046147669,
0.07526184538653366,-0.0322709274495091,
0.07531172069825437,-0.01688175479205289,
0.07536159600997507,-0.00303850552926202,
0.07541147132169576,-0.011404789215990058,
0.07546134663341646,-0.01845377897024501,
0.07551122194513715,-0.015624013928638499,
0.07556109725685786,0.005003778970709402,
0.07561097256857856,-0.018556789695632524,
0.07566084788029925,-0.05914598384093056,
0.07571072319201995,-0.021441423815256613,
0.07576059850374064,-0.009149594024872632,
0.07581047381546134,0.0012874949990602774,
0.07586034912718205,-0.017609116591930537,
0.07591022443890275,-0.020570677031047625,
0.07596009975062344,-0.011832193031766953,
0.07600997506234414,-0.005490028631714607,
0.07605985037406483,-0.0038738455663477906,
0.07610972568578554,-0.013904596010066604,
0.07615960099750624,-0.00083203609262094,
0.07620947630922693,-0.021449482224228735,
0.07625935162094763,-0.016624627239776778,
0.07630922693266833,-0.029165750844964068,
0.07635910224438902,-0.004741391836556926,
0.07640897755610973,-0.010609828261456289,
0.07645885286783043,-0.02738915172614118,
0.07650872817955112,-0.02782875241743063,
0.07655860349127182,-0.027409310582470203,
0.07660847880299251,-0.013181438603843569,
0.07665835411471322,-0.018673869269099468,
0.07670822942643392,-0.016414895063793587,
0.07675810473815461,-0.04429086420293326,
0.07680798004987531,-0.011047085145283521,
0.076857855361596,-0.026810249556460865,
0.0769077306733167,-0.03532687876910222,
0.07695760598503741,0.0026101543679701794,
0.0770074812967581,-0.03589966136185718,
0.0770573566084788,0.02915565963453203,
0.0771072319201995,-0.01830883262282039,
0.0771571072319202,0.002286224803362478,
0.0772069825436409,-0.008300986288214993,
0.0772568578553616,-0.015152702596030694,
0.0773067331670823,0.013621700267612141,
0.07735660847880299,-0.04230332880090197,
0.07740648379052369,0.011485817052188457,
0.0774563591022444,-0.013655065067624135,
0.07750623441396509,-0.021154044629956233,
0.07755610972568579,-0.01603949139836143,
0.07760598503740648,-0.014936816768509031,
0.07765586034912718,0.012595301829626478,
0.07770573566084787,0.0031531455706685944,
0.07775561097256858,-0.009885835032129106,
0.07780548628428928,-0.007555388831523827,
0.07785536159600998,-0.012913329013624573,
0.07790523690773067,-0.02114487918976622,
0.07795511221945137,0.0006375464443643297,
0.07800498753117208,-0.007862825038103918,
0.07805486284289277,-0.004461587130344681,
0.07810473815461347,-0.003806898000501634,
0.07815461346633416,0.00023688235857059845,
0.07820448877805486,0.011270019116617777,
0.07825436408977555,0.012990096359947436,
0.07830423940149626,-0.01414551741800074,
0.07835411471321696,-0.0031434889117367927,
0.07840399002493766,-0.005343687276014265,
0.07845386533665835,0.01029731689140587,
0.07850374064837905,-0.004338537296251146,
0.07855361596009976,-0.013290417420509966,
0.07860349127182045,-0.016609292109111353,
0.07865336658354115,-0.010478793982354294,
0.07870324189526184,0.010652265003034409,
0.07875311720698254,-0.025908028964889158,
0.07880299251870324,-0.007778595195900271,
0.07885286783042394,0.012314190751039235,
0.07890274314214464,0.014422681592156822,
0.07895261845386534,0.028905243589381745,
0.07900249376558603,-0.012926477079149061,
0.07905236907730673,0.009639633404372109,
0.07910224438902744,-0.0018308998570584914,
0.07915211970074813,-0.01008223673109938,
0.07920199501246883,0.023984091405755123,
0.07925187032418952,-0.019700914264560172,
0.07930174563591022,-0.03240946865668833,
0.07935162094763092,0.006025286478383918,
0.07940149625935163,-0.0028691080503998106,
0.07945137157107232,0.0008520972871534664,
0.07950124688279302,0.03328084162076109,
0.07955112219451371,0.005750686560080934,
0.07960099750623441,0.00838159286147638,
0.07965087281795512,-0.02428436423116316,
0.07970074812967581,-0.004536250413505758,
0.07975062344139651,0.021714639550415832,
0.0798004987531172,-0.009568646366984429,
0.0798503740648379,0.006665285958572381,
0.07990024937655861,0.008360346448911853,
0.0799501246882793,0.016324229003316405,
0.08,0.012062450689363695,
0.0800498753117207,0.021458474007518276,
0.0800997506234414,0.01085298945101944,
0.08014962593516209,0.02587302306732058,
0.0801995012468828,0.02180617440744387,
0.0802493765586035,0.008752594576311362,
0.08029925187032419,0.0021704601259030405,
0.08034912718204489,0.021072710482237574,
0.08039900249376558,0.029768666032665834,
0.08044887780548629,0.031420154537048384,
0.08049875311720699,0.03708014370399059,
0.08054862842892768,0.003528603504801992,
0.08059850374064838,0.010034585878324679,
0.08064837905236907,0.018781757963620967,
0.08069825436408977,0.015244776030870513,
0.08074812967581048,0.00976038619594278,
0.08079800498753117,0.009335298531918102,
0.08084788029925187,-0.0061770394002480765,
0.08089775561097257,0.0281701571744411,
0.08094763092269326,0.004022257089423395,
0.08099750623441397,-0.0033874675883001776,
0.08104738154613467,0.012926832705929814,
0.08109725685785536,0.027086385798951257,
0.08114713216957606,-0.0015432746314069552,
0.08119700748129675,0.010524674533197501,
0.08124688279301745,0.01921175270641834,
0.08129675810473816,0.0327005265336546,
0.08134663341645886,0.005406735654986169,
0.08139650872817955,0.010025017560859318,
0.08144638403990025,0.03538518135582307,
0.08149625935162094,-0.009085222403310621,
0.08154613466334165,0.011377724036975316,
0.08159600997506235,0.03329177014230772,
0.08164588528678304,0.006230619911770124,
0.08169576059850374,0.0173613155385539,
0.08174563591022443,0.009573047842464075,
0.08179551122194513,0.030887910660517222,
0.08184538653366584,0.01296362828066853,
0.08189526184538654,0.014021718471036285,
0.08194513715710723,0.022691054322478216,
0.08199501246882793,0.042947928302740544,
0.08204488778054862,0.012721047352133114,
0.08209476309226933,0.01347677789397096,
0.08214463840399003,0.0267550181013722,
0.08219451371571072,0.02860885841009377,
0.08224438902743142,0.03500442016596107,
0.08229426433915212,0.010046177006154818,
0.08234413965087282,-0.006665783999335512,
0.08239401496259352,0.01219320563889331,
0.08244389027431422,0.03787081589953926,
0.08249376558603491,0.013089343598670786,
0.08254364089775561,0.04425311160332607,
0.0825935162094763,0.03528925902845661,
0.08264339152119701,0.04592953029677578,
0.08269326683291771,0.022964844660360084,
0.0827431421446384,0.01268800535950964,
0.0827930174563591,0.01889984229721107,
0.0828428927680798,0.035826768721429106,
0.0828927680798005,0.02593101330911512,
0.0829426433915212,0.03724713421030146,
0.0829925187032419,0.0024554442145926676,
0.08304239401496259,0.015841813018543677,
0.08309226932668329,0.021273805411172998,
0.08314214463840398,0.0409331137977324,
0.0831920199501247,0.03201760831720799,
0.08324189526184539,0.022155981837236455,
0.08329177057356608,0.009571205303875823,
0.08334164588528678,0.017393639584867088,
0.08339152119700748,0.02284377574601193,
0.08344139650872819,0.01568709135072778,
0.08349127182044888,0.04154860752131727,
0.08354114713216958,0.011029551551295525,
0.08359102244389027,0.02650399156318246,
0.08364089775561097,0.03517078466250102,
0.08369077306733166,-0.0047957436156132495,
0.08374064837905237,0.050847237808008545,
0.08379052369077307,0.03809632551152135,
0.08384039900249377,0.028394005695106556,
0.08389027431421446,0.03700976146791744,
0.08394014962593516,0.036440012205611244,
0.08399002493765587,0.045945105465174024,
0.08403990024937656,0.03809859105166834,
0.08408977556109726,0.008037013023916337,
0.08413965087281795,0.026242005751325508,
0.08418952618453865,0.019833607247196388,
0.08423940149625936,0.04408804570375231,
0.08428927680798005,0.03022923225357187,
0.08433915211970075,0.005432303926492191,
0.08438902743142145,0.014495893366423745,
0.08443890274314214,0.0213935780430343,
0.08448877805486284,0.008742443524119747,
0.08453865336658355,0.03216178455151583,
0.08458852867830424,0.047797894304425166,
0.08463840399002494,0.03342498395586378,
0.08468827930174563,-0.015421306894429623,
0.08473815461346633,0.03363595386254074,
0.08478802992518704,0.009060485605737984,
0.08483790523690773,0.021186452542338884,
0.08488778054862843,0.013546495185703626,
0.08493765586034913,0.043383989055519386,
0.08498753117206982,0.03824209030439486,
0.08503740648379052,0.030932202226393164,
0.08508728179551123,0.0007908243928667763,
0.08513715710723192,0.027172981805456114,
0.08518703241895262,0.02460112332323902,
0.08523690773067331,0.004303890118494903,
0.08528678304239401,0.02776679161218113,
0.08533665835411472,0.012770534729428474,
0.08538653366583542,0.02130143745070084,
0.08543640897755611,0.056971932475303466,
0.0854862842892768,0.0274553977987329,
0.0855361596009975,0.035944762867886254,
0.0855860349127182,0.026434399127852042,
0.08563591022443891,0.030280029348350324,
0.0856857855361596,0.035074767677031535,
0.0857356608478803,0.008930493299284338,
0.085785536159601,0.018113053345061608,
0.08583541147132169,0.004414436326508883,
0.0858852867830424,0.025709053596206077,
0.0859351620947631,0.02239195832197162,
0.08598503740648379,0.01309262387312395,
0.08603491271820449,0.007386407549907784,
0.08608478802992518,0.05012535812153139,
0.08613466334164588,0.006919815936360693,
0.08618453865336659,0.028952271176192153,
0.08623441396508728,0.01048060640342914,
0.08628428927680798,0.011488105372347592,
0.08633416458852868,0.0199819047846577,
0.08638403990024937,0.019898090244224512,
0.08643391521197008,0.015696455286441903,
0.08648379052369078,0.017609139209307706,
0.08653366583541147,-0.005607626482434021,
0.08658354114713217,0.017694846762066226,
0.08663341645885286,0.0093152629713587,
0.08668329177057357,0.026303916406041787,
0.08673316708229427,0.023741295122457668,
0.08678304239401496,0.0071148378578215245,
0.08683291770573566,0.020691887878428607,
0.08688279301745636,0.007787501405285356,
0.08693266832917705,0.02442461870826524,
0.08698254364089776,0.013488772056575855,
0.08703241895261846,0.05033634054730825,
0.08708229426433915,0.047441224922395865,
0.08713216957605985,0.0115980258244799,
0.08718204488778054,0.03079740657873942,
0.08723192019950125,0.03527492587738436,
0.08728179551122195,0.007920776414062906,
0.08733167082294264,0.03465996094283907,
0.08738154613466334,0.015946312276070008,
0.08743142144638404,0.020076204143395907,
0.08748129675810473,0.02796683066158972,
0.08753117206982544,0.023900545952306604,
0.08758104738154614,-0.006256219797932196,
0.08763092269326683,0.033251261070980635,
0.08768079800498753,0.01013044223600576,
0.08773067331670822,0.018699995911840992,
0.08778054862842893,0.006138438853855625,
0.08783042394014963,0.0032428092871090945,
0.08788029925187033,0.06045421488768421,
0.08793017456359102,0.016980222743878833,
0.08798004987531172,0.015267463976918236,
0.08802992518703241,0.04466612292747528,
0.08807980049875312,0.019486375958431307,
0.08812967581047382,0.004580399159600724,
0.08817955112219451,0.025485183152375718,
0.08822942643391521,0.03373830820993405,
0.0882793017456359,-0.020958874975467993,
0.08832917705735661,0.010138054056982712,
0.08837905236907731,0.028113857043340917,
0.088428927680798,-0.034807281060669215,
0.0884788029925187,0.021088907647345893,
0.0885286783042394,0.02567029881028416,
0.0885785536159601,0.019695492669986457,
0.0886284289276808,-0.005806186174205523,
0.0886783042394015,0.006575646796958731,
0.0887281795511222,0.0142932343684454,
0.08877805486284289,0.03199013873628354,
0.08882793017456359,-0.007130039768490649,
0.0888778054862843,0.02760755401975233,
0.08892768079800499,-0.011868195945744498,
0.08897755610972569,0.014354626066520475,
0.08902743142144638,0.0007415318835204071,
0.08907730673316708,0.030077188090327094,
0.08912718204488779,-0.008286626386303324,
0.08917705735660848,-0.02844660679903825,
0.08922693266832918,0.024787215146913892,
0.08927680798004987,-0.005802967440302446,
0.08932668329177057,0.027182775788155342,
0.08937655860349127,0.01860665921670344,
0.08942643391521198,0.00032796888598473056,
0.08947630922693267,0.010976519189531036,
0.08952618453865337,-0.00042266653936261743,
0.08957605985037406,-0.005107415825495339,
0.08962593516209476,0.004693551146976176,
0.08967581047381547,-0.00811698266818603,
0.08972568578553616,-0.005399583229179751,
0.08977556109725686,-0.0115009719231638,
0.08982543640897755,-0.010989206681721486,
0.08987531172069825,0.0006812251964818349,
0.08992518703241895,-0.014652996200005703,
0.08997506234413966,0.019422661410896876,
0.09002493765586035,0.002766329984229493,
0.09007481296758105,-0.0026081271421814307,
0.09012468827930174,0.00182409724414836,
0.09017456359102244,-0.0158998664665368,
0.09022443890274315,-0.014012692389139776,
0.09027431421446384,-0.01099081232394958,
0.09032418952618454,-0.009459463208400461,
0.09037406483790524,-0.024700188778632653,
0.09042394014962593,-0.015913158410165048,
0.09047381546134663,-0.00945771080889531,
0.09052369077306734,-0.01214911668001608,
0.09057356608478803,-0.005842601334921113,
0.09062344139650873,-0.0003086526950269778,
0.09067331670822942,-0.009903579423603901,
0.09072319201995012,0.014831176735017475,
0.09077306733167083,0.0283306940789026,
0.09082294264339152,-0.01565660543903666,
0.09087281795511222,0.03228401554388396,
0.09092269326683292,-0.007459498919636015,
0.09097256857855361,-0.0018113655831668762,
0.09102244389027432,-0.007102478961112852,
0.09107231920199502,-0.0014405849576378084,
0.09112219451371571,-0.0017165286254176623,
0.09117206982543641,-0.010523947752898624,
0.0912219451371571,-0.03137100660919507,
0.0912718204488778,0.003926283999711972,
0.09132169576059851,-0.005490487913095445,
0.0913715710723192,-0.024017883985082963,
0.0914214463840399,0.0020952946079279347,
0.0914713216957606,-0.003558770735622886,
0.09152119700748129,-0.005816956969014352,
0.091571072319202,-0.00128620966764094,
0.0916209476309227,-0.0020359427438881037,
0.09167082294264339,-0.011524193842518592,
0.09172069825436409,-0.024935831572615048,
0.09177057356608478,-0.0003012330240949159,
0.09182044887780548,-0.007747393256615028,
0.09187032418952619,0.0031225998770726274,
0.09192019950124689,-0.01751633395203285,
0.09197007481296758,-0.007606045846140785,
0.09201995012468828,-0.024860574816396617,
0.09206982543640897,-0.024854419096560915,
0.09211970074812968,-0.015505390061897793,
0.09216957605985038,-0.0006633322560419663,
0.09221945137157107,0.0028000499819188784,
0.09226932668329177,-0.009313886022352108,
0.09231920199501246,-0.015602264086095066,
0.09236907730673316,-0.009008617818640189,
0.09241895261845387,-0.029592563516437867,
0.09246882793017457,-0.027350043416680184,
0.09251870324189526,-0.021556227308094707,
0.09256857855361596,0.007552225611630065,
0.09261845386533665,-0.026620647272184696,
0.09266832917705736,0.01719004142287939,
0.09271820448877806,0.0004797191760435703,
0.09276807980049875,-0.022286337329280308,
0.09281795511221945,-0.004829649325958609,
0.09286783042394015,-0.014107366396895879,
0.09291770573566084,-0.01825470576488585,
0.09296758104738155,-0.0011212568642998706,
0.09301745635910225,-0.00790894122886374,
0.09306733167082294,-0.008414086808798769,
0.09311720698254364,-0.023304079453813627,
0.09316708229426433,0.0008388557441602901,
0.09321695760598504,-0.025342633215816097,
0.09326683291770574,-0.021858934743880377,
0.09331670822942643,0.003986684659550873,
0.09336658354114713,0.007766756988752666,
0.09341645885286783,-0.019937553704149034,
0.09346633416458854,-0.017677956926436096,
0.09351620947630923,0.009810929822513501,
0.09356608478802993,-0.03610063222556803,
0.09361596009975062,0.006541927394567798,
0.09366583541147132,0.0034186162835583584,
0.09371571072319201,-0.018680093353110584,
0.09376558603491272,-0.03697339863815598,
0.09381546134663342,-0.003950060168782533,
0.09386533665835411,-0.04126901337540964,
0.09391521197007481,-0.018574168556769563,
0.0939650872817955,-0.022848840761550485,
0.09401496259351622,-0.02191708741433499,
0.09406483790523691,-0.026090814909507667,
0.09411471321695761,0.022799376623915076,
0.0941645885286783,-0.03288898396412581,
0.094214463840399,-0.006398039968387433,
0.0942643391521197,-0.033859995517195596,
0.0943142144638404,-0.01767826292847342,
0.0943640897755611,-0.012273654998693546,
0.0944139650872818,0.003728259246646541,
0.09446384039900249,0.0011542961772596158,
0.09451371571072319,-0.025686846518765113,
0.0945635910224439,-0.008279251883195289,
0.09461346633416459,-0.008880158665188024,
0.09466334164588529,0.0101001519153921,
0.09471321695760598,-0.005461052232285487,
0.09476309226932668,-0.020034328998169582,
0.09481296758104737,-0.0246997087902259,
0.09486284289276808,0.001178539460802857,
0.09491271820448878,0.004369944171466803,
0.09496259351620948,-0.022845940361570942,
0.09501246882793017,-0.0037796912832123233,
0.09506234413965087,-0.01845735682598626,
0.09511221945137158,-0.011430777304862152,
0.09516209476309227,0.011543307837814064,
0.09521197007481297,0.001623665264636736,
0.09526184538653366,0.02534023806505886,
0.09531172069825436,-0.02173982765619506,
0.09536159600997507,-0.008230797534343403,
0.09541147132169576,-0.012628613327214173,
0.09546134663341646,-0.02992501132028564,
0.09551122194513716,-0.023863613491546372,
0.09556109725685785,-0.018487631047488406,
0.09561097256857855,0.008200087398319789,
0.09566084788029926,-0.020674547562908128,
0.09571072319201995,-0.025319162145267277,
0.09576059850374065,-0.014361910758416972,
0.09581047381546134,-0.016273989128194076,
0.09586034912718204,-0.009959907228157034,
0.09591022443890275,-0.011385781693973284,
0.09596009975062345,0.005989528128581417,
0.09600997506234414,0.01777550724650094,
0.09605985037406484,-0.01976998323354843,
0.09610972568578553,-0.04873765286661694,
0.09615960099750623,0.002376965477483029,
0.09620947630922694,0.016145631607034014,
0.09625935162094763,-0.020367859711564205,
0.09630922693266833,-0.003572050500157101,
0.09635910224438902,0.00020798774801777942,
0.09640897755610972,-0.00880519010922059,
0.09645885286783043,-0.030429460417456318,
0.09650872817955113,-0.017632370843572553,
0.09655860349127182,-0.008168348572577505,
0.09660847880299252,-0.014137284218193404,
0.09665835411471321,-0.023196258028881374,
0.09670822942643391,0.002313679042750454,
0.09675810473815462,0.004763013419442464,
0.09680798004987531,-0.01352411461961599,
0.09685785536159601,-0.022155385140903476,
0.0969077306733167,-0.022445140315258214,
0.0969576059850374,-0.004686452988444743,
0.09700748129675811,0.004386526865981034,
0.0970573566084788,0.02250028553397379,
0.0971072319201995,0.013302953465001172,
0.0971571072319202,-0.007246242223350586,
0.0972069825436409,-0.008094394506344214,
0.09725685785536159,-0.024136281421345683,
0.0973067331670823,-0.0006663104709235569,
0.097356608478803,0.009089460410450077,
0.09740648379052369,-0.016285476526072932,
0.09745635910224439,-0.021003954522748988,
0.09750623441396508,0.006630169404296477,
0.09755610972568579,-0.029858779443433542,
0.09760598503740649,-0.006264925974777015,
0.09765586034912718,0.01947794257482712,
0.09770573566084788,-0.012859415020612858,
0.09775561097256857,-0.01372959407517561,
0.09780548628428928,-0.014383169190188737,
0.09785536159600998,0.014408711796516923,
0.09790523690773068,0.0023448139603633148,
0.09795511221945137,-0.016342482294193446,
0.09800498753117207,0.02153750573660425,
0.09805486284289276,0.004640217516506536,
0.09810473815461347,0.015126945368650481,
0.09815461346633417,-0.007454255809446664,
0.09820448877805486,-0.025900415225658276,
0.09825436408977556,-0.007059317117953106,
0.09830423940149625,0.004207170958608789,
0.09835411471321696,-0.015092451298334728,
0.09840399002493766,0.031052969147362813,
0.09845386533665836,0.024995823953659346,
0.09850374064837905,0.022572058129696863,
0.09855361596009975,0.011134773312731269,
0.09860349127182044,0.01790965525178808,
0.09865336658354115,0.01629905722436344,
0.09870324189526185,-0.021787034588559004,
0.09875311720698254,0.022021679016924024,
0.09880299251870324,0.04542199311385424,
0.09885286783042393,0.020389734719562395,
0.09890274314214464,0.01907048314065138,
0.09895261845386534,0.004398830752036523,
0.09900249376558604,-0.010210947035163075,
0.09905236907730673,0.04682435232720526,
0.09910224438902743,-0.0067025977511162484,
0.09915211970074812,-0.007812070188275129,
0.09920199501246883,0.013782513084514595,
0.09925187032418953,-0.0021452963443161456,
0.09930174563591022,-0.0006598358694394338,
0.09935162094763092,0.011001552194125276,
0.09940149625935162,-0.01726483573050208,
0.09945137157107233,0.006477430796668316,
0.09950124688279302,0.016968899059134186,
0.09955112219451372,0.012872093740499154,
0.09960099750623441,0.007883843755405871,
0.09965087281795511,-0.006188061627019235,
0.0997007481296758,0.007314475070042834,
0.09975062344139651,0.013593413527186533,
0.09980049875311721,0.02220397058820546,
0.0998503740648379,0.0053371475622633465,
0.0999002493765586,-0.0010969345223178165,
0.0999501246882793,-0.00024046673841583537,
0.1,0.008371642169695421,
0.1000498753117207,0.01868144390749407,
0.1000997506234414,0.02829286258956399,
0.10014962593516209,0.004487621847270844,
0.10019950124688279,0.03173432199120525,
0.1002493765586035,0.032431007033201856,
0.1002992518703242,0.01700914799523102,
0.10034912718204489,0.008622856484184467,
0.10039900249376559,0.013957795314142712,
0.10044887780548628,-0.01012032880350827,
0.10049875311720698,0.009675755123419201,
0.10054862842892769,0.014258665702088972,
0.10059850374064838,0.01059513316191881,
0.10064837905236908,0.015844533757614212,
0.10069825436408977,0.012623123195582554,
0.10074812967581047,0.03131581266907679,
0.10079800498753118,0.022378567633576683,
0.10084788029925187,-0.014730541084747185,
0.10089775561097257,-0.01002515863252243,
0.10094763092269327,0.02540011058611675,
0.10099750623441396,0.022459012659246817,
0.10104738154613466,0.034176983914457754,
0.10109725685785537,0.0060916783784344015,
0.10114713216957606,0.03784636243603716,
0.10119700748129676,0.02713383877283453,
0.10124688279301745,-0.001439498892907766,
0.10129675810473815,0.0262898513412672,
0.10134663341645886,0.033327653455959935,
0.10139650872817955,0.0021000695272742793,
0.10144638403990025,0.020033842115393663,
0.10149625935162095,0.01774593418954622,
0.10154613466334164,-0.00845906548696777,
0.10159600997506234,0.03437960950896299,
0.10164588528678305,0.022991304819211928,
0.10169576059850374,0.042999368737677804,
0.10174563591022444,0.024884071799371646,
0.10179551122194513,0.022280354599330573,
0.10184538653366583,0.040943131124690266,
0.10189526184538654,0.044123253221846556,
0.10194513715710724,0.005981026384533204,
0.10199501246882793,0.016840561880479804,
0.10204488778054863,0.05260363148074455,
0.10209476309226932,0.035004571953799406,
0.10214463840399003,0.01480876704943246,
0.10219451371571073,0.04666322085201321,
0.10224438902743142,0.04377895772726672,
0.10229426433915212,0.01973167608617042,
0.10234413965087281,0.023095034290871425,
0.10239401496259351,0.030408964555366735,
0.10244389027431422,0.03164928151656494,
0.10249376558603492,0.030544011787844168,
0.10254364089775561,0.013548407436180264,
0.10259351620947631,0.0383141215736717,
0.102643391521197,0.0318275448788123,
0.10269326683291771,0.046770061182957345,
0.10274314214463841,0.057519866876278386,
0.1027930174563591,0.008633694865125687,
0.1028428927680798,0.021417523196877945,
0.1028927680798005,0.03283933234242416,
0.10294264339152119,0.017194770945490156,
0.1029925187032419,0.027196678615773174,
0.1030423940149626,0.01651348532065982,
0.10309226932668329,0.019081955252901156,
0.10314214463840399,0.010637008787548485,
0.10319201995012468,0.03365796496669011,
0.10324189526184539,0.028428840924262636,
0.10329177057356609,0.022845932148872435,
0.10334164588528678,0.004163015769699713,
0.10339152119700748,0.024490829309796826,
0.10344139650872818,0.015742748139147618,
0.10349127182044887,0.03383963053045338,
0.10354114713216958,0.01720233781919542,
0.10359102244389028,0.04054236642258724,
0.10364089775561097,0.051369874446058277,
0.10369077306733167,0.05083222887414403,
0.10374064837905236,0.02125827499181617,
0.10379052369077307,0.019348037033535014,
0.10384039900249377,0.01656852964394199,
0.10389027431421446,0.013671530142417421,
0.10394014962593516,0.013097067397439672,
0.10399002493765586,0.051424150823129414,
0.10403990024937655,0.05438147913118113,
0.10408977556109726,0.02135832783364859,
0.10413965087281796,0.03599175500017201,
0.10418952618453865,0.0303660122706381,
0.10423940149625935,0.031836416919064,
0.10428927680798004,0.049933461819085964,
0.10433915211970075,0.006946103117343047,
0.10438902743142145,0.028771891804595984,
0.10443890274314215,0.028364231602313116,
0.10448877805486284,0.04867952708774061,
0.10453865336658354,0.021885921404928288,
0.10458852867830425,0.032409497368379704,
0.10463840399002494,0.011816423899221235,
0.10468827930174564,0.02125129060478731,
0.10473815461346633,0.029806726014356764,
0.10478802992518703,0.008487042734296072,
0.10483790523690772,0.016600437169466575,
0.10488778054862843,0.01797866230765631,
0.10493765586034913,0.030648958640814534,
0.10498753117206983,0.004622084699179057,
0.10503740648379052,0.026258998915914173,
0.10508728179551122,-0.011656769165327083,
0.10513715710723193,0.031583939034211285,
0.10518703241895262,0.04778437269321252,
0.10523690773067332,0.0504220322952162,
0.10528678304239401,0.04131956841825647,
0.10533665835411471,0.026985013833186886,
0.1053865336658354,0.0181466916152236,
0.10543640897755611,0.05302737792779453,
0.10548628428927681,0.004058572545969204,
0.1055361596009975,0.03492479136854,
0.1055860349127182,0.039372305015266174,
0.1056359102244389,0.02580036567829278,
0.10568578553615961,0.01481776865326172,
0.1057356608478803,-0.004615185997302269,
0.105785536159601,0.027339571189267935,
0.1058354114713217,0.037004359926332386,
0.10588528678304239,0.03373675853733853,
0.10593516209476309,0.055891924581093495,
0.1059850374064838,0.017280851849516585,
0.10603491271820449,0.03066142767934895,
0.10608478802992519,0.035108835225341584,
0.10613466334164588,0.01400469053805486,
0.10618453865336658,0.045317063825636016,
0.10623441396508729,0.04856466397790425,
0.10628428927680798,0.03226064615949663,
0.10633416458852868,0.02990166385727012,
0.10638403990024937,0.018813935077106374,
0.10643391521197007,0.006939177166102185,
0.10648379052369077,0.022159545869360996,
0.10653366583541148,0.03438327786686945,
0.10658354114713217,0.024035407878838167,
0.10663341645885287,0.02509596627983326,
0.10668329177057356,0.009337986974028732,
0.10673316708229426,0.023845654247372314,
0.10678304239401497,0.016476883624177728,
0.10683291770573566,0.008372931179520518,
0.10688279301745636,0.008357234873404288,
0.10693266832917706,0.04932871671328759,
0.10698254364089775,0.024831092379197138,
0.10703241895261846,0.0445726275988,
0.10708229426433916,0.0177086692709763,
0.10713216957605985,0.004301487328983403,
0.10718204488778055,0.0216276459335086,
0.10723192019950124,-0.02274568572272266,
0.10728179551122194,0.010138730113714928,
0.10733167082294265,0.0172722603442379,
0.10738154613466334,0.02538502229574352,
0.10743142144638404,0.024419426561441214,
0.10748129675810474,-0.0032972078450421577,
0.10753117206982543,0.011626979440755861,
0.10758104738154614,-0.0034670743119127392,
0.10763092269326684,0.03759855934749545,
0.10768079800498753,0.025615646239053234,
0.10773067331670823,0.022553593328775053,
0.10778054862842892,0.02037452262439962,
0.10783042394014962,0.032650085465035644,
0.10788029925187033,0.006031567316740073,
0.10793017456359102,0.01585203622902266,
0.10798004987531172,0.027709730615265923,
0.10802992518703242,0.00011688114343432789,
0.10807980049875311,0.011599323181180149,
0.10812967581047382,0.026915717734642994,
0.10817955112219452,0.02003947103226747,
0.10822942643391521,0.026121013164121656,
0.10827930174563591,1.8807001078374394e-05,
0.1083291770573566,0.005775564183971358,
0.1083790523690773,-0.0026202642685463837,
0.10842892768079801,0.012354513571882608,
0.1084788029925187,-0.011792507466065586,
0.1085286783042394,0.02135830130039324,
0.1085785536159601,0.012794950637676755,
0.10862842892768079,0.0030743413533126356,
0.1086783042394015,0.006111224122504281,
0.1087281795511222,-0.029128093432115455,
0.1087780548628429,0.024854162693697605,
0.10882793017456359,-0.007624084565861208,
0.10887780548628428,-0.018369906695473955,
0.108927680798005,0.0005181512170559267,
0.10897755610972569,0.004234817874883605,
0.10902743142144639,0.002793524762501421,
0.10907730673316708,0.03552042640474011,
0.10912718204488778,0.0320018870997323,
0.10917705735660847,-0.015402254991003072,
0.10922693266832918,0.011779890834385957,
0.10927680798004988,-0.009142211471391763,
0.10932668329177057,0.020560682314077528,
0.10937655860349127,-0.004673210410815361,
0.10942643391521197,0.005155580129727307,
0.10947630922693267,-0.016334084274332604,
0.10952618453865337,0.027183464627945297,
0.10957605985037407,0.007218527388972418,
0.10962593516209476,0.03268284052987346,
0.10967581047381546,0.032350673021777694,
0.10972568578553615,0.011867774606835925,
0.10977556109725686,-0.00016687940308127668,
0.10982543640897756,-0.0019314814933311976,
0.10987531172069825,0.025349934718359612,
0.10992518703241895,0.01437162120334414,
0.10997506234413965,0.00809441079049007,
0.11002493765586036,0.014908758400919275,
0.11007481296758105,-0.042609647736600496,
0.11012468827930175,-0.003114851111268039,
0.11017456359102244,-0.014788160749456816,
0.11022443890274314,-0.009342239235459151,
0.11027431421446383,0.004719362412610114,
0.11032418952618454,-0.00286606859039696,
0.11037406483790524,0.01956014698708478,
0.11042394014962593,-0.004889056248031358,
0.11047381546134663,0.004906875010201263,
0.11052369077306733,-0.00046211816842184415,
0.11057356608478804,0.00973379623766927,
0.11062344139650873,0.006438329491456077,
0.11067331670822943,0.009178626816155945,
0.11072319201995012,-0.003684176276395311,
0.11077306733167082,0.012451702871832707,
0.11082294264339151,-0.01523997350342928,
0.11087281795511222,0.022412393702340133,
0.11092269326683292,-0.012571292018112244,
0.11097256857855362,-0.004469459401326766,
0.11102244389027431,0.007265187965517303,
0.111072319201995,-0.03502671734053303,
0.11112219451371572,-0.00984702946329372,
0.11117206982543641,0.008446892406697023,
0.11122194513715711,-0.013623404051301018,
0.1112718204488778,0.013572153961015172,
0.1113216957605985,-0.00502340506596039,
0.11137157107231921,-0.002778958075805803,
0.1114214463840399,0.007182939455949049,
0.1114713216957606,0.02349168796491018,
0.1115211970074813,-0.005670526892132967,
0.11157107231920199,0.009339248020984802,
0.11162094763092269,0.019684797380807667,
0.1116708229426434,0.005926882024841464,
0.11172069825436409,-0.011399477839969252,
0.11177057356608479,0.005338966692313266,
0.11182044887780548,-0.01219045813185935,
0.11187032418952618,0.0006317252659472292,
0.11192019950124689,0.012223192289310613,
0.11197007481296758,0.014834465569911357,
0.11201995012468828,0.012354055365692172,
0.11206982543640898,0.020846483123038016,
0.11211970074812967,0.008281600706636093,
0.11216957605985037,-0.023223870374552036,
0.11221945137157108,-0.01976733849615809,
0.11226932668329177,-0.01495972653438818,
0.11231920199501247,-0.019447671142467413,
0.11236907730673316,0.003363258756224669,
0.11241895261845386,-0.028962061421850604,
0.11246882793017457,0.01646017738469538,
0.11251870324189527,-0.0321555620995901,
0.11256857855361596,-0.007235603777303112,
0.11261845386533666,0.0016017372480828154,
0.11266832917705735,-0.009541338083653306,
0.11271820448877805,-0.01638527404605557,
0.11276807980049876,-0.01773338364638465,
0.11281795511221945,0.009428343708124195,
0.11286783042394015,-0.005731153970062755,
0.11291770573566084,-0.01916239363542698,
0.11296758104738154,-0.03476376841507185,
0.11301745635910225,-0.02436093476745546,
0.11306733167082295,-0.011024178757113406,
0.11311720698254364,-0.016432868357241746,
0.11316708229426434,0.0035732682288455078,
0.11321695760598503,-0.02125912042784642,
0.11326683291770574,0.011091048450838316,
0.11331670822942644,-0.01322497249612926,
0.11336658354114713,-0.009886995579387365,
0.11341645885286783,-0.012093086384546965,
0.11346633416458853,-0.015969363470335646,
0.11351620947630922,0.022096073899972785,
0.11356608478802993,0.011024659256585643,
0.11361596009975063,-0.0203513565975288,
0.11366583541147132,-0.002248120580781646,
0.11371571072319202,-0.02845756611521541,
0.11376558603491271,-0.03512766354765561,
0.11381546134663342,0.018205847128652582,
0.11386533665835412,0.021572988753330774,
0.11391521197007481,-0.013504088138366468,
0.11396508728179551,-0.008325613526771133,
0.1140149625935162,-0.01477071706230749,
0.1140648379052369,0.014654874634697597,
0.11411471321695761,-0.010089656442725414,
0.1141645885286783,-0.008636677867442037,
0.114214463840399,-0.022446726950919427,
0.1142643391521197,0.0025166392697783795,
0.1143142144638404,-0.011044868356921004,
0.1143640897755611,-0.010726059581065588,
0.1144139650872818,-0.009866244445924804,
0.1144638403990025,-0.037538103129811,
0.11451371571072319,-0.018445862569589522,
0.11456359102244389,0.014396078759995962,
0.11461346633416458,0.023677367838863067,
0.11466334164588529,-0.022693021671486256,
0.11471321695760599,-0.019323108523565086,
0.11476309226932668,-0.04038070204844277,
0.11481296758104738,-0.02831405404366948,
0.11486284289276807,0.0055164336292359804,
0.11491271820448878,-0.014175537654518618,
0.11496259351620948,-0.022628194029787642,
0.11501246882793018,-0.012035777289612568,
0.11506234413965087,0.001590910676127516,
0.11511221945137157,-0.021806348505284456,
0.11516209476309226,-0.03658672419406759,
0.11521197007481297,-0.01207774726453328,
0.11526184538653367,-0.009433152908529384,
0.11531172069825436,-0.015478623462740298,
0.11536159600997506,-0.006017021174459503,
0.11541147132169575,-0.012759305724166817,
0.11546134663341646,0.005660434158028955,
0.11551122194513716,-0.018348208826740244,
0.11556109725685786,-0.008296304811536225,
0.11561097256857855,-0.011872848253992962,
0.11566084788029925,-0.022281485868255048,
0.11571072319201996,-0.028530445808798058,
0.11576059850374065,-0.03886817235090943,
0.11581047381546135,-0.00484575302427078,
0.11586034912718204,-0.011004579190834508,
0.11591022443890274,0.005785429808078703,
0.11596009975062344,-0.033918206458693714,
0.11600997506234415,-0.003338187749966615,
0.11605985037406484,-0.009108926087460879,
0.11610972568578554,0.0005535904019202103,
0.11615960099750623,-0.040136580631264275,
0.11620947630922693,0.012876035132212386,
0.11625935162094764,-0.008032651472804825,
0.11630922693266833,-0.019930285414695492,
0.11635910224438903,-0.02436461450700273,
0.11640897755610972,-0.020962451598855642,
0.11645885286783042,-0.014415229195946606,
0.11650872817955112,-0.007032225943630219,
0.11655860349127183,0.004164880675466729,
0.11660847880299252,-0.006550062399980317,
0.11665835411471322,-0.009500029413589803,
0.11670822942643391,-0.007728198508488866,
0.11675810473815461,0.0033640234315026555,
0.11680798004987532,0.00028145189259428695,
0.11685785536159601,0.007458209552184396,
0.11690773067331671,-0.0019088096464218761,
0.1169576059850374,-0.012716018684151972,
0.1170074812967581,0.010952603338148105,
0.1170573566084788,-0.01650591102653401,
0.1171072319201995,0.00844840494226452,
0.1171571072319202,-0.005151364386269048,
0.1172069825436409,0.02485909671678896,
0.1172568578553616,-0.041728651784399204,
0.11730673316708229,-0.02542230168226932,
0.117356608478803,0.01089266831085056,
0.1174064837905237,-3.349108615189212e-05,
0.11745635910224439,0.007525579254167605,
0.11750623441396509,-0.02327923637076923,
0.11755610972568578,-0.00566644136446474,
0.11760598503740648,-0.0003872748995841169,
0.11765586034912719,0.011216897014117625,
0.11770573566084788,-0.02958562724368788,
0.11775561097256858,0.008433796008586035,
0.11780548628428927,-0.011529787787934424,
0.11785536159600997,0.00024999039223754654,
0.11790523690773068,0.0031487585187754998,
0.11795511221945137,0.01791149056610268,
0.11800498753117207,0.006829989601403491,
0.11805486284289277,-0.01972996437178837,
0.11810473815461346,-0.013969877859329731,
0.11815461346633417,0.0215092585005946,
0.11820448877805487,-0.01754791583784409,
0.11825436408977556,0.010217319478854636,
0.11830423940149626,0.00153470207204513,
0.11835411471321695,-0.005102626384621653,
0.11840399002493765,0.023466076691110643,
0.11845386533665836,-0.03733700413263406,
0.11850374064837906,-0.0006686875478386211,
0.11855361596009975,-0.00887726207738492,
0.11860349127182045,0.008720269091218476,
0.11865336658354114,0.013756184628965967,
0.11870324189526185,0.01899539286073714,
0.11875311720698255,0.031477543736487035,
0.11880299251870324,-0.034588232157275384,
0.11885286783042394,0.013191332605383084,
0.11890274314214463,0.029529078708101928,
0.11895261845386533,-0.0011028668427778433,
0.11900249376558604,-0.020815403877297224,
0.11905236907730674,-0.018702861660740186,
0.11910224438902743,0.0028690996962465005,
0.11915211970074813,0.01368244697758862,
0.11920199501246882,0.00943473091525638,
0.11925187032418953,0.019978221040812063,
0.11930174563591023,0.014572229421449652,
0.11935162094763092,0.0018517184566608415,
0.11940149625935162,0.022040942484798626,
0.11945137157107232,0.00953817634551875,
0.11950124688279301,0.027586389279676327,
0.11955112219451372,0.0245398332248307,
0.11960099750623442,-0.008345316591465972,
0.11965087281795511,0.014650546301055799,
0.11970074812967581,-0.008037864243254545,
0.1197506234413965,0.028609625120274727,
0.11980049875311721,0.012845586850629875,
0.11985037406483791,0.0201036489466695,
0.1199002493765586,0.009422076856008254,
0.1199501246882793,0.03316573875494769,
0.12,0.01942904906615313,
0.1200498753117207,0.00955845883308225,
0.1200997506234414,0.025521855812488982,
0.1201496259351621,0.004374917715720484,
0.12019950124688279,0.02766471377482384,
0.12024937655860349,0.017075537455309223,
0.12029925187032418,0.016871734943431006,
0.1203491271820449,0.019011390418983424,
0.12039900249376559,-0.013441594165874815,
0.12044887780548628,0.003489602060302268,
0.12049875311720698,0.01542302177501769,
0.12054862842892768,-0.009407109985023938,
0.12059850374064839,0.03002319306375067,
0.12064837905236908,0.014549372269076766,
0.12069825436408978,0.016308439409257157,
0.12074812967581047,0.012350107068675696,
0.12079800498753117,-0.0021496608775776124,
0.12084788029925186,0.0032063485084066513,
0.12089775561097257,0.03416196986561559,
0.12094763092269327,0.009928050714303732,
0.12099750623441397,0.015298081114540583,
0.12104738154613466,0.016238540173631744,
0.12109725685785536,0.006843675299637175,
0.12114713216957607,0.043307668397524306,
0.12119700748129676,0.0017632732107537227,
0.12124688279301746,0.030515029048224313,
0.12129675810473815,0.024009759341474105,
0.12134663341645885,0.02584338704147139,
0.12139650872817954,0.03068434749511592,
0.12144638403990025,0.01687365995548103,
0.12149625935162095,0.01717958865801235,
0.12154613466334165,0.0013620363795050182,
0.12159600997506234,0.005845178672720389,
0.12164588528678304,0.014582569846660775,
0.12169576059850375,0.012309752616293477,
0.12174563591022444,0.009495986532622692,
0.12179551122194514,0.0622258627317325,
0.12184538653366583,-0.0031680945663123093,
0.12189526184538653,0.01619971785304817,
0.12194513715710723,0.005289141384904359,
0.12199501246882793,-0.0017054052343540918,
0.12204488778054863,0.016602447887275502,
0.12209476309226933,0.03136602418047052,
0.12214463840399002,0.011882261673106163,
0.12219451371571072,0.0387160119457402,
0.12224438902743143,0.03592424979258663,
0.12229426433915212,0.03892961896888586,
0.12234413965087282,0.019966603643860797,
0.12239401496259351,-0.001996528907526437,
0.12244389027431421,0.055730276962945344,
0.12249376558603492,0.031878874968962016,
0.12254364089775562,0.0007107604525322143,
0.12259351620947631,0.04692897228197923,
0.122643391521197,0.039381161653716135,
0.1226932668329177,0.014803978759088116,
0.1227431421446384,0.05892786368666688,
0.12279301745635911,0.04223940520999625,
0.1228428927680798,0.03451882829473148,
0.1228927680798005,0.016714616038371134,
0.1229426433915212,0.030418232162966276,
0.12299251870324189,0.032747851658529,
0.1230423940149626,0.02386393485448087,
0.1230922693266833,0.05273537959270623,
0.12314214463840399,0.012056862573598583,
0.12319201995012469,0.021108007836245158,
0.12324189526184538,0.03561495040796893,
0.12329177057356608,0.038291801079158,
0.12334164588528679,0.05322932487141803,
0.12339152119700748,0.019791476237707675,
0.12344139650872818,0.030811643714269553,
0.12349127182044888,0.04886391779744386,
0.12354114713216957,0.04594657441005062,
0.12359102244389028,0.02766967644006364,
0.12364089775561098,0.053240365736793485,
0.12369077306733167,0.028195789335903255,
0.12374064837905237,0.03257395169010217,
0.12379052369077306,0.03148910781112099,
0.12384039900249376,0.022208902499352593,
0.12389027431421447,0.02215382709995899,
0.12394014962593516,0.011375262169639095,
0.12399002493765586,0.012625318895733893,
0.12403990024937656,0.03216882949229379,
0.12408977556109725,0.051539361854602644,
0.12413965087281796,0.022306480106951642,
0.12418952618453866,0.033049261946965815,
0.12423940149625935,0.019769219162347217,
0.12428927680798005,0.02780114034137314,
0.12433915211970074,0.04967003091890075,
0.12438902743142144,0.02106355641532285,
0.12443890274314215,0.013823314527122162,
0.12448877805486284,0.03641812233330191,
0.12453865336658354,0.012024735640575865,
0.12458852867830424,0.03714537529355234,
0.12463840399002493,0.028019922686547166,
0.12468827930174564,0.04334274086742082,
0.12473815461346634,0.023689729316930225,
0.12478802992518703,0.006306063373883314,
0.12483790523690773,-0.002738558560996557,
0.12488778054862842,0.05285254886328039,
0.12493765586034913,0.03523325170910729,
0.12498753117206983,0.034320774622332524,
0.12503740648379053,0.048514043572093615,
0.12508728179551123,0.042243669387037545,
0.12513715710723192,0.026091639255682177,
0.12518703241895263,0.016057399173871743,
0.1252369077306733,0.04314629649742206,
0.12528678304239402,0.035732254158909044,
0.1253366583541147,0.010591808599941584,
0.1253865336658354,0.01008858139488972,
0.12543640897755612,0.020992824731190463,
0.1254862842892768,0.02736611575757156,
0.1255361596009975,0.020853990233166197,
0.1255860349127182,-0.0060530584172887245,
0.1256359102244389,0.03293530277440945,
0.1256857855361596,0.013103001204980896,
0.1257356608478803,0.05207955464940952,
0.125785536159601,0.027667639024338574,
0.12583541147132168,0.0405119010040906,
0.1258852867830424,0.040426499339576406,
0.1259351620947631,0.016527367487185023,
0.12598503740648379,0.022066805295112096,
0.1260349127182045,0.030705180001940932,
0.12608478802992518,0.038967053271009855,
0.1261346633416459,0.016848330581645324,
0.1261845386533666,0.03844017884260115,
0.12623441396508728,0.020112527919266075,
0.126284289276808,0.019401829592535468,
0.12633416458852867,0.06224530399606441,
0.12638403990024938,0.018157323289791756,
0.1264339152119701,0.034620798125046905,
0.12648379052369077,0.021614308284121343,
0.12653366583541148,0.05136703012459427,
0.12658354114713216,0.023757498698650778,
0.12663341645885287,0.038301980082338094,
0.12668329177057355,0.030599325593208073,
0.12673316708229426,0.047562678276112366,
0.12678304239401497,0.025913690794815057,
0.12683291770573565,0.017779862425987773,
0.12688279301745636,0.05923386610006254,
0.12693266832917705,-0.014944454344661316,
0.12698254364089775,0.018979286687208694,
0.12703241895261846,0.0150205449716816,
0.12708229426433915,0.02030520273253106,
0.12713216957605986,0.02653731186088473,
0.12718204488778054,0.06162260346946782,
0.12723192019950125,0.011964125482911451,
0.12728179551122196,0.028855075813298027,
0.12733167082294264,0.03786559589056228,
0.12738154613466335,-0.00704442683467766,
0.12743142144638403,0.0030887950131995336,
0.12748129675810474,0.011393311489309057,
0.12753117206982545,0.04757294561647178,
0.12758104738154613,0.022667271345264396,
0.12763092269326684,-0.005099335048992033,
0.12768079800498752,0.0058130923175788805,
0.12773067331670823,0.017109088979824688,
0.1277805486284289,0.0302361638958459,
0.12783042394014962,0.017401654511349524,
0.12788029925187033,0.02036730497275573,
0.12793017456359101,0.01810964224280133,
0.12798004987531172,0.046025347243766446,
0.1280299251870324,0.027118750296517884,
0.12807980049875312,0.021177547434483815,
0.12812967581047383,0.01725090588857361,
0.1281795511221945,-0.0014040346023253963,
0.12822942643391522,0.007393940355992241,
0.1282793017456359,0.024879850776573616,
0.1283291770573566,0.023826042087781357,
0.12837905236907732,0.01318701964254717,
0.128428927680798,0.03616419361991995,
0.1284788029925187,0.022305383720267788,
0.1285286783042394,0.0018148955559818374,
0.1285785536159601,0.008005278225884352,
0.1286284289276808,0.0069384674155031165,
0.1286783042394015,0.021499827427831117,
0.1287281795511222,0.01861245082486635,
0.12877805486284288,0.008270348432712675,
0.1288279301745636,0.006142508305689316,
0.1288778054862843,0.03209602111026981,
0.12892768079800498,0.012231296352597757,
0.1289775561097257,0.014110609939508646,
0.12902743142144638,0.01888766544475787,
0.12907730673316709,0.02031919466479138,
0.12912718204488777,0.021568832783554162,
0.12917705735660848,0.005059406984538086,
0.1292269326683292,0.026104766765617557,
0.12927680798004987,0.023514283937291772,
0.12932668329177058,0.007252860783642834,
0.12937655860349126,0.013280372102452268,
0.12942643391521197,0.02703938377661496,
0.12947630922693268,0.006183591134272688,
0.12952618453865336,0.015086602488146592,
0.12957605985037407,0.010048504689247166,
0.12962593516209475,0.02927473364941459,
0.12967581047381546,0.008617437764175078,
0.12972568578553617,0.01211706071234587,
0.12977556109725685,0.005404857415211538,
0.12982543640897756,0.014404772451642867,
0.12987531172069824,-0.006069046676893414,
0.12992518703241895,0.003394243497201198,
0.12997506234413966,0.017337628071890303,
0.13002493765586035,-0.011299771557043837,
0.13007481296758105,0.02356695808209188,
0.13012468827930174,-6.518782389955662e-05,
0.13017456359102245,0.02690691215336691,
0.13022443890274316,0.00771106376091163,
0.13027431421446384,0.0312526491325699,
0.13032418952618455,0.00480582411402238,
0.13037406483790523,0.015035432471689841,
0.13042394014962594,-0.004059168591511314,
0.13047381546134662,0.007267734195188861,
0.13052369077306733,-0.02902952534185267,
0.13057356608478804,0.027923431959073083,
0.13062344139650872,0.020305230759956393,
0.13067331670822943,0.001430838427781379,
0.1307231920199501,0.00121663982967653,
0.13077306733167082,0.009750963711960305,
0.13082294264339153,0.0016622119327699902,
0.13087281795511221,-0.004278767721419422,
0.13092269326683292,-0.020366665586814353,
0.1309725685785536,-0.01075453228937456,
0.13102244389027431,0.01105953119962091,
0.13107231920199502,-0.006213265070967022,
0.1311221945137157,0.018735992025408023,
0.13117206982543642,0.005022010448918631,
0.1312219451371571,-0.013834908832466648,
0.1312718204488778,0.008741052326536306,
0.13132169576059852,-0.012063181232038186,
0.1313715710723192,0.01263104223174583,
0.1314214463840399,-0.008089366116200428,
0.1314713216957606,-0.03302315986277635,
0.1315211970074813,-0.03201190552828639,
0.13157107231920198,-0.02092917609543419,
0.1316209476309227,0.011792546668981767,
0.1316708229426434,-0.013345898012930955,
0.13172069825436408,-0.014321028183025716,
0.1317705735660848,0.009490673974356927,
0.13182044887780547,-0.001822310641934396,
0.13187032418952618,-0.004068235335791839,
0.1319201995012469,-0.020081834465461537,
0.13197007481296757,0.00971128565781786,
0.13201995012468828,-0.0012003795866549543,
0.13206982543640897,0.0074589178341501906,
0.13211970074812968,-0.021379784832295322,
0.13216957605985039,-0.03575241569330619,
0.13221945137157107,-0.010826872388600108,
0.13226932668329178,0.007551242868498797,
0.13231920199501246,-0.0136006576443031,
0.13236907730673317,-0.010463000586032278,
0.13241895261845388,-0.007020408722342681,
0.13246882793017456,-0.014160600931354909,
0.13251870324189527,0.015659193713380964,
0.13256857855361595,-0.0009688188091709488,
0.13261845386533666,-0.021414212392677573,
0.13266832917705737,-0.006939852118341218,
0.13271820448877805,0.021707200275129415,
0.13276807980049876,0.005516567528380995,
0.13281795511221944,-0.011028273665976944,
0.13286783042394015,-0.012002259031104946,
0.13291770573566083,-0.02601224994120585,
0.13296758104738154,-0.025827357854502152,
0.13301745635910225,0.011649669647443574,
0.13306733167082294,-0.018914900232282716,
0.13311720698254365,-0.020665386278219372,
0.13316708229426433,-0.018582421752561844,
0.13321695760598504,0.007395979686235961,
0.13326683291770575,0.012710915371070223,
0.13331670822942643,0.009991354368771615,
0.13336658354114714,0.014501359859904965,
0.13341645885286782,-0.009355093466703912,
0.13346633416458853,-0.012712892065818177,
0.13351620947630924,-0.005807059705412064,
0.13356608478802992,-0.0013620433844583665,
0.13361596009975063,0.004483159077148554,
0.1336658354114713,0.017286424184963584,
0.13371571072319202,-0.03044316833717671,
0.13376558603491273,-0.007884631005056953,
0.1338154613466334,-0.0059686623648345025,
0.13386533665835412,-0.021827911969985993,
0.1339152119700748,-0.007982015784789165,
0.13396508728179551,-0.0004188918389467465,
0.1340149625935162,-0.02299776185530305,
0.1340648379052369,-0.015719479540379184,
0.13411471321695762,0.007682711929283163,
0.1341645885286783,-0.02809639671407211,
0.134214463840399,0.019048571363758645,
0.1342643391521197,-0.013954177795135957,
0.1343142144638404,-0.03400712128891112,
0.1343640897755611,-0.015980348640089948,
0.1344139650872818,-0.023553476768711272,
0.1344638403990025,-0.025205765682333854,
0.13451371571072318,-0.030532165225733668,
0.1345635910224439,0.004259872668535744,
0.1346134663341646,-0.0011013429199687626,
0.13466334164588528,-0.017557190894031592,
0.134713216957606,0.012724144862922195,
0.13476309226932667,-0.009523570585001478,
0.13481296758104738,-0.02466662157441269,
0.1348628428927681,0.0032645074007032655,
0.13491271820448877,-0.027299956196710946,
0.13496259351620948,-0.005203836252899862,
0.13501246882793017,-0.0032446539470670837,
0.13506234413965088,-0.004471717878299483,
0.13511221945137158,-0.02154327642146621,
0.13516209476309227,-0.03801554932614467,
0.13521197007481298,-0.024000302690451645,
0.13526184538653366,-0.015149394080009407,
0.13531172069825437,-0.0044511384435989,
0.13536159600997505,-0.03550536007535592,
0.13541147132169576,-0.028252399966611993,
0.13546134663341647,0.004422978259505005,
0.13551122194513715,-0.01666283544357849,
0.13556109725685786,0.006937419020712753,
0.13561097256857854,-0.017789635640309914,
0.13566084788029925,-0.0019954288445690376,
0.13571072319201996,0.007965407232369527,
0.13576059850374064,-0.030298137164795038,
0.13581047381546135,0.005750141520110004,
0.13586034912718203,-0.017736463597563965,
0.13591022443890274,-0.023173690402110803,
0.13596009975062345,-0.022164430198975047,
0.13600997506234414,-0.013611771239289524,
0.13605985037406484,-0.00017796333390554704,
0.13610972568578553,-0.02650039941581294,
0.13615960099750624,-0.012136121459616196,
0.13620947630922695,0.013291806803689738,
0.13625935162094763,-0.025220834473880824,
0.13630922693266834,0.0006292048770199475,
0.13635910224438902,0.0029764030531445277,
0.13640897755610973,0.0055195780664948,
0.1364588528678304,0.011916552667746348,
0.13650872817955112,-0.009578561053420007,
0.13655860349127183,0.02168671822901353,
0.1366084788029925,0.008349695536088669,
0.13665835411471322,-0.0030733570012249816,
0.1367082294264339,0.008629635090486547,
0.1367581047381546,-0.03215423597638777,
0.13680798004987532,-0.006616406922776176,
0.136857855361596,-0.0180424097225165,
0.1369077306733167,-0.01095225046606442,
0.1369576059850374,-0.011790814255114666,
0.1370074812967581,0.000657181067590606,
0.13705735660847881,-0.004807011430925573,
0.1371072319201995,0.010833230572884604,
0.1371571072319202,-0.025790630278836706,
0.1372069825436409,-0.0059021699864166485,
0.1372568578553616,0.01153745308597862,
0.1373067331670823,-0.022632186498386893,
0.137356608478803,0.0082108418521461,
0.1374064837905237,-0.00923185826907034,
0.13745635910224438,0.0008514122703887886,
0.1375062344139651,0.02521194856929724,
0.1375561097256858,-0.010258986716410427,
0.13760598503740648,-0.014907409536341013,
0.1376558603491272,0.008651222559960382,
0.13770573566084787,-0.01043436040971365,
0.13775561097256858,0.007779168002037307,
0.13780548628428926,-0.00135545066107335,
0.13785536159600997,0.022009014879876197,
0.13790523690773068,0.01580706528663755,
0.13795511221945136,-0.012297059596269143,
0.13800498753117207,-0.008341969596793668,
0.13805486284289276,-0.006274926676678531,
0.13810473815461347,-0.016235760258539567,
0.13815461346633418,0.005721144242033272,
0.13820448877805486,0.018451171699884396,
0.13825436408977557,-0.013272889438919667,
0.13830423940149625,-0.007213750609585014,
0.13835411471321696,0.04224055925830352,
0.13840399002493767,0.00743826714703676,
0.13845386533665835,0.03228947072135992,
0.13850374064837906,0.00276778721989894,
0.13855361596009974,0.036947246116629244,
0.13860349127182045,-0.01853237497617362,
0.13865336658354116,0.024199142333959932,
0.13870324189526184,-0.0017937208410492463,
0.13875311720698255,-0.005051616152555202,
0.13880299251870323,0.01088346825029453,
0.13885286783042394,0.006119507997780876,
0.13890274314214462,0.022662002068179685,
0.13895261845386533,0.001302816400229295,
0.13900249376558604,0.013649752094850483,
0.13905236907730673,-0.0005784685946908508,
0.13910224438902744,-0.004553298718932636,
0.13915211970074812,0.00036793308698599564,
0.13920199501246883,0.008958359617171785,
0.13925187032418954,0.011990992359253837,
0.13930174563591022,0.007860020048301978,
0.13935162094763093,0.02132935375724679,
0.1394014962593516,-0.0008879892221347607,
0.13945137157107232,0.015682817599521063,
0.13950124688279303,-0.019817953415667118,
0.1395511221945137,0.008468174558162065,
0.13960099750623442,0.013712611168895114,
0.1396508728179551,-0.005059278652753841,
0.1397007481296758,0.01360415130736051,
0.13975062344139652,-0.016893297657944572,
0.1398004987531172,0.03219014454220727,
0.1398503740648379,0.0242066134867494,
0.1399002493765586,0.018009415738418345,
0.1399501246882793,0.02250951415769017,
0.14,0.018416855065442637,
0.1400498753117207,0.0023039844130057774,
0.1400997506234414,0.01983276584488432,
0.1401496259351621,0.0053674837830652074,
0.1401995012468828,0.023303599404600334,
0.14024937655860348,-0.0025171191608362974,
0.1402992518703242,0.02433012357998704,
0.1403491271820449,0.033624993333419825,
0.14039900249376558,0.024774096557282355,
0.1404488778054863,0.03534743481054241,
0.14049875311720697,0.021357537453559502,
0.14054862842892768,0.050542723788875824,
0.1405985037406484,0.045158508098847805,
0.14064837905236907,0.013994970285964227,
0.14069825436408978,0.015579499146242848,
0.14074812967581046,0.016516415712844356,
0.14079800498753117,0.018160172338306527,
0.14084788029925188,-0.0007334032455767955,
0.14089775561097256,0.03996475819896331,
0.14094763092269327,0.024419944042132307,
0.14099750623441396,0.0075649206665748675,
0.14104738154613466,0.039587125823939306,
0.14109725685785537,0.0019880673892809925,
0.14114713216957606,0.012750884568802176,
0.14119700748129677,0.031148292540253204,
0.14124688279301745,0.03454310674535504,
0.14129675810473816,-0.0067969637767009705,
0.14134663341645887,0.03543104666813124,
0.14139650872817955,-0.011328905289028936,
