time,amplitude
0.0,0.009043042926361688
4.987531172069826e-05,0.04236792051990711
9.975062344139652e-05,0.01944684494172536
0.00014962593516209475,0.013571058110620812
0.00019950124688279303,0.028583160716433582
0.00024937655860349125,0.01777937126856816
0.0002992518703241895,0.018884815777809733
0.00034912718204488776,0.04918755195317617
0.00039900249376558606,-0.019263491519934242
0.0004488778054862843,0.015634087864361698
0.0004987531172069825,0.015960378546556117
0.0005486284289276808,0.011616739181111052
0.000598503740648379,0.031199729528248184
0.0006483790523690773,0.0340173097574847
0.0006982543640897755,0.016764220928751246
0.0007481296758104738,0.017932143534641537
0.0007980049875311721,0.025441264848895383
0.0008478802992518703,0.015293729930825476
0.0008977556109725686,0.024594824591980327
0.0009476309226932668,0.022001934197361944
0.000997506234413965,0.03947339091324552
0.0010473815461346633,0.00011059717510646452
0.0010972568578553616,0.018347520213294163
0.00114713216957606,0.022952350090938097
0.001197007481296758,0.012931624267979495
0.0012468827930174563,0.02208029127619481
0.0012967581047381546,0.04079474646337733
0.001346633416458853,-0.014624513623124537
0.001396508728179551,0.01736346709974758
0.0014463840399002493,0.006259022954957826
0.0014962593516209476,0.013522499737990357
0.001546134663341646,0.01622419562869492
0.0015960099750623442,0.03815275732147337
0.0016458852867830423,0.037479317639831033
0.0016957605985037406,0.03823377193990521
0.001745635910224439,0.03672808708215799
0.0017955112219451373,0.015761249900270703
0.0018453865336658353,0.013151403744996678
0.0018952618453865336,0.031076195919289357
0.001945137157107232,0.038304482542401215
0.00199501246882793,0.0429404230794218
0.0020448877805486283,0.02604821924694987
0.0020947630922693266,0.032984332558594794
0.002144638403990025,0.02427339779975414
0.0021945137157107233,0.024019643183970787
0.0022443890274314216,0.002640625414621709
0.00229426433915212,0.022661287529901784
0.0023441396508728177,0.042500415885363976
0.002394014962593516,0.016162850570489905
0.0024438902743142144,0.02293116494096998
0.0024937655860349127,0.013155451009239061
0.002543640897755611,0.014892600474747681
0.0025935162094763093,0.03846342224699323
0.0026433915211970076,0.012679531310916169
0.002693266832917706,0.008177627763870064
0.002743142144638404,0.000546788415008357
0.002793017456359102,0.03490827191324123
0.0028428927680798004,0.03905939712202655
0.0028927680798004987,0.028467096708109606
0.002942643391521197,0.035143592330467474
0.0029925187032418953,0.03785357471324592
0.0030423940149625936,0.016259097431898538
0.003092269326683292,0.017868045589796416
0.00314214463840399,0.03645419176543911
0.0031920199501246885,0.03246616139787112
0.0032418952618453864,0.0023801200436562517
0.0032917705735660847,0.006623423411467469
0.003341645885286783,0.0040098970985692935
0.0033915211970074813,-0.009011228449264424
0.0034413965087281796,0.02730645171482373
0.003491271820448878,0.026023933684021304
0.003541147132169576,0.023192087699336235
0.0035910224438902745,0.009149614610852137
0.0036408977556109724,-0.004215129707512191
0.0036907730673316707,-0.00037905865719455034
0.003740648379052369,0.031030308379678143
0.0037905236907730673,0.008658608813697602
0.0038403990024937656,0.0009536459212185558
0.003890274314214464,0.02846259949803537
0.003940149625935162,0.022058246792553242
0.00399002493765586,0.010448683228243742
0.004039900249376558,0.00642901477639504
0.004089775561097257,0.012495443602568101
0.004139650872817955,0.021013056258207194
0.004189526184538653,0.03519110877140172
0.004239401496259352,0.019881199995768047
0.00428927680798005,0.001888962566467969
0.004339152119700748,0.002174432260256945
0.0043890274314214465,-0.03047782239263119
0.004438902743142145,0.03701600035293317
0.004488778054862843,-0.0029106738470547847
0.004538653366583541,-0.00442815174979003
0.00458852867830424,0.020330243457713396
0.004638403990024938,0.01834066857159025
0.0046882793017456355,0.015957947823506242
0.004738154613466334,0.013506705834786253
0.004788029925187032,-0.007553688559947229
0.00483790523690773,0.011971447435830954
0.004887780548628429,0.001059846027931668
0.004937655860349127,0.013327249900255382
0.004987531172069825,0.050736614215192065
0.005037406483790524,-0.005234439326344806
0.005087281795511222,0.02493784639749593
0.00513715710723192,0.02344722604861938
0.0051870324189526185,0.016085237964987724
0.005236907730673317,-0.00673395816305657
0.005286783042394015,0.015741532505940847
0.0053366583541147134,0.004756419214824441
0.005386533665835412,-0.006275882019702227
0.00543640897755611,-0.017300859388840947
0.005486284289276808,0.005747388918283738
0.005536159600997507,-0.0035603479215738053
0.005586034912718204,0.02441504759967182
0.005635910224438902,0.00031636780557871627
0.005685785536159601,0.001537874158747858
0.005735660847880299,-0.005654302797918179
0.005785536159600997,0.00939415015687822
0.005835411471321696,0.01379460522585865
0.005885286783042394,0.003487681109030974
0.005935162094763092,0.02298746067993167
0.0059850374064837905,0.00406466906212709
0.006034912718204489,-0.006975664322828756
0.006084788029925187,-0.023302873477924185
0.0061346633416458855,0.018886901587078658
0.006184538653366584,0.007427094756258341
0.006234413965087282,-0.026312491108088615
0.00628428927680798,-0.01677263303821457
0.006334164588528679,-0.011299725864119538
0.006384039900249377,0.00610755148892913
0.006433915211970074,0.018993315849922452
0.006483790523690773,0.01383634357759494
0.006533665835411471,0.028254938549999633
0.006583541147132169,-0.0022872148866786316
0.006633416458852868,0.0028323755287305162
0.006683291770573566,-0.008302738841091777
0.006733167082294264,-0.008817571479617849
0.0067830423940149626,-0.009789519275406383
0.006832917705735661,0.003373353813187684
0.006882793017456359,-0.002797316640187908
0.0069326683291770575,-0.003837938134997613
0.006982543640897756,0.015836623246713158
0.007032418952618454,-0.00329399563690809
0.007082294264339152,0.004605311908964561
0.007132169576059851,0.026699930438512924
0.007182044887780549,-0.019219095020590483
0.007231920199501247,0.011258236910276373
0.007281795511221945,-0.012931819843394306
0.007331670822942643,0.0003316491591249422
0.007381546134663341,-0.005531962302917227
0.00743142144638404,0.0020169539869775823
0.007481296758104738,-0.00265260059568234
0.007531172069825436,0.001987721101973052
0.007581047381546135,0.002737977747459137
0.007630922693266833,0.013091481257559438
0.007680798004987531,-0.008555102815204935
0.0077306733167082295,0.002643001237333827
0.007780548628428928,-0.0032345034726486838
0.007830423940149626,-0.003975980465696151
0.007880299251870324,-0.04077264456078203
0.007930174563591023,0.00700309209068369
0.00798004987531172,-0.012540515260600264
0.00802992518703242,0.014296110964570403
0.008079800498753117,-0.024592928390257545
0.008129675810473816,-0.030684596142611997
0.008179551122194513,-0.0058110540306266
0.008229426433915213,-0.0001020478886974048
0.00827930174563591,-0.026083682863080618
0.00832917705735661,-0.012755509633171666
0.008379052369077307,-0.01665126730083227
0.008428927680798006,0.04561218071619165
0.008478802992518703,-0.01487456414875709
0.0085286783042394,-0.016555786803216517
0.0085785536159601,-0.005198974358294049
0.008628428927680797,-0.006552806749771026
0.008678304239401496,0.005960273769528322
0.008728179551122194,-0.033071952871540244
0.008778054862842893,2.2140017970120537e-05
0.00882793017456359,-0.012194485198521156
0.00887780548628429,-0.03554475750723957
0.008927680798004987,-0.023705470037996886
0.008977556109725686,-0.0024105154876613525
0.009027431421446384,-0.00777364580677446
0.009077306733167083,-0.018439413329506722
0.00912718204488778,-0.050669720506491
0.00917705735660848,-0.00402497104885483
0.009226932668329177,0.008346166300342664
0.009276807980049876,-0.02385848681143536
0.009326683291770574,-0.03160756559943782
0.009376558603491271,-0.009856081469247473
0.00942643391521197,-0.012809841638896959
0.009476309226932668,-0.006019313104319151
0.009526184538653367,-0.025397811171290464
0.009576059850374064,7.576878392421063e-05
0.009625935162094763,-0.012087081620717952
0.00967581047381546,0.01596095822122872
0.00972568578553616,-0.036195952386250896
0.009775561097256857,-0.032706909230170014
0.009825436408977557,-0.0063459009346856134
0.009875311720698254,-0.007395758622552985
0.009925187032418953,0.0030470855977274003
0.00997506234413965,-0.026116465622388934
0.01002493765586035,-0.01493312952009736
0.010074812967581047,-0.007399819238979545
0.010124688279301746,-0.0225293029421033
0.010174563591022444,0.0031092072712707412
0.010224438902743141,-0.028427862146432708
0.01027431421446384,-0.013590275299637505
0.010324189526184538,-0.05900046692351972
0.010374064837905237,0.004891949267150142
0.010423940149625935,-0.008897694325145663
0.010473815461346634,-0.01398136310414176
0.010523690773067331,-0.01331645588949677
0.01057356608478803,-0.006774081943256368
0.010623441396508728,-0.013472524628693305
0.010673316708229427,-0.0008587329285838843
0.010723192019950124,-0.02734624526290476
0.010773067331670824,-0.00552153144672495
0.010822942643391521,-0.02052906718561151
0.01087281795511222,-0.00024093839844556778
0.010922693266832918,-0.025900001534249765
0.010972568578553617,-0.012838950599017917
0.011022443890274314,-0.027191813078211148
0.011072319201995013,-0.03539329614178091
0.01112219451371571,-0.00014638996546972177
0.011172069825436408,-0.03514349268013557
0.011221945137157107,-0.02075956682376018
0.011271820448877805,-0.01673526957082818
0.011321695760598504,-0.021074372052044463
0.011371571072319201,-0.03913257482076637
0.0114214463840399,-0.01897838048134137
0.011471321695760598,-0.04621987714119277
0.011521197007481297,0.00032481364063034757
0.011571072319201995,-0.04319245168106005
0.011620947630922694,-0.012621001296302052
0.011670822942643391,-0.011992751313627035
0.01172069825436409,-0.03948822605900014
0.011770573566084788,-0.03050410534376391
0.011820448877805487,-0.0282186767561061
0.011870324189526184,-0.0389165948967273
0.011920199501246884,-0.03081179971672261
0.011970074812967581,-0.0002676447095288255
0.012019950124688279,-0.01306879751278034
0.012069825436408978,-0.014749006428464875
0.012119700748129675,-0.01764332302666582
0.012169576059850374,-0.006890146288471748
0.012219451371571072,-0.0011066074106885898
0.012269326683291771,-0.02634373318929803
0.012319201995012468,-0.014918592763437804
0.012369077306733168,-0.024732439016193406
0.012418952618453865,-0.001529049888050294
0.012468827930174564,-0.0030266750513170664
0.012518703241895262,-0.006984705903903182
0.01256857855361596,-0.005426918529427177
0.012618453865336658,-0.022440340629484648
0.012668329177057357,-0.03652015788669215
0.012718204488778055,-0.022107864202249285
0.012768079800498754,-0.01625010071673162
0.012817955112219451,-0.0005901851023423221
0.012867830423940149,-0.01620182614377589
0.012917705735660848,-0.012912473394111643
0.012967581047381545,0.022631990570623105
0.013017456359102245,-0.021602463682833487
0.013067331670822942,0.006555009079306652
0.013117206982543641,-0.00862886106156631
0.013167082294264339,-0.011899216143784388
0.013216957605985038,-0.021777699217803374
0.013266832917705735,-0.03152437993104634
0.013316708229426434,-0.027241938164131917
0.013366583541147132,-0.03172960761768259
0.013416458852867831,0.0038517340508299365
0.013466334164588529,-0.02023573792321134
0.013516209476309228,-0.001148781794146245
0.013566084788029925,-0.012893013963867552
0.013615960099750624,-0.00508595394550394
0.013665835411471322,-0.036868043419115024
0.01371571072319202,-0.032878800914563557
0.013765586034912718,-0.024037272658575345
0.013815461346633416,-0.03386990706030596
0.013865336658354115,-0.044042126052367195
0.013915211970074812,0.008432106244243412
0.013965087281795512,-0.017728613797199633
0.014014962593516209,-0.026360984115726672
0.014064837905236908,-0.0033280454442162957
0.014114713216957606,-0.008534943812696877
0.014164588528678305,-0.008950725352850667
0.014214463840399002,-0.008644406988351753
0.014264339152119701,-0.0018227713487544393
0.014314214463840399,0.008902638400482037
0.014364089775561098,-0.0031047757204261768
0.014413965087281795,-0.013706485817140776
0.014463840399002495,0.0020707825228820347
0.014513715710723192,-0.017220153701563365
0.01456359102244389,-0.04744438641952403
0.014613466334164589,-0.028195466180477156
0.014663341645885286,-0.05416547330556854
0.014713216957605985,-0.028040351906700678
0.014763092269326683,-0.017495486200840377
0.014812967581047382,-0.012802192929500857
0.01486284289276808,-0.03772624477117943
0.014912718204488778,0.012269862587827335
0.014962593516209476,-0.040560447939308186
0.015012468827930175,-0.047300760633230195
0.015062344139650873,-0.01363124641872213
0.015112219451371572,-0.030362011204305126
0.01516209476309227,-0.008191647054638741
0.015211970074812968,-0.011756093164689674
0.015261845386533666,-0.0010770684752785518
0.015311720698254365,0.009215136583586993
0.015361596009975062,-0.017084867851084498
0.01541147132169576,-0.017682414107433746
0.015461346633416459,-0.004482028560998194
0.015511221945137156,-0.008554080070865782
0.015561097256857856,-0.0046752089808452186
0.015610972568578553,-0.005404110592355858
0.015660847880299252,0.022194691902684617
0.01571072319201995,0.03466008373629554
0.015760598503740647,-0.03231673946602191
0.015810473815461346,-0.006980833380804367
0.015860349127182045,0.013403451513373563
0.015910224438902745,0.01540045441465655
0.01596009975062344,0.008644718103002335
0.01600997506234414,-0.004581160052063806
0.01605985037406484,0.010397587815607382
0.016109725685785538,0.01761177762081634
0.016159600997506234,-0.024735494987618224
0.016209476309226933,0.025856759073372104
0.016259351620947632,0.002019167510382942
0.016309226932668328,0.030457861721518115
0.016359102244389027,0.003773708953175829
0.016408977556109726,0.009665531376635518
0.016458852867830425,-0.014653514373541947
0.01650872817955112,0.022889290932237065
0.01655860349127182,-0.012579371504034688
0.01660847880299252,0.025423715915177933
0.01665835411471322,0.017987832073374784
0.016708229426433914,-0.0017626436145329735
0.016758104738154613,0.002632886359251607
0.016807980049875312,0.028045473470665355
0.01685785536159601,-0.0022174438096986167
0.016907730673316707,-0.02266343038678886
0.016957605985037406,0.000505232017574314
0.017007481296758106,-0.0016880017008253853
0.0170573566084788,0.0031069765619431548
0.0171072319201995,0.03392340805737658
0.0171571072319202,-0.00029211033152787454
0.0172069825436409,0.019168855260568628
0.017256857855361595,0.012291482683318663
0.017306733167082294,0.01068199022132053
0.017356608478802993,-0.003659634361884004
0.017406483790523692,0.03177496499253333
0.017456359102244388,0.040486716190438046
0.017506234413965087,0.0030161216047967666
0.017556109725685786,0.006894112593073936
0.017605985037406485,0.003185506311725139
0.01765586034912718,-0.0015689713696329377
0.01770573566084788,0.011042705274826346
0.01775561097256858,0.021643020724719866
0.01780548628428928,0.01738469534395504
0.017855361596009974,-0.017432550111213772
0.017905236907730673,0.0028607560661780447
0.017955112219451373,0.004249358982539549
0.018004987531172068,0.0036450036149934494
0.018054862842892767,0.030233005905280195
0.018104738154613467,0.008375325197025253
0.018154613466334166,0.01591402644860835
0.01820448877805486,0.022488000413748974
0.01825436408977556,0.03282553042698996
0.01830423940149626,0.007466647810770775
0.01835411471321696,0.015236847405937027
0.018403990024937655,0.0077900195484731614
0.018453865336658354,-0.002057676015682415
0.018503740648379053,0.001914324982119641
0.018553615960099752,0.008476268067654204
0.018603491271820448,0.03489332263671088
0.018653366583541147,-0.0008937590813697487
0.018703241895261846,0.020656733458887026
0.018753117206982542,0.04696759836029978
0.01880299251870324,0.006625480125837354
0.01885286783042394,0.001741457930005309
0.01890274314214464,0.01134431264933276
0.018952618453865335,-0.0022595448563023438
0.019002493765586034,0.038944629281591925
0.019052369077306733,0.045559335637333005
0.019102244389027433,0.016529988003427473
0.01915211970074813,-0.008008491509267211
0.019201995012468828,0.0014564643370030203
0.019251870324189527,0.025495650726166948
0.019301745635910226,0.0028576035243938775
0.01935162094763092,0.02057036907146897
0.01940149625935162,-0.008652251665311653
0.01945137157107232,0.028904396462262928
0.01950124688279302,0.019257240055091104
0.019551122194513715,0.013308310194826388
0.019600997506234414,0.02820458492618269
0.019650872817955113,0.008578727310943847
0.01970074812967581,0.02135794708694249
0.019750623441396508,0.03381050686509846
0.019800498753117207,-0.00814914329598439
0.019850374064837906,0.05330791426889589
0.019900249376558602,0.014953911390205046
0.0199501246882793,0.02571226364960871
0.02,0.043464755152766356
0.0200498753117207,0.03539025428423315
0.020099750623441395,0.0015833115635030814
0.020149625935162094,0.044568609648755086
0.020199501246882794,0.018511916628550715
0.020249376558603493,0.026943142840451312
0.02029925187032419,0.017425269932349555
0.020349127182044888,0.006043574362054506
0.020399002493765587,0.05156934329343004
0.020448877805486283,0.024493298996616678
0.02049875311720698,0.014206688739887565
0.02054862842892768,0.03947313642620941
0.02059850374064838,0.0032723891714079058
0.020648379052369076,0.011900298663613916
0.020698254364089775,0.02073127010629521
0.020748129675810474,0.01462420510370135
0.020798004987531173,0.01747990738090681
0.02084788029925187,0.020153104935471816
0.020897755610972568,0.027063383927505562
0.020947630922693267,0.026664309665971678
0.020997506234413967,0.035913555887434015
0.021047381546134662,0.03247809520155446
0.02109725685785536,0.012631089051982396
0.02114713216957606,0.01709519829622885
0.02119700748129676,0.05667551954951677
0.021246882793017455,0.038185956511712735
0.021296758104738155,0.017056542487212577
0.021346633416458854,0.021675646860276024
0.02139650872817955,0.042952241218196074
0.02144638403990025,0.02352821044725011
0.021496259351620948,0.014614086983752914
0.021546134663341647,0.014465996215674331
0.021596009975062343,0.03529361356151871
0.021645885286783042,0.029908564923835368
0.02169576059850374,0.023492607927093793
0.02174563591022444,0.014560500178762134
0.021795511221945136,0.02350409588894288
0.021845386533665835,0.0072214398998341305
0.021895261845386534,0.029361904944844218
0.021945137157107233,0.020856542465989412
0.02199501246882793,0.06415431619894035
0.02204488778054863,0.019795191130770932
0.022094763092269327,0.019434326596845006
0.022144638403990027,0.03415745437143178
0.022194513715710722,0.043568867300454624
0.02224438902743142,0.03418122700713419
0.02229426433915212,0.011405270447003305
0.022344139650872816,0.016066791555061785
0.022394014962593516,-0.0016130898569014437
0.022443890274314215,0.030380619537103006
0.022493765586034914,0.00548879249620148
0.02254364089775561,0.006574173542027028
0.02259351620947631,-0.010744558003263401
0.022643391521197008,0.030410413967235636
0.022693266832917707,0.021625268610362403
0.022743142144638403,0.028517330132088663
0.022793017456359102,0.019429102244915713
0.0228428927680798,0.018342848336737688
0.0228927680798005,0.03172425392374606
0.022942643391521196,0.01490137701778211
0.022992518703241895,0.02273418810648274
0.023042394014962594,0.05008732423856131
0.02309226932668329,-0.004801004113267674
0.02314214463840399,0.024362280598852856
0.02319201995012469,0.03669880847682244
0.023241895261845388,0.043160808586099234
0.023291770573566083,0.0037027374215562008
0.023341645885286783,0.016645542989349376
0.02339152119700748,-0.0015044846859009545
0.02344139650872818,-0.005839347535730118
0.023491271820448877,0.009250764330906977
0.023541147132169576,0.024934478431644237
0.023591022443890275,0.03236201943047698
0.023640897755610974,0.0322009520786915
0.02369077306733167,-0.008767246032200242
0.02374064837905237,0.016924290351876852
0.023790523690773068,0.021330926256666452
0.023840399002493767,-0.0037210815458147105
0.023890274314214463,0.03461347742949119
0.023940149625935162,0.03232775714358926
0.02399002493765586,0.007194727069338898
0.024039900249376557,0.019065120500682764
0.024089775561097256,0.014626895024022804
0.024139650872817955,0.012815891048092724
0.024189526184538655,0.015944902607630006
0.02423940149625935,0.007750526186928023
0.02428927680798005,0.059262494031814675
0.02433915211970075,0.014665313803694157
0.024389027431421448,0.010207268881069492
0.024438902743142144,0.009820018879886329
0.024488778054862843,-0.0033245310643894802
0.024538653366583542,0.03339895002647437
0.02458852867830424,0.013524128781462537
0.024638403990024937,0.019840292243440014
0.024688279301745636,0.027565377682555972
0.024738154613466335,0.02387671209018627
0.02478802992518703,-0.0031919365867267412
0.02483790523690773,0.035837137613473666
0.02488778054862843,0.01035434204211713
0.02493765586034913,0.019765947943427894
0.024987531172069824,0.019971121429078507
0.025037406483790523,0.003431795378403631
0.025087281795511222,0.007901388251817328
0.02513715710723192,0.019571009889792032
0.025187032418952617,-0.0052335826574444674
0.025236907730673316,0.01661390817246449
0.025286783042394016,0.02446277945396129
0.025336658354114715,0.012268017278246661
0.02538653366583541,-0.0038304976001818803
0.02543640897755611,-0.014969462489807623
0.02548628428927681,-0.004919064330616245
0.025536159600997508,0.023465711345268717
0.025586034912718204,-0.018545091221730037
0.025635910224438903,0.009833626373643115
0.025685785536159602,0.000643817322204897
0.025735660847880298,0.023515997689276244
0.025785536159600997,-0.001555338264124879
0.025835411471321696,0.027722026532914477
0.025885286783042395,-0.012984225505500059
0.02593516209476309,-0.008834850188029519
0.02598503740648379,-0.006906518280261136
0.02603491271820449,-0.009629712770710811
0.02608478802992519,-0.0003795975880004749
0.026134663341645884,0.049119206075772866
0.026184538653366583,-0.0005634998944620078
0.026234413965087282,-0.011374725647636566
0.02628428927680798,-0.02048575766890719
0.026334164588528677,-0.01924037192782849
0.026384039900249377,0.01987708307574115
0.026433915211970076,-0.01868546969137826
0.02648379052369077,0.009103929073245746
0.02653366583541147,-0.025532864553876884
0.02658354114713217,0.017025493337400395
0.02663341645885287,-0.007887760684912743
0.026683291770573565,0.006385038661768166
0.026733167082294264,0.012896308964560989
0.026783042394014963,-0.011459473158312338
0.026832917705735662,0.005794890936981795
0.026882793017456358,0.002763856779817738
0.026932668329177057,0.02402429331855709
0.026982543640897756,0.00955140417939858
0.027032418952618455,-0.0070906343045040315
0.02708229426433915,-0.020598172286047343
0.02713216957605985,9.557384583674467e-05
0.02718204488778055,-0.009560172390361096
0.02723192019950125,-0.004544216257431829
0.027281795511221944,0.01070459603199962
0.027331670822942643,-0.018644395407597356
0.027381546134663343,-0.02051364259313764
0.02743142144638404,0.02451329901458276
0.027481296758104738,-0.008463571046396313
0.027531172069825437,-0.0009930553338527064
0.027581047381546136,-0.02047607741947479
0.02763092269326683,-0.036880137151173026
0.02768079800498753,-0.02289656625713689
0.02773067331670823,-0.019956179451323823
0.02778054862842893,0.0062618315599485
0.027830423940149625,0.014552501141629239
0.027880299251870324,0.007283610490780136
0.027930174563591023,0.013729018617464249
0.027980049875311722,0.00976589183692878
0.028029925187032418,-0.022663126793470014
0.028079800498753117,0.018028622302866858
0.028129675810473816,-0.015685675544744485
0.028179551122194512,-0.024404520398359726
0.02822942643391521,-0.0050873497573928365
0.02827930174563591,0.00978320679798012
0.02832917705735661,-0.021744195044620163
0.028379052369077305,-0.014683334086054455
0.028428927680798004,-0.036373092073056675
0.028478802992518704,0.008354776507735136
0.028528678304239403,-0.012388277497257598
0.0285785536159601,-0.02469212644047018
0.028628428927680798,-0.009556586584056124
0.028678304239401497,-0.013450708358804714
0.028728179551122196,0.01745446095243208
0.02877805486284289,-0.010933986550347293
0.02882793017456359,-0.01789081547430387
0.02887780548628429,-0.0010326261823945786
0.02892768079800499,0.02335645296697752
0.028977556109725685,-0.02783824952271497
0.029027431421446384,-0.021984733038828762
0.029077306733167083,0.004592252289601254
0.02912718204488778,-0.016407270631873798
0.029177057356608478,-0.03137702837421669
0.029226932668329177,0.0017040023164239318
0.029276807980049877,-0.02780076835654667
0.029326683291770572,-0.03735332267124013
0.02937655860349127,-0.03353016398567733
0.02942643391521197,-0.02772205437539255
0.02947630922693267,7.978015032019357e-05
0.029526184538653365,-0.022856937785574138
0.029576059850374065,-0.004896014932070871
0.029625935162094764,-0.0010398689223942194
0.029675810473815463,-0.027319382595202425
0.02972568578553616,-0.050782232633220424
0.029775561097256858,-0.025411123249774598
0.029825436408977557,-0.02303531655999653
0.029875311720698253,-0.006709674641185699
0.029925187032418952,-0.02015008867918136
0.02997506234413965,-0.021798806891453977
0.03002493765586035,-0.022069438036937138
0.030074812967581046,-0.04066973128315934
0.030124688279301745,-0.01834123393996126
0.030174563591022444,0.0027313296292714798
0.030224438902743143,-0.04016157744696239
0.03027431421446384,-0.05979122466224952
0.03032418952618454,-0.018958129948730355
0.030374064837905237,-0.01548116378127852
0.030423940149625937,-0.0009134520202275509
0.030473815461346632,-0.002573764103595208
0.03052369077306733,-0.024744515722869384
0.03057356608478803,-0.034499167488801434
0.03062344139650873,-0.019659484076342916
0.030673316708229426,-0.011643156919516423
0.030723192019950125,-0.005828514794854023
0.030773067331670824,0.0037310145533348445
0.03082294264339152,-0.04055066316448469
0.03087281795511222,-0.03194287318442008
0.030922693266832918,-0.006885426913573222
0.030972568578553617,-0.0068909242785896024
0.031022443890274313,-0.010043933013528043
0.031072319201995012,-0.021440658300408904
0.03112219451371571,-0.04480693900311115
0.03117206982543641,-0.03185310818901877
0.031221945137157106,-0.002455233015656739
0.03127182044887781,-0.040362562577018785
0.031321695760598504,-0.014696923615119588
0.0313715710723192,-0.008995603662989151
0.0314214463840399,0.0022083351062830367
0.0314713216957606,-0.019857036169464107
0.031521197007481294,-0.020964383325620926
0.031571072319202,0.02483656416044987
0.03162094763092269,-0.018187195952694336
0.03167082294264339,-0.024094617082045695
0.03172069825436409,-0.02140823529839439
0.03177057356608479,-0.004790117580195078
0.03182044887780549,-0.02260544420179378
0.031870324189526185,-0.038100706782863765
0.03192019950124688,-0.035625311994841175
0.03197007481296758,-0.01672211735007855
0.03201995012468828,-0.015149400431957573
0.032069825436408975,-0.007039290823537353
0.03211970074812968,-0.026809343362448744
0.03216957605985037,-0.013695192771936848
0.032219451371571076,-0.005059223135701172
0.03226932668329177,-0.031466034504289406
0.03231920199501247,0.009995302162184864
0.03236907730673317,-0.028658366180162972
0.032418952618453865,-0.016744457661205588
0.03246882793017456,-0.012332749976059189
0.032518703241895264,-0.03226578728452299
0.03256857855361596,-0.026774174654697606
0.032618453865336655,-0.025820637520147953
0.03266832917705736,-0.0432718190659028
0.032718204488778053,-0.003808625370587567
0.032768079800498756,-0.02364391162722869
0.03281795511221945,-0.035624737552286366
0.03286783042394015,-0.013313856014732438
0.03291770573566085,-0.005139551692190896
0.032967581047381546,-0.03076678840993173
0.03301745635910224,0.002485960005725263
0.033067331670822944,0.0059212564716751
0.03311720698254364,-0.019860158035931386
0.03316708229426434,0.0006558752096692943
0.03321695760598504,-0.0037321465848305247
0.033266832917705734,0.01574213456413436
0.03331670822942644,0.015966806090243944
0.03336658354114713,-0.01879055671157414
0.03341645885286783,-0.024378144928867806
0.03346633416458853,0.006304487515188291
0.033516209476309226,0.0055395360730603836
0.03356608478802992,-0.017045355568693417
0.033615960099750625,-0.01866426057399444
0.03366583541147132,-0.04032929431205392
0.03371571072319202,-0.006874130513789775
0.03376558603491272,0.00786841779900913
0.033815461346633414,-0.004559580488001175
0.03386533665835412,0.007188668408100556
0.03391521197007481,0.006187564890229645
0.03396508728179551,-0.020746580920012997
0.03401496259351621,-0.01423616931562816
0.03406483790523691,-0.02234004408948287
0.0341147132169576,-0.0017457638794332632
0.034164588528678305,-0.009210114755828568
0.034214463840399,0.014636047902720967
0.034264339152119704,0.0078124517499181985
0.0343142144638404,-0.005072463376761895
0.034364089775561095,-0.018907097061059943
0.0344139650872818,-0.006087955596533711
0.03446384039900249,0.00041286086809727215
0.03451371571072319,-0.033415642428292876
0.03456359102244389,-0.015737199460728976
0.03461346633416459,0.010652006652458188
0.03466334164588529,0.024013752353753564
0.034713216957605986,-0.0046286267918315025
0.03476309226932668,0.017284393568178038
0.034812967581047384,0.01793146966751391
0.03486284289276808,-0.025010441254266373
0.034912718204488775,-0.010862063527272071
0.03496259351620948,0.006958245408310493
0.035012468827930174,0.002241121709298864
0.03506234413965087,-0.022920673207531356
0.03511221945137157,0.03793579583984916
0.03516209476309227,0.013550219615207257
0.03521197007481297,0.010388089206649916
0.035261845386533666,-0.004693935383987171
0.03531172069825436,0.004600987026256444
0.035361596009975065,0.021541783358855524
0.03541147132169576,-0.004813661529672336
0.035461346633416456,-0.014669256301608674
0.03551122194513716,-0.015724439917731217
0.035561097256857854,0.02221019270953486
0.03561097256857856,-0.006421808255443407
0.03566084788029925,-0.0005778755071772255
0.03571072319201995,-0.021861671422945168
0.03576059850374065,-0.003007771070785264
0.03581047381546135,0.006817356118113406
0.03586034912718204,0.0244161753479725
0.035910224438902745,0.004010154074785096
0.03596009975062344,0.0003187688731012088
0.036009975062344136,0.00723622790780395
0.03605985037406484,0.0009309175253513453
0.036109725685785535,0.007340307059731472
0.03615960099750624,0.015577907197605819
0.03620947630922693,0.0023447609707627397
0.03625935162094763,0.02386338751459157
0.03630922693266833,-0.009346424282584802
0.03635910224438903,0.02216090096110938
0.03640897755610972,-0.005203212842316303
0.036458852867830426,0.022683065640345144
0.03650872817955112,0.03462234890415468
0.036558603491271824,0.009571443734596206
0.03660847880299252,-0.000590075262353237
0.036658354114713215,0.029000492024521384
0.03670822942643392,-0.0025429572789459984
0.036758104738154614,0.01924009594450762
0.03680798004987531,0.017790979516854166
0.03685785536159601,0.01107600699727999
0.03690773067331671,-0.005023336844927301
0.0369576059850374,0.030971127176901484
0.037007481296758106,-0.00014179562714056702
0.0370573566084788,0.01878514505078737
0.037107231920199504,0.012625690839764427
0.0371571072319202,-0.011863982809126922
0.037206982543640896,0.006546306797306758
0.0372568578553616,0.041551731981337145
0.037306733167082294,0.026907858710915826
0.03735660847880299,0.0172232146585788
0.03740648379052369,0.021481293672722473
0.03745635910224439,0.022289886579689056
0.037506234413965084,0.032866992895690665
0.037556109725685786,0.040876641786147916
0.03760598503740648,0.005818127430242061
0.037655860349127185,-0.029747800728066244
0.03770573566084788,0.01131484773188489
0.037755610972568576,0.012843890765491835
0.03780548628428928,-0.0061663687362802
0.037855361596009975,0.0001380335437460925
0.03790523690773067,0.0005905138735582353
0.03795511221945137,0.0145165971701132
0.03800498753117207,0.0046858171209684715
0.03805486284289277,0.02513968737842924
0.03810473815461347,0.021701289454881326
0.03815461346633416,0.01919531807181298
0.038204488778054865,0.025904293763149983
0.03825436408977556,0.010283064731396452
0.03830423940149626,0.013502405524600164
0.03835411471321696,0.002607187230801661
0.038403990024937655,0.03344612786009225
0.03845386533665835,0.016223317824822538
0.03850374064837905,0.02089505101795068
0.03855361596009975,0.02483399634067105
0.03860349127182045,0.0011495582159298245
0.03865336658354115,0.007211263365841342
0.03870324189526184,0.005802951604816434
0.038753117206982546,0.019023592102697842
0.03880299251870324,0.02991808656104177
0.03885286783042394,0.03247970882492879
0.03890274314214464,0.0041059255550489684
0.038952618453865336,0.04034708742763938
0.03900249376558604,-0.0007711940433256168
0.039052369077306734,-0.017478055511728256
0.03910224438902743,0.037091057535426214
0.03915211970074813,0.02305960710791433
0.03920199501246883,0.03432669705666146
0.039251870324189524,0.010877865171452457
0.039301745635910226,0.006684786737410254
0.03935162094763092,-0.0014290387822612667
0.03940149625935162,-0.009413797998155695
0.03945137157107232,0.012085975741742657
0.039501246882793016,0.03371846187697536
0.03955112219451372,0.027773156415935446
0.039600997506234414,0.021768371814600222
0.03965087281795511,0.02658406506607045
0.03970074812967581,0.036012833340818486
0.03975062344139651,0.009331271373700415
0.039800498753117204,0.0057062744533865235
0.03985037406483791,0.026286031606349375
0.0399002493765586,0.024308998954128355
0.039950124688279305,0.03804630201142352
0.04,0.04139915806897536
0.0400498753117207,0.009636965137025267
0.0400997506234414,0.011498065489042976
0.040149625935162095,0.03538747495750429
0.04019950124688279,0.05875679619112225
0.04024937655860349,0.03167042326869582
0.04029925187032419,0.026418816164749122
0.040349127182044885,0.04928368738484819
0.04039900249376559,0.04182185642425659
0.04044887780548628,0.03355864590454944
0.040498753117206986,0.005240716128368829
0.04054862842892768,0.029559083458588535
0.04059850374064838,0.03319551866254451
0.04064837905236908,0.02364464175342235
0.040698254364089775,-0.0033093638949618573
0.04074812967581047,0.0023866057696525084
0.040798004987531174,-0.006138516096536657
0.04084788029925187,0.029776108990496805
0.040897755610972565,0.029003292891961165
0.04094763092269327,0.019417325501797245
0.04099750623441396,0.012103850555638493
0.041047381546134666,0.02608006184089998
0.04109725685785536,0.03951282682454349
0.04114713216957606,0.03262416306951359
0.04119700748129676,0.024311269664217875
0.041246882793017456,0.01169274391566498
0.04129675810473815,0.021979557436085227
0.041346633416458854,0.029303426065882363
0.04139650872817955,0.031867307278152374
0.04144638403990025,0.01605896528942559
0.04149625935162095,0.04536358846649478
0.041546134663341644,0.011805297547877621
0.04159600997506235,0.049065578131592735
0.04164588528678304,0.033682450333785405
0.04169576059850374,0.036011754557519635
0.04174563591022444,0.016244699950594382
0.041795511221945136,0.04759580095024686
0.04184538653366583,0.04259631847262217
0.041895261845386535,0.01937814192129112
0.04194513715710723,0.031113853239117358
0.04199501246882793,0.024936164818273487
0.04204488778054863,0.010921544330345001
0.042094763092269324,0.021270326754221525
0.04214463840399003,0.0031284172116396863
0.04219451371571072,0.025001862613539205
0.04224438902743142,0.04702345372652257
0.04229426433915212,0.019255680782547142
0.04234413965087282,0.005146852464503356
0.04239401496259352,0.008954037726474302
0.042443890274314215,0.03277180681363266
0.04249376558603491,0.04116063035794614
0.042543640897755614,0.025092028989371205
0.04259351620947631,0.005731155193603777
0.042643391521197005,0.03387898156633955
0.04269326683291771,0.01321242789420194
0.0427431421446384,0.021579527862529566
0.0427930174563591,0.040651655220945264
0.0428428927680798,0.0022684406982652026
0.0428927680798005,0.007742689673531989
0.0429426433915212,0.021919902834206265
0.042992518703241896,0.023239578869152223
0.04304239401496259,-0.015157442936189928
0.043092269326683294,0.012258347951045573
0.04314214463840399,0.038162546931852136
0.043192019950124685,0.029401726872255535
0.04324189526184539,0.0393462554623223
0.043291770573566084,0.027916089814258666
0.043341645885286786,0.017273993351105892
0.04339152119700748,0.05351997639583803
0.04344139650872818,0.01865151477942935
0.04349127182044888,0.03200330074698066
0.043541147132169576,0.02491832081850106
0.04359102244389027,-0.006927649696211794
0.043640897755610975,-0.0026328711636690386
0.04369077306733167,0.01646492129610573
0.043740648379052366,0.034720650734819725
0.04379052369077307,0.006510044483744136
0.043840399002493764,0.02516366363646863
0.04389027431421447,0.021045147977314604
0.04394014962593516,0.03740390199509934
0.04399002493765586,-0.002565220783740274
0.04403990024937656,0.01567312077461981
0.04408977556109726,-0.0027013145590100464
0.04413965087281795,0.014976308631274736
0.044189526184538655,0.013826184498847949
0.04423940149625935,0.018214796062352653
0.04428927680798005,0.029998902976329025
0.04433915211970075,0.02038095014934331
0.044389027431421445,-0.011167127096515267
0.04443890274314215,0.018331842845938705
0.04448877805486284,-0.003732915863041558
0.04453865336658354,0.009727016456814728
0.04458852867830424,0.020132802388516967
0.04463840399002494,0.015780512464380714
0.04468827930174563,0.0327954105452674
0.044738154613466335,0.022915164329460502
0.04478802992518703,-0.0037454464655516054
0.044837905236907734,0.017719709321913232
0.04488778054862843,-0.011000624244657892
0.044937655860349125,0.0068329100049093
0.04498753117206983,0.0293746811271111
0.045037406483790524,0.022248071231357365
0.04508728179551122,0.0075252433286231695
0.04513715710723192,0.019348576116725857
0.04518703241895262,-0.004964375852309407
0.04523690773067331,0.024064613011483625
0.045286783042394016,0.008666267825338466
0.04533665835411471,0.019600268747105073
0.045386533665835414,0.014698534121795904
0.04543640897755611,0.019904852469908696
0.045486284289276806,0.015739135234697808
0.04553615960099751,0.004400150212927867
0.045586034912718204,0.01665849238269817
0.0456359102244389,0.019722776069944
0.0456857855361596,-0.0007463356497896213
0.0457356608478803,0.01558410898891284
0.045785536159601,0.022768604297284955
0.045835411471321696,-0.0027704832596777192
0.04588528678304239,-0.01993691776612844
0.045935162094763095,0.025308197591556163
0.04598503740648379,-0.0025825905547285323
0.046034912718204486,0.005885658401806611
0.04608478802992519,0.007742205874071049
0.046134663341645885,-0.02009743772719396
0.04618453865336658,0.022078609232839625
0.04623441396508728,0.0019399335639650524
0.04628428927680798,-0.011593687139752628
0.04633416458852868,-0.004251845899696391
0.04638403990024938,-0.0011978406512497927
0.04643391521197007,0.014766962019052986
0.046483790523690775,-0.007384237669357635
0.04653366583541147,0.03969250769422063
0.04658354114713217,0.012437202126540398
0.04663341645885287,0.019560022930368973
0.046683291770573565,0.0026745424877035683
0.04673316708229427,0.014026028556398194
0.04678304239401496,-0.0020646027700563815
0.04683291770573566,0.02149257024082084
0.04688279301745636,0.030176404937113592
0.04693266832917706,0.039549262644597426
0.04698254364089775,-0.00407467950227495
0.047032418952618456,0.013262180237448422
0.04708229426433915,-0.005613228470116995
0.04713216957605985,-0.0037774550699948804
0.04718204488778055,-0.007699938311264424
0.047231920199501246,-0.010245985665486929
0.04728179551122195,-0.030272399983854236
0.047331670822942644,-0.0022390212296567917
0.04738154613466334,-0.006560668867661466
0.04743142144638404,-0.025068884361738496
0.04748129675810474,0.024059227525539413
0.047531172069825434,-0.007792516656921192
0.047581047381546136,0.008593724439327304
0.04763092269326683,0.00376179840756296
0.047680798004987535,-0.01082095687045959
0.04773067331670823,-0.003937475874174024
0.047780548628428926,0.018778580571190882
0.04783042394014963,-0.01888276405828108
0.047880299251870324,0.0007889747663691578
0.04793017456359102,0.0036715918763774325
0.04798004987531172,-0.02735745331895724
0.04802992518703242,0.010364827922465708
0.048079800498753114,-0.015061132349651812
0.04812967581047382,-0.012429898071345168
0.04817955112219451,0.01320169248659728
0.048229426433915215,0.00011293065285259384
0.04827930174563591,0.03388320991469482
0.048329177057356607,0.013242615715352372
0.04837905236907731,-0.017614846327128127
0.048428927680798005,-0.01820685910757501
0.0484788029925187,-0.004005320127025511
0.0485286783042394,-0.016872036408134856
0.0485785536159601,-0.010175184711077504
0.048628428927680795,-0.01110348473062523
0.0486783042394015,-0.013287460249003466
0.04872817955112219,-0.02695827331082179
0.048778054862842896,-0.022678670345321443
0.04882793017456359,-0.007375263129897556
0.04887780548628429,-0.025663930513730754
0.04892768079800499,0.011919208761931059
0.048977556109725685,-0.00440086250814902
0.04902743142144638,0.0017940577887015086
0.049077306733167084,-0.013604752972930859
0.04912718204488778,0.007667294843511363
0.04917705735660848,-0.011865855058157241
0.04922693266832918,-0.01274934073498532
0.04927680798004987,-0.029345358464443312
0.049326683291770576,0.00268008146794471
0.04937655860349127,-0.030623506927179484
0.04942643391521197,-0.029153578489050168
0.04947630922693267,-0.009851326318954091
0.049526184538653366,0.005011090205895222
0.04957605985037406,0.0036462111887803177
0.049625935162094764,-0.016214451837378525
0.04967581047381546,-0.017956102371108812
0.04972568578553616,0.005528141563086671
0.04977556109725686,-0.014091665022280627
0.049825436408977554,-0.016540307440492064
0.04987531172069826,-0.0032725492209609523
0.04992518703241895,-0.03259651406192046
0.04997506234413965,-0.022626318407142732
0.05002493765586035,-0.0038844310137682546
0.050074812967581046,-0.011976009748677643
0.05012468827930175,-0.019067077821399298
0.050174563591022445,-0.024838322705945128
0.05022443890274314,-0.027774040664605308
0.05027431421446384,-0.0025631976479075485
0.05032418952618454,-0.007314874266688877
0.050374064837905234,-0.01576189571181826
0.05042394014962594,0.0008973792541511136
0.05047381546134663,-0.011193228075116728
0.05052369077306733,-0.03170631511177986
0.05057356608478803,-0.04387067652841022
0.05062344139650873,-0.012951008439077755
0.05067331670822943,-0.008583673384718465
0.050723192019950125,-0.006990512582016755
0.05077306733167082,0.004756872478456783
0.050822942643391524,-0.005651350634232451
0.05087281795511222,-0.010094983135428323
0.050922693266832915,-0.011414449569061139
0.05097256857855362,-0.02763996507690556
0.05102244389027431,-0.02216466628932247
0.051072319201995016,-0.012211884402663032
0.05112219451371571,-0.02854482193209685
0.05117206982543641,-0.006689999231223121
0.05122194513715711,-0.046979071158578634
0.051271820448877806,-0.037393093914769346
0.0513216957605985,-0.005758186686737348
0.051371571072319204,-0.008953500408919828
0.0514214463840399,-0.02435939094013457
0.051471321695760595,-0.017726630831057504
0.0515211970074813,-0.029281164046138133
0.051571072319201994,-0.018856781585098428
0.051620947630922696,-0.012759194022599165
0.05167082294264339,-0.020860275539780745
0.05172069825436409,0.002180553637286097
0.05177057356608479,-0.02725739772781623
0.051820448877805486,-0.019813025230494448
0.05187032418952618,-0.026465109642037445
0.051920199501246884,-0.009588243347706277
0.05197007481296758,-0.003896610271212037
0.052019950124688276,-1.9746298380134142e-05
0.05206982543640898,-0.03981433056697662
0.052119700748129674,-0.03617724579047764
0.05216957605985038,-0.024065219531941774
0.05221945137157107,-0.001591537823439593
0.05226932668329177,-0.003206097368598681
0.05231920199501247,-0.014741789340413461
0.05236907730673317,-0.02117037349795469
0.05241895261845386,-0.0231243336724187
0.052468827930174565,-0.009686422358169487
0.05251870324189526,-0.024268702367793438
0.05256857855361596,0.010339410799575021
0.05261845386533666,-0.013742815079945644
0.052668329177057355,-0.03862761235092875
0.05271820448877806,-0.02642971471215189
0.05276807980049875,-0.016611057610532186
0.05281795511221945,-0.014653653180941396
0.05286783042394015,-0.036188968117909
0.05291770573566085,-0.0107986642793929
0.05296758104738154,0.013602561962146771
0.053017456359102245,-0.013251945213757376
0.05306733167082294,-0.024236497896254348
0.053117206982543644,-0.018956639205516348
0.05316708229426434,-0.002321453067715482
0.053216957605985035,-0.018789478570135465
0.05326683291770574,-0.012111809315344972
0.053316708229426434,-0.028178652676339275
0.05336658354114713,-0.006142258360157108
0.05341645885286783,-0.027660585155338365
0.05346633416458853,-0.03475914082202586
0.05351620947630923,-0.028357858395123756
0.053566084788029926,-0.03112315362352512
0.05361596009975062,-0.035184629619949406
0.053665835411471324,-0.002663109666166167
0.05371571072319202,-0.030815909682879464
0.053765586034912716,-0.015807471809053637
0.05381546134663342,-0.0025673560945901966
0.053865336658354114,-0.014683424117411508
0.05391521197007481,-0.028817715035377868
0.05396508728179551,-0.01112764981016252
0.05401496259351621,-0.009848087701683607
0.05406483790523691,-0.013700927358048677
0.054114713216957606,-0.02486965064150129
0.0541645885286783,-0.0072796709176935126
0.054214463840399005,-0.031067852842605184
0.0542643391521197,0.02183993542266944
0.054314214463840396,-0.009571224379745228
0.0543640897755611,0.005936397556492225
0.054413965087281795,0.001560537088079337
0.0544638403990025,0.00316501662952858
0.05451371571072319,0.03662645790377542
0.05456359102244389,-0.0005977999925415181
0.05461346633416459,0.013593440803285926
0.05466334164588529,-0.021134546340174618
0.05471321695760598,-0.013029862717761135
0.054763092269326685,-0.0003790363582084769
0.05481296758104738,0.04528124262816442
0.05486284289276808,0.01362230760468127
0.05491271820448878,0.007686849521612152
0.054962593516209475,0.009102142312408487
0.05501246882793018,-0.01199688843125087
0.05506234413965087,-0.0076499647579083875
0.05511221945137157,-0.015113897309223589
0.05516209476309227,-0.004254401788324648
0.05521197007481297,-0.03330448554800275
0.05526184538653366,-0.0037948450647201076
0.055311720698254366,0.00774503556104466
0.05536159600997506,0.013301860212602615
0.05541147132169576,-0.0046531804777352045
0.05546134663341646,-0.0004968912145356298
0.055511221945137156,0.006435940670839857
0.05556109725685786,-0.005013895281432927
0.055610972568578554,0.013205081214408436
0.05566084788029925,0.004266819617381464
0.05571072319201995,-0.018585935311129887
0.05576059850374065,-0.005548280222519519
0.055810473815461344,0.008408043138942728
0.055860349127182046,-0.0029121661492707692
0.05591022443890274,-0.013565975591246018
0.055960099750623445,-0.032786850328158014
0.05600997506234414,0.0034489825486031626
0.056059850374064836,0.01988471541852504
0.05610972568578554,0.007593410576466854
0.056159600997506234,0.015906890331827885
0.05620947630922693,-0.010012467211471365
0.05625935162094763,-0.008440837548596435
0.05630922693266833,-0.0011341217943562475
0.056359102244389024,-0.0036694680849193246
0.05640897755610973,0.002926957835289622
0.05645885286783042,0.021999331834253795
0.056508728179551125,-0.005892930455791725
0.05655860349127182,0.0018356833928459756
0.056608478802992516,0.029918524215910104
0.05665835411471322,0.019581515016596454
0.056708229426433915,0.002518734482486196
0.05675810473815461,-0.012801095149386283
0.05680798004987531,-0.012820927198883659
0.05685785536159601,-0.01920714516892315
0.05690773067331671,0.02644667840926053
0.05695760598503741,0.01251940521925363
0.0570074812967581,0.014691983079607712
0.057057356608478806,0.0022003452476248315
0.0571072319201995,0.021765551248127263
0.0571571072319202,0.011553845565629542
0.0572069825436409,-0.01928982129749828
0.057256857855361595,0.005335158174234653
0.05730673316708229,0.044837825233626144
0.057356608478802994,0.02289451792828473
0.05740648379052369,-0.01098340313917758
0.05745635910224439,0.015980730812390015
0.05750623441396509,-0.011166979126320135
0.05755610972568578,0.007229391195045331
0.057605985037406486,-0.017300719871209583
0.05765586034912718,-0.010686097420687067
0.05770573566084788,0.01548724018121414
0.05775561097256858,0.013934927424352648
0.057805486284289276,0.015773120963725542
0.05785536159600998,0.01618456664436149
0.057905236907730674,0.010086052613404513
0.05795511221945137,0.022487596632666855
0.05800498753117207,-0.0009142324096128567
0.05805486284289277,0.006169207439156256
0.058104738154613464,0.011501635613675797
0.05815461346633417,0.00957834806077111
0.05820448877805486,0.01624954145848071
0.05825436408977556,0.03227109263363816
0.05830423940149626,0.032764053449915106
0.058354114713216956,0.025296592332671425
0.05840399002493766,0.006436056289170515
0.058453865336658355,0.05100121735106105
0.05850374064837905,-0.0017298527935856213
0.05855361596009975,0.025253771933307093
0.05860349127182045,-0.002145581635752944
0.058653366583541144,0.010024823236734023
0.05870324189526185,0.014092004749627855
0.05875311720698254,-0.012446068599910116
0.05880299251870324,0.0195032566772461
0.05885286783042394,0.023058347288308575
0.05890274314214464,0.03394701928746689
0.05895261845386534,0.032891595227876026
0.059002493765586035,0.031308697567072365
0.05905236907730673,0.015862031573612278
0.059102244389027433,0.04773017561313791
0.05915211970074813,0.03169541806844756
0.059201995012468825,0.023322617928203233
0.05925187032418953,0.017920622349640692
0.05930174563591022,0.012894432509933667
0.059351620947630926,0.006777101980401769
0.05940149625935162,0.027897669732580628
0.05945137157107232,0.0288912570167753
0.05950124688279302,0.03639459054594348
0.059551122194513716,0.03146934931144526
0.05960099750623441,0.004458716192395146
0.059650872817955114,0.02758277827312973
0.05970074812967581,0.029383511950046244
0.059750623441396505,0.014633778647444067
0.05980049875311721,0.014844299361934921
0.059850374064837904,0.04460434128106158
0.059900249376558606,0.012579779455770974
0.0599501246882793,0.025465895187066247
0.06,0.029184508121645206
0.0600498753117207,0.04486990655739877
0.060099750623441396,0.02285118836200356
0.06014962593516209,0.009812347621376246
0.060199501246882794,0.0017839197669715194
0.06024937655860349,0.0446558165464932
0.06029925187032419,0.013008816131786073
0.06034912718204489,0.01819340814803799
0.060399002493765584,0.02712933926066064
0.06044887780548629,0.017049298777183558
0.06049875311720698,0.02854249929009484
0.06054862842892768,0.029211022654252183
0.06059850374064838,0.02837244424987677
0.06064837905236908,0.03950997361512089
0.06069825436408977,0.049832170773077465
0.060748129675810475,0.016897412284748115
0.06079800498753117,0.010726854144682923
0.06084788029925187,0.022364680683094853
0.06089775561097257,0.03138708773691723
0.060947630922693265,0.013851861839451378
0.06099750623441397,0.024047637577828036
0.06104738154613466,0.03552140978482489
0.06109725685785536,0.027460381824259056
0.06114713216957606,-0.01987829322296382
0.06119700748129676,-0.0036217394620918393
0.06124688279301746,0.026383555603849876
0.061296758104738155,0.01317354663861201
0.06134663341645885,-0.00953917526919424
0.061396508728179554,0.020273849141633847
0.06144638403990025,0.03365447859845452
0.061496259351620945,0.014926606331680326
0.06154613466334165,0.017800369932267777
0.061596009975062344,0.022083751865127073
0.06164588528678304,0.028896608452584592
0.06169576059850374,0.019645621708221223
0.06174563591022444,0.024453055875643392
0.06179551122194514,0.0475187215735416
0.061845386533665836,0.03492725773930227
0.06189526184538653,0.005686732342201746
0.061945137157107234,0.005776096829993388
0.06199501246882793,0.03620463784957609
0.062044887780548626,0.012644502173879883
0.06209476309226933,0.02282578421821677
0.062144638403990024,0.027980816380588146
0.06219451371571072,0.027534860480891318
0.06224438902743142,0.031637681001135266
0.06229426433915212,0.018954378935950575
0.06234413965087282,0.009328138863699759
0.062394014962593516,0.0003028576970993367
0.06244389027431421,0.02818294769975035
0.062493765586034915,0.025266899412053987
0.06254364089775562,0.043735809900832284
0.06259351620947631,0.011115664270585987
0.06264339152119701,0.045091336198316484
0.0626932668329177,0.0056741476946902125
0.0627431421446384,0.04179108990855426
0.0627930174563591,0.023189616917635488
0.0628428927680798,-0.0012769930371442188
0.0628927680798005,0.01994394977403249
0.0629426433915212,0.016749208786398212
0.06299251870324189,0.026382995650516217
0.06304239401496259,0.027413171327891804
0.0630922693266833,0.03435812514624489
0.063142144638404,0.015352377944801095
0.06319201995012469,0.0380474102087917
0.06324189526184539,0.01956630106617478
0.06329177057356608,0.03497590607731656
0.06334164588528678,0.040456412929680746
0.06339152119700749,0.02908242007051158
0.06344139650872818,0.029825604385875393
0.06349127182044888,-0.001005445892077364
0.06354114713216957,0.03970710069731585
0.06359102244389027,-0.01862610985907784
0.06364089775561098,0.002879993551115158
0.06369077306733167,0.03421070710781178
0.06374064837905237,0.014444460165389453
0.06379052369077307,-0.002104549127768942
0.06384039900249376,-0.00526118641664065
0.06389027431421446,0.012388724732745493
0.06394014962593517,0.02857682312172129
0.06399002493765586,0.018715157899672156
0.06403990024937656,0.031753048448127506
0.06408977556109725,0.022190401802145366
0.06413965087281795,0.02047286954132891
0.06418952618453866,0.02613990746152999
0.06423940149625935,0.04535542118787152
0.06428927680798005,0.02637052610211281
0.06433915211970075,0.04059753792432697
0.06438902743142144,0.012174524140491902
0.06443890274314215,0.014335440342919066
0.06448877805486285,0.012950441336510765
0.06453865336658354,-0.005592761953082861
0.06458852867830424,0.03155721078707114
0.06463840399002493,0.044298511484706565
0.06468827930174563,0.020485135681345405
0.06473815461346634,0.022021635473763387
0.06478802992518704,0.007965058862251526
0.06483790523690773,-0.024584633736039828
0.06488778054862843,0.020008715220990878
0.06493765586034912,0.01322831140798169
0.06498753117206983,-0.00023798892158744846
0.06503740648379053,0.03147303804240541
0.06508728179551122,-0.013536757524325075
0.06513715710723192,0.019551779934799896
0.06518703241895261,0.024376571239150012
0.06523690773067331,0.018790755833057598
0.06528678304239402,0.03783437378062621
0.06533665835411472,0.011069222120775032
0.06538653366583541,0.02008570626647386
0.06543640897755611,-0.001827291624012609
0.0654862842892768,0.013534698418601434
0.06553615960099751,0.03975037515044093
0.06558603491271821,0.015058448495739389
0.0656359102244389,0.015342763643125302
0.0656857855361596,-0.0022052492756225364
0.0657356608478803,-0.0026360613901585655
0.06578553615960099,0.009875431820847519
0.0658354114713217,0.03782732770044727
0.0658852867830424,0.00409649532923493
0.06593516209476309,0.008030377551131854
0.06598503740648379,-0.0032330626791900324
0.06603491271820448,0.02229218989852794
0.06608478802992519,-0.011257935488910438
0.06613466334164589,0.0183687963775864
0.06618453865336658,-0.013309007170264108
0.06623441396508728,0.014920765324611115
0.06628428927680798,0.02746937721793606
0.06633416458852869,0.01777685074112733
0.06638403990024938,-0.008922321238383395
0.06643391521197008,0.009611665167914948
0.06648379052369077,0.006541929092522734
0.06653366583541147,-0.00269770959460616
0.06658354114713216,-0.01509723715341764
0.06663341645885287,-0.014548204937032357
0.06668329177057357,-0.004498106002501976
0.06673316708229426,0.0067875941711857376
0.06678304239401496,0.01178940574507071
0.06683291770573566,-0.0027074035086319284
0.06688279301745637,0.012807149894198962
0.06693266832917706,0.008150835718356352
0.06698254364089776,0.005091710999201796
0.06703241895261845,-0.0006336173903478671
0.06708229426433915,-0.002617192088179954
0.06713216957605984,-0.01966104481064684
0.06718204488778055,0.0003092073071850009
0.06723192019950125,0.00699091177227624
0.06728179551122195,-0.008266533426691057
0.06733167082294264,0.012355238809099545
0.06738154613466334,-0.009126501531412423
0.06743142144638405,-0.005390433212975012
0.06748129675810474,0.024223805715742338
0.06753117206982544,-0.05200441898659121
0.06758104738154613,-0.013083433366057658
0.06763092269326683,0.009966069795948895
0.06768079800498752,-0.008375799584991425
0.06773067331670823,0.004166287721748886
0.06778054862842893,-0.021509410830335102
0.06783042394014963,0.010255537909545108
0.06788029925187032,-0.018374574453945317
0.06793017456359102,0.01867016433107315
0.06798004987531173,-0.0020836459033767383
0.06802992518703242,-0.026978035200529327
0.06807980049875312,0.0016138307162041118
0.06812967581047381,0.0074135511158800555
0.06817955112219451,0.0013808466847176288
0.0682294264339152,-0.021621733990165603
0.06827930174563591,0.010888994491315671
0.06832917705735661,-0.011431383483806623
0.0683790523690773,-0.022336959437848247
0.068428927680798,0.014424294222318394
0.0684788029925187,-0.010097517896691523
0.06852867830423941,0.006721873968164123
0.0685785536159601,-0.027951482384435837
0.0686284289276808,0.005051550515611892
0.0686783042394015,0.007745104303204504
0.06872817955112219,-0.0051365906217782555
0.0687780548628429,0.0034602437302241346
0.0688279301745636,-0.005970282998636707
0.06887780548628429,0.0011549837895202478
0.06892768079800499,0.0010228266016773773
0.06897755610972568,-0.03158346637405571
0.06902743142144638,-0.010964187775927848
0.06907730673316709,-0.024569528906872612
0.06912718204488778,0.0035249601125992326
0.06917705735660848,0.028156766391272837
0.06922693266832917,-0.010102515422850792
0.06927680798004987,-0.01701129327828457
0.06932668329177058,-0.022569397348418146
0.06937655860349128,-0.02478743221540499
0.06942643391521197,0.0028595412577189505
0.06947630922693267,-0.015697741487307078
0.06952618453865336,-0.023380554742326982
0.06957605985037406,-0.001709668404680953
0.06962593516209477,0.009219824314719481
0.06967581047381546,0.0025796336927969305
0.06972568578553616,-0.01157257067091466
0.06977556109725686,-0.03808137955632833
0.06982543640897755,-0.015800305087595463
0.06987531172069826,-0.0014566172810994305
0.06992518703241896,-0.03396281896424201
0.06997506234413965,-0.03169950605951717
0.07002493765586035,-0.00605052257594035
0.07007481296758104,-0.010874869598156124
0.07012468827930174,0.025579927571090344
0.07017456359102245,-0.015552675283896025
0.07022443890274314,-0.0001720422379287382
0.07027431421446384,-0.02727098460848293
0.07032418952618454,-0.005007476692366765
0.07037406483790523,0.002054689288348061
0.07042394014962594,0.001962774972090464
0.07047381546134664,-0.027116747928775668
0.07052369077306733,-0.038500237554626976
0.07057356608478803,-0.03673852498590906
0.07062344139650872,-0.010544976629437692
0.07067331670822943,-0.0107702055431931
0.07072319201995013,-0.016860570065538254
0.07077306733167082,0.01652682609247305
0.07082294264339152,-0.02688128561248225
0.07087281795511222,0.0006431344100524938
0.07092269326683291,-0.029685556368886812
0.07097256857855362,-0.012137231638785289
0.07102244389027432,-0.0022597549076216455
0.07107231920199501,-0.020105432214702
0.07112219451371571,-0.027867405136018118
0.0711720698254364,-0.02164098639704623
0.07122194513715711,0.0009917319591141761
0.07127182044887781,-0.036966539777669685
0.0713216957605985,0.010700985634341985
0.0713715710723192,-0.021332213372624288
0.0714214463840399,-0.00792181893433263
0.07147132169576059,-0.016346970881427628
0.0715211970074813,-0.00374176123446417
0.071571072319202,-0.010277506180584369
0.0716209476309227,-0.0016416557228870407
0.07167082294264339,-0.01697622180430583
0.07172069825436408,-0.003528101569097693
0.0717705735660848,-0.03365258378916704
0.07182044887780549,-0.010632229095402238
0.07187032418952619,-0.00264591091641197
0.07192019950124688,0.022564022231674672
0.07197007481296758,0.01049429256850858
0.07201995012468827,-0.04361327656801392
0.07206982543640898,-0.04511725412770666
0.07211970074812968,-0.03816275905395578
0.07216957605985037,-0.009606769883251359
0.07221945137157107,-0.008645416437794654
0.07226932668329177,-0.028584908359911787
0.07231920199501247,0.009471249169968207
0.07236907730673317,-0.03777944534426707
0.07241895261845387,0.02738564712467693
0.07246882793017456,-0.04552270873627036
0.07251870324189526,-0.04517110589989067
0.07256857855361595,-0.04733590767758093
0.07261845386533666,-0.011527061654205622
0.07266832917705736,-0.003910554984593639
0.07271820448877805,-0.038740406001979144
0.07276807980049875,0.001939709031742209
0.07281795511221945,-0.014140017966781226
0.07286783042394016,0.005311411267125116
0.07291770573566085,-0.0170530052427287
0.07296758104738155,-0.011087460912862028
0.07301745635910224,-0.02548818452250826
0.07306733167082294,-0.025986996887317163
0.07311720698254365,-0.03063997421181146
0.07316708229426434,-0.03176027732355582
0.07321695760598504,0.0008367987673132439
0.07326683291770573,-0.005076551883948414
0.07331670822942643,-0.020589671176861835
0.07336658354114713,-0.009164496282034485
0.07341645885286784,-0.0032637908823401913
0.07346633416458853,-0.010804154050531145
0.07351620947630923,-0.004218433188161063
0.07356608478802992,-0.0015688453032897398
0.07361596009975062,-0.016666896089180157
0.07366583541147133,0.018663380250449696
0.07371571072319202,-0.004618942482321197
0.07376558603491272,-0.029751359159258133
0.07381546134663342,-0.009544806297706983
0.07386533665835411,0.01575089680472795
0.0739152119700748,-0.0036887483374675907
0.07396508728179552,0.014584217687939958
0.07401496259351621,0.009866241513800219
0.07406483790523691,-0.0013748923094404047
0.0741147132169576,0.0035919777584364114
0.0741645885286783,-0.010219294350660699
0.07421446384039901,0.006040746841612374
0.0742643391521197,-0.007254023629866728
0.0743142144638404,0.006304862881588909
0.0743640897755611,0.023338552705713916
0.07441396508728179,-0.03735190136348246
0.07446384039900249,-0.013023684307908338
0.0745137157107232,-0.008111144857623893
0.07456359102244389,-0.01569118150478126
0.07461346633416459,0.00902920906529661
0.07466334164588528,-0.012772318490253924
0.07471321695760598,0.00032078346946667457
0.07476309226932669,-0.009540646283671479
0.07481296758104738,0.0018117770069030741
0.07486284289276808,0.00019119193875589144
0.07491271820448878,-0.02271240762980359
0.07496259351620947,-0.010184243585497865
0.07501246882793017,-0.020273282005537067
0.07506234413965088,0.012211599414490423
0.07511221945137157,-0.00023744682572452553
0.07516209476309227,-0.0013330853822655399
0.07521197007481296,-0.03349755041382772
0.07526184538653366,-0.009503654995011195
0.07531172069825437,0.018054344124818586
0.07536159600997507,-0.004307956387170825
0.07541147132169576,0.02751254831030158
0.07546134663341646,-0.018517374203332708
0.07551122194513715,-0.009774078809745993
0.07556109725685786,0.004502662608037333
0.07561097256857856,0.01307477982435154
0.07566084788029925,0.01442724995954081
0.07571072319201995,-0.01804725931981691
0.07576059850374064,-0.024965452338553098
0.07581047381546134,0.02675056014775864
0.07586034912718205,-0.00669093849149042
0.07591022443890275,0.009165962611067795
0.07596009975062344,0.005013637339685694
0.07600997506234414,-0.0003021044182140633
0.07605985037406483,0.013136706534484307
0.07610972568578554,0.0035146384438518663
0.07615960099750624,0.012477989799075904
0.07620947630922693,-0.0035030958065876243
0.07625935162094763,-0.011582194728287906
0.07630922693266833,0.019713783956258994
0.07635910224438902,0.002515854592520208
0.07640897755610973,0.011620807397858094
0.07645885286783043,0.008190676864392475
0.07650872817955112,0.0064817484455046565
0.07655860349127182,0.018274666523250417
0.07660847880299251,-0.014386662467592369
0.07665835411471322,0.005856431225584718
0.07670822942643392,0.015341100743044699
0.07675810473815461,0.02800688198107443
0.07680798004987531,0.010287099793044954
0.076857855361596,0.023613100147878992
0.0769077306733167,0.009854848907385643
0.07695760598503741,0.0001878061992685292
0.0770074812967581,0.016628368910838527
0.0770573566084788,-0.015951559629209446
0.0771072319201995,0.01427239522799688
0.0771571072319202,0.02828190074987123
0.0772069825436409,0.00892792549789094
0.0772568578553616,0.004271172495648684
0.0773067331670823,0.005180278745885707
0.07735660847880299,0.003141947454723029
0.07740648379052369,0.005514467371244783
0.0774563591022444,0.010859812141300511
0.07750623441396509,0.01684447953978823
0.07755610972568579,0.0072110058757367135
0.07760598503740648,0.0016473520805312565
0.07765586034912718,0.011881869152306945
0.07770573566084787,-0.001044045808647382
0.07775561097256858,0.03014102226885869
0.07780548628428928,0.01903875123844818
0.07785536159600998,-0.0002759773931476934
0.07790523690773067,0.022736596692890975
0.07795511221945137,0.031392755571647744
0.07800498753117208,0.022613447609821574
0.07805486284289277,0.0368930311756002
0.07810473815461347,0.037322572702595425
0.07815461346633416,-0.01510646645931642
0.07820448877805486,0.014200879087725172
0.07825436408977555,0.0176633431570997
0.07830423940149626,-0.0073875197476513665
0.07835411471321696,0.02443066054894687
0.07840399002493766,0.029645233180810193
0.07845386533665835,0.011844473895464107
0.07850374064837905,0.01629801655434982
0.07855361596009976,0.003126581898654897
0.07860349127182045,0.02220306640037359
0.07865336658354115,-0.00018483679978068684
0.07870324189526184,0.0211784221624249
0.07875311720698254,0.025150927940790397
0.07880299251870324,0.04822465371115359
0.07885286783042394,0.03672688514712323
0.07890274314214464,0.02044633393860503
0.07895261845386534,0.03161500989246671
0.07900249376558603,0.00915697421528822
0.07905236907730673,0.025216526166227764
0.07910224438902744,0.02550583698637985
0.07915211970074813,0.04007845346336187
0.07920199501246883,0.026350478115714733
0.07925187032418952,-0.002733908413375088
0.07930174563591022,0.037549673999354646
0.07935162094763092,-0.0011785746984018866
0.07940149625935163,0.023521108615444833
0.07945137157107232,0.013787228168044816
0.07950124688279302,0.03050880625254507
0.07955112219451371,0.04056019309347103
0.07960099750623441,0.02350925224040311
0.07965087281795512,0.02672101372802303
0.07970074812967581,0.018569141439108587
0.07975062344139651,0.015293374073404075
0.0798004987531172,0.009280875897698115
0.0798503740648379,0.040751398688560155
0.07990024937655861,0.009060160284649397
0.0799501246882793,0.0323920797333497
0.08,0.023623583649439908
0.0800498753117207,0.023891224049194776
0.0800997506234414,0.008540997305527667
0.08014962593516209,0.012742825055586719
0.0801995012468828,0.015855136882922737
0.0802493765586035,0.04895542666286236
0.08029925187032419,0.0177559161954789
0.08034912718204489,-0.008774096570129588
0.08039900249376558,0.034356635623753684
0.08044887780548629,0.044568331897054975
0.08049875311720699,0.02525194486415354
0.08054862842892768,0.0033817923453752473
0.08059850374064838,0.020959277655521823
0.08064837905236907,0.04753069125757198
0.08069825436408977,0.026118411403912373
0.08074812967581048,0.03885437981876098
0.08079800498753117,0.026006397250929816
0.08084788029925187,0.016663592946510493
0.08089775561097257,0.009717603123935891
0.08094763092269326,0.007758957959813583
0.08099750623441397,0.008859374814087547
0.08104738154613467,0.0089753805711946
0.08109725685785536,0.040519825745377124
0.08114713216957606,0.03146429814271673
0.08119700748129675,0.024400472383520777
0.08124688279301745,0.027494606035626503
0.08129675810473816,0.007655748641938236
0.08134663341645886,0.024392408889373354
0.08139650872817955,0.006637915694730746
0.08144638403990025,0.030781707847140564
0.08149625935162094,0.010849568099530933
0.08154613466334165,0.03752424930826207
0.08159600997506235,0.03040862878974953
0.08164588528678304,0.037259744773890505
0.08169576059850374,0.02934010189897469
0.08174563591022443,0.035417078532052775
0.08179551122194513,0.023551052354651665
0.08184538653366584,0.04829101150133677
0.08189526184538654,0.02090482429501856
0.08194513715710723,0.03709993587039348
0.08199501246882793,0.021706823497331853
0.08204488778054862,0.03828898416659619
0.08209476309226933,0.023534566296791223
0.08214463840399003,0.05042505431274931
0.08219451371571072,0.01598743674234321
0.08224438902743142,0.018398019975726036
0.08229426433915212,0.03336538731254078
0.08234413965087282,0.01568245477031658
0.08239401496259352,0.0007702171524211973
0.08244389027431422,0.016116368919090462
0.08249376558603491,0.03172193113422104
0.08254364089775561,0.008783432952569056
0.0825935162094763,0.01728837396517221
0.08264339152119701,0.03382180416286558
0.08269326683291771,0.033210902258152236
0.0827431421446384,0.026366699675017275
0.0827930174563591,0.03540090420038832
0.0828428927680798,-0.00206805518578591
0.0828927680798005,0.034873689726444036
0.0829426433915212,0.045423221185690456
0.0829925187032419,0.017936004351099502
0.08304239401496259,0.030185128122078877
0.08309226932668329,0.007911832755210495
0.08314214463840398,0.028553170794032485
0.0831920199501247,0.03902955936797793
0.08324189526184539,0.030208424160769392
0.08329177057356608,0.020445508160663088
0.08334164588528678,0.0036029309786882145
0.08339152119700748,0.015217474989461046
0.08344139650872819,0.0028285918187304394
0.08349127182044888,0.0016091896615752742
0.08354114713216958,-0.009991702718413754
0.08359102244389027,0.04472191331949843
0.08364089775561097,0.011055435986677506
0.08369077306733166,-0.003413985863794825
0.08374064837905237,0.011556271512387016
0.08379052369077307,0.022347400912258463
0.08384039900249377,0.015539184256981121
0.08389027431421446,-0.0121583321140867
0.08394014962593516,0.022998215204858546
0.08399002493765587,0.04889720486398131
0.08403990024937656,0.029424288784703483
0.08408977556109726,0.0383563745981692
0.08413965087281795,0.0200419125240342
0.08418952618453865,0.012480396203249868
0.08423940149625936,0.001704202106282502
0.08428927680798005,0.019166923162277496
0.08433915211970075,0.018462499996740576
0.08438902743142145,-0.013140531275812363
0.08443890274314214,0.028205890365081362
0.08448877805486284,0.040739088234591096
0.08453865336658355,0.024451300706710873
0.08458852867830424,0.039468281198549636
0.08463840399002494,0.015877654187136107
0.08468827930174563,0.032169070357696866
0.08473815461346633,0.027873640752843702
0.08478802992518704,-0.0075729911319315155
0.08483790523690773,0.02217231775206585
0.08488778054862843,0.01901311908017138
0.08493765586034913,0.018064848027893075
0.08498753117206982,0.03209562501935659
0.08503740648379052,0.01631165893763731
0.08508728179551123,-0.004256868150706075
0.08513715710723192,0.04151677139835016
0.08518703241895262,-0.003064138851977571
0.08523690773067331,0.011943192558260722
0.08528678304239401,0.026424154284869945
0.08533665835411472,0.0019090984194507013
0.08538653366583542,-0.011293955204431556
0.08543640897755611,-0.0024636905891848426
0.0854862842892768,0.003944770201421324
0.0855361596009975,0.03849587344226958
0.0855860349127182,-0.0006144029171511987
0.08563591022443891,0.028506785362716357
0.0856857855361596,-0.002462357264938044
0.0857356608478803,-0.014733680059680423
0.085785536159601,0.009343409895449897
0.08583541147132169,0.009236765007966023
0.0858852867830424,0.015301449455916317
0.0859351620947631,0.003650716352852605
0.08598503740648379,0.040968307223454035
0.08603491271820449,-0.005819466971631303
0.08608478802992518,0.004456704260955182
0.08613466334164588,0.025321766777553982
0.08618453865336659,0.018062192170404195
0.08623441396508728,-0.01805703697709772
0.08628428927680798,0.011433032839732328
0.08633416458852868,0.018757384591428238
0.08638403990024937,-0.001613031391852724
0.08643391521197008,0.018758811817609418
0.08648379052369078,0.020375958978948037
0.08653366583541147,0.008020051612430601
0.08658354114713217,-0.014581195624689963
0.08663341645885286,0.015019549077630933
0.08668329177057357,0.024959801839659852
0.08673316708229427,0.012021552407286631
0.08678304239401496,0.01008591879362284
0.08683291770573566,-0.028863219314835056
0.08688279301745636,0.006760529665328399
0.08693266832917705,0.008566056296421836
0.08698254364089776,-0.006025570717869239
0.08703241895261846,0.00388289997083656
0.08708229426433915,-0.009725673659716529
0.08713216957605985,-0.0008245891167898024
0.08718204488778054,0.0036840186106652387
0.08723192019950125,0.014030107023552854
0.08728179551122195,0.012427821504586257
0.08733167082294264,0.012047000160399389
0.08738154613466334,-0.0019078639805617651
0.08743142144638404,-0.0023898327525893447
0.08748129675810473,-0.014031410144427384
0.08753117206982544,-0.023515696457917658
0.08758104738154614,0.009907924783001072
0.08763092269326683,0.004595528561534197
0.08768079800498753,-0.018203012054820333
0.08773067331670822,0.013136972952209471
0.08778054862842893,-0.0019052399262376343
0.08783042394014963,-0.008184652138133179
0.08788029925187033,-0.03510768006050549
0.08793017456359102,-0.0004984535021899032
0.08798004987531172,-0.02705350355062281
0.08802992518703241,0.008901324272704009
0.08807980049875312,-0.007445123044958656
0.08812967581047382,-0.0051357391687588665
0.08817955112219451,0.0051689996380605355
0.08822942643391521,0.007845571907234535
0.0882793017456359,-0.00764560695876595
0.08832917705735661,-0.004307311965757071
0.08837905236907731,-0.02848844739911855
0.088428927680798,-0.01727440174448569
0.0884788029925187,-0.0025059661300596407
0.0885286783042394,0.0009232586664726303
0.0885785536159601,-0.02826496443620627
0.0886284289276808,0.027524970318566065
0.0886783042394015,0.03125492433479197
0.0887281795511222,-0.018602207379788967
0.08877805486284289,-0.01706238692710666
0.08882793017456359,0.026048275453692125
0.0888778054862843,-0.002954218977112767
0.08892768079800499,-0.016322413534014965
0.08897755610972569,-0.015122947959957982
0.08902743142144638,-0.01588041447052234
0.08907730673316708,0.0407968803412419
0.08912718204488779,-0.01971646776876835
0.08917705735660848,-0.011399753951011754
0.08922693266832918,-0.011114828723250366
0.08927680798004987,-0.02901126086032918
0.08932668329177057,-0.021199112029409807
0.08937655860349127,0.009952279263104203
0.08942643391521198,0.001958052834675693
0.08947630922693267,-0.022241298710976663
0.08952618453865337,-0.028094711514463546
0.08957605985037406,0.015846146185873815
0.08962593516209476,-0.007099414172637736
0.08967581047381547,-0.017589530441975587
0.08972568578553616,0.011351291257732512
0.08977556109725686,-0.007348011489402409
0.08982543640897755,0.01611879935949358
0.08987531172069825,-0.0012061497107096857
0.08992518703241895,0.002826789930335411
0.08997506234413966,-0.028257941419551492
0.09002493765586035,0.006320420470032888
0.09007481296758105,0.009162035635232851
0.09012468827930174,-0.015071322021605982
0.09017456359102244,-0.004195204810463959
0.09022443890274315,-0.009267688997148051
0.09027431421446384,-0.03427568525254994
0.09032418952618454,-0.028188474682425118
0.09037406483790524,-0.011936084603646068
0.09042394014962593,-0.0037577785091483934
0.09047381546134663,-0.0014125895485134956
0.09052369077306734,-0.0027397739317888154
0.09057356608478803,-0.0070725779117990755
0.09062344139650873,-0.005672035301405423
0.09067331670822942,-0.024250248311239633
0.09072319201995012,0.003919808360318865
0.09077306733167083,0.0030209696676887707
0.09082294264339152,-0.009751460985595088
0.09087281795511222,-0.043494605220046556
0.09092269326683292,-0.021914024518755473
0.09097256857855361,-0.013531580495322998
0.09102244389027432,-0.002191930144037584
0.09107231920199502,-0.010936495370391833
0.09112219451371571,0.00943181621661834
0.09117206982543641,-0.0230951416961769
0.0912219451371571,-0.019534313921542527
0.0912718204488778,-0.025671824429921223
0.09132169576059851,-0.019319265813360912
0.0913715710723192,-0.03242880633492099
0.0914214463840399,-0.015654430252052157
0.0914713216957606,-0.020632047842820758
0.09152119700748129,0.022111445036572266
0.091571072319202,-0.0036526544242781265
0.0916209476309227,-0.026691104774386673
0.09167082294264339,-0.021666462812372063
0.09172069825436409,-0.021612788616106958
0.09177057356608478,-0.01988198172383215
0.09182044887780548,0.012555502747742295
0.09187032418952619,-0.02723663132787054
0.09192019950124689,-0.01202422927451349
0.09197007481296758,0.003840883832695586
0.09201995012468828,0.014474376806678457
0.09206982543640897,-0.017763615955447946
0.09211970074812968,0.0016377599770058017
0.09216957605985038,-0.01737520862473515
0.09221945137157107,-0.011373045447154879
0.09226932668329177,-0.013400253373173361
0.09231920199501246,-0.0015874616422378446
0.09236907730673316,-0.00040278928806517303
0.09241895261845387,0.013509188883628995
0.09246882793017457,-0.01927342079720271
0.09251870324189526,-0.0040497484887056885
0.09256857855361596,-0.02129759724161448
0.09261845386533665,-0.008468990186741136
0.09266832917705736,-0.021049020836836102
0.09271820448877806,0.011402410556999018
0.09276807980049875,-7.934758263803028e-05
0.09281795511221945,-0.0015536238794719073
0.09286783042394015,0.011309623537822867
0.09291770573566084,0.012962415076462208
0.09296758104738155,-0.003405829920097269
0.09301745635910225,-0.023800388529666663
0.09306733167082294,-0.019534342056455656
0.09311720698254364,-0.01926980526836733
0.09316708229426433,-0.02413175369970938
0.09321695760598504,0.0038445153185740905
0.09326683291770574,0.02235292282244349
0.09331670822942643,-0.017782599259803453
0.09336658354114713,-0.017139641513576172
0.09341645885286783,-0.008635721159501916
0.09346633416458854,-0.0015626886042464589
0.09351620947630923,0.01198741498193178
0.09356608478802993,-0.007513321250766907
0.09361596009975062,-0.020475571935690016
0.09366583541147132,-0.031078817971910654
0.09371571072319201,0.005897126238609904
0.09376558603491272,-0.04064011235818176
0.09381546134663342,-0.0075022661999066395
0.09386533665835411,-0.019604762762223633
0.09391521197007481,-0.008733815946908325
0.0939650872817955,-0.008677233631336947
0.09401496259351622,-0.002846168512087496
0.09406483790523691,-0.0068475466995688026
0.09411471321695761,-0.008547883275613156
0.0941645885286783,-0.026856220097278557
0.094214463840399,-0.0029596377729400923
0.0942643391521197,0.0030018744474422957
0.0943142144638404,0.006338215164760562
0.0943640897755611,-0.05506518581478655
0.0944139650872818,-0.004452503024211029
0.09446384039900249,-0.005707743855812523
0.09451371571072319,0.00393035747450001
0.0945635910224439,0.004026257888795779
0.09461346633416459,-0.028746519037060124
0.09466334164588529,0.009212996566594075
0.09471321695760598,-0.016105375122425148
0.09476309226932668,0.006304337870893523
0.09481296758104737,0.003952772077543241
0.09486284289276808,-0.00795105658958512
0.09491271820448878,-0.017055419273308565
0.09496259351620948,0.00357536986425198
0.09501246882793017,0.0021242910077413158
0.09506234413965087,-0.017626195239904677
0.09511221945137158,0.006304052445406872
0.09516209476309227,-0.02209101158768065
0.09521197007481297,-0.007967137948815813
0.09526184538653366,-0.001823812111178233
0.09531172069825436,-0.017005581231308686
0.09536159600997507,-0.02779527993741572
0.09541147132169576,0.01569067152734849
0.09546134663341646,0.015108288793848991
0.09551122194513716,-0.0037041714362220255
0.09556109725685785,-0.014109253461794478
0.09561097256857855,0.003399068733290937
0.09566084788029926,0.01883564343858292
0.09571072319201995,-0.0008650287994663615
0.09576059850374065,0.011855446712800543
0.09581047381546134,-0.021999261951125854
0.09586034912718204,0.03858016122079031
0.09591022443890275,0.0038051599440649935
0.09596009975062345,0.013365942756284827
0.09600997506234414,0.020362563309419726
0.09605985037406484,0.011164146357905113
0.09610972568578553,0.0034080250908313297
0.09615960099750623,0.011041969309683132
0.09620947630922694,0.015787775452092468
0.09625935162094763,0.007379380081850384
0.09630922693266833,0.006226622780604193
0.09635910224438902,0.01447535260221388
0.09640897755610972,0.007204245271984388
0.09645885286783043,0.008431642132244208
0.09650872817955113,0.002926207483025452
0.09655860349127182,0.005778061311505205
0.09660847880299252,0.018978496877254735
0.09665835411471321,0.03564084429150185
0.09670822942643391,0.003111255298967089
0.09675810473815462,0.02453567677328974
0.09680798004987531,0.005233848710806366
0.09685785536159601,0.024186828154998792
0.0969077306733167,-0.014367671725718104
0.0969576059850374,0.010962414327325223
0.09700748129675811,0.0030565373751225266
0.0970573566084788,0.008238362819587666
0.0971072319201995,0.03010811733831455
0.0971571072319202,0.009679408552716921
0.0972069825436409,0.026428635739085885
0.09725685785536159,0.003557905250873508
0.0973067331670823,0.03733684557806406
0.097356608478803,0.01070175749671641
0.09740648379052369,0.0023976297886966775
0.09745635910224439,0.027303026822398206
0.09750623441396508,-7.125731372232234e-05
0.09755610972568579,0.01900779668752115
0.09760598503740649,0.027263389511794387
0.09765586034912718,0.0073013763706167994
0.09770573566084788,0.054275526075931405
0.09775561097256857,-0.0017747629684539586
0.09780548628428928,0.023619257248948686
0.09785536159600998,0.052360247769403415
0.09790523690773068,0.04392252425344434
0.09795511221945137,0.01759263930323971
0.09800498753117207,0.025729369414984073
0.09805486284289276,0.01416947228192686
0.09810473815461347,0.012403661961855253
0.09815461346633417,0.04627287968854171
0.09820448877805486,0.025412835917531906
0.09825436408977556,-0.00019890979059000377
0.09830423940149625,0.009618674261851288
0.09835411471321696,0.01733585080656633
0.09840399002493766,0.015158219587590675
0.09845386533665836,0.05693660945475467
0.09850374064837905,0.037025652603266596
0.09855361596009975,0.047746069739484184
0.09860349127182044,0.018495846384691542
0.09865336658354115,0.003945709693598143
0.09870324189526185,0.044664957273686634
0.09875311720698254,0.02570918065153667
0.09880299251870324,0.010797619099545335
0.09885286783042393,0.023339266151818545
0.09890274314214464,0.02657026843875025
0.09895261845386534,0.006638043309905833
0.09900249376558604,-0.006728626739399595
0.09905236907730673,0.009089630609991713
0.09910224438902743,0.019069928243023428
0.09915211970074812,0.026489870253588618
0.09920199501246883,0.018636725251104425
0.09925187032418953,0.025416952168124472
0.09930174563591022,0.0049957072531385885
0.09935162094763092,0.02452386783983962
0.09940149625935162,0.03075646775892379
0.09945137157107233,0.008626177593285156
0.09950124688279302,0.022042168772925048
0.09955112219451372,0.022151637212574772
0.09960099750623441,0.016784782520331446
0.09965087281795511,0.018085098355813276
0.0997007481296758,0.034567478745086595
0.09975062344139651,0.02487219031833691
0.09980049875311721,0.02296369133443681
0.0998503740648379,0.028885859460360902
0.0999002493765586,0.015738961980961735
0.0999501246882793,0.014547306126423364
0.1,-0.008615986095742979
0.1000498753117207,0.035428397533641395
0.1000997506234414,0.027669582955403386
0.10014962593516209,-0.009245394372058822
0.10019950124688279,0.008985169564054922
0.1002493765586035,0.02672533402843837
0.1002992518703242,0.01992197192520026
0.10034912718204489,0.024819324925958848
0.10039900249376559,-0.0023578415759900988
0.10044887780548628,0.05638711963760279
0.10049875311720698,-0.010272251292763362
0.10054862842892769,0.02821638375223925
0.10059850374064838,0.03672369771946782
0.10064837905236908,0.023606876248986462
0.10069825436408977,0.033164253264995655
0.10074812967581047,0.035534758667938586
0.10079800498753118,0.036997427884478004
0.10084788029925187,0.026931783986843268
0.10089775561097257,0.011066189294965528
0.10094763092269327,0.026973664256276897
0.10099750623441396,0.03168595390791648
0.10104738154613466,0.013661832179240567
0.10109725685785537,0.03522255061819804
0.10114713216957606,0.025933460162486998
0.10119700748129676,0.02342882560960053
0.10124688279301745,0.03945316632201994
0.10129675810473815,0.03715510363635287
0.10134663341645886,0.04650197307614016
0.10139650872817955,0.05247604182385403
0.10144638403990025,0.02570813368133087
0.10149625935162095,0.04615800545661897
0.10154613466334164,0.055337955705815026
0.10159600997506234,0.020725345479191123
0.10164588528678305,0.02240217128708101
0.10169576059850374,0.030943026444450954
0.10174563591022444,0.02470814344969371
0.10179551122194513,0.0421531985168171
0.10184538653366583,0.012612067722517467
0.10189526184538654,0.030217003554313976
0.10194513715710724,0.018001814016841682
0.10199501246882793,0.019997123226367194
0.10204488778054863,0.03278125304610347
0.10209476309226932,-0.003920424200935489
0.10214463840399003,0.027230304281161473
0.10219451371571073,0.03920180603837649
0.10224438902743142,0.029425007628667836
0.10229426433915212,0.03380837673039696
0.10234413965087281,0.03365708918821583
0.10239401496259351,0.04058055124777378
0.10244389027431422,0.01190342480521893
0.10249376558603492,0.05319655401648611
0.10254364089775561,0.027661410976305704
0.10259351620947631,0.03152591125347625
0.102643391521197,0.03167941898248404
0.10269326683291771,0.03750736147143066
0.10274314214463841,0.008878674845614595
0.1027930174563591,0.0207539195805029
0.1028428927680798,0.034876477117495114
0.1028927680798005,0.021095920366147953
0.10294264339152119,0.02461911006762019
0.1029925187032419,0.026491661496232128
0.1030423940149626,0.019279740620135016
0.10309226932668329,0.02075630003946681
0.10314214463840399,0.0192261607952471
0.10319201995012468,0.01593204039681714
0.10324189526184539,0.01517242565411711
0.10329177057356609,0.0584151853220093
0.10334164588528678,0.019508665462279313
0.10339152119700748,0.05283457316049217
0.10344139650872818,0.024068381296028188
0.10349127182044887,0.03991404529548441
0.10354114713216958,0.023691440546493917
0.10359102244389028,0.03725046788419201
0.10364089775561097,0.03661594262967845
0.10369077306733167,0.011966064158830956
0.10374064837905236,-0.0006448825200660452
0.10379052369077307,0.0097259441739683
0.10384039900249377,0.03455367147578474
0.10389027431421446,0.020178447392024967
0.10394014962593516,0.02757846033473511
0.10399002493765586,0.02490116807663685
0.10403990024937655,0.029080165396872908
0.10408977556109726,0.014058877295541825
0.10413965087281796,0.020312710503129258
0.10418952618453865,-0.006334348155620985
0.10423940149625935,0.04286021346992401
0.10428927680798004,0.0002689519815479817
0.10433915211970075,0.038051028256454476
0.10438902743142145,0.014095049699505036
0.10443890274314215,0.03314055038887688
0.10448877805486284,0.03610746832379726
0.10453865336658354,0.012782644758887254
0.10458852867830425,0.052155993825381115
0.10463840399002494,0.03147450983986607
0.10468827930174564,-0.005919433863986218
0.10473815461346633,-0.0017913782853049877
0.10478802992518703,0.02159903530345196
0.10483790523690772,0.02634636091456026
0.10488778054862843,0.023390729536478316
0.10493765586034913,0.013728235813459362
0.10498753117206983,0.015132599060817181
0.10503740648379052,0.02564387741762905
0.10508728179551122,0.019778568947275935
0.10513715710723193,0.0327781253680403
0.10518703241895262,0.0303105804379203
0.10523690773067332,0.00038752668789897825
0.10528678304239401,0.028875279527323668
0.10533665835411471,0.02348173029915778
0.1053865336658354,0.018123900226842977
0.10543640897755611,0.018684847748272507
0.10548628428927681,0.009843121565008208
0.1055361596009975,0.02206233619241792
0.1055860349127182,0.03204444222493288
0.1056359102244389,0.017338086506289506
0.10568578553615961,0.032946228361861854
0.1057356608478803,-0.0030236123775274296
0.105785536159601,0.014857467054603253
0.1058354114713217,0.012197277910000682
0.10588528678304239,0.020665669490833163
0.10593516209476309,-0.017432951629171238
0.1059850374064838,-0.019285265068434837
0.10603491271820449,-0.0067390949828148115
0.10608478802992519,0.0033209067058648173
0.10613466334164588,0.021132985018858547
0.10618453865336658,0.004895708405099397
0.10623441396508729,0.016466789562651598
0.10628428927680798,0.002409494054810799
0.10633416458852868,-0.001983254814194568
0.10638403990024937,0.04493651774689243
0.10643391521197007,-0.014321143687657807
0.10648379052369077,0.015676101721295695
0.10653366583541148,0.0006273943092514863
0.10658354114713217,-0.008782306073794089
0.10663341645885287,0.014037484418647281
0.10668329177057356,0.002917081296595367
0.10673316708229426,0.022339562029409142
0.10678304239401497,0.011728998029753615
0.10683291770573566,0.018637535092861486
0.10688279301745636,-0.001298842775236125
0.10693266832917706,-0.014250344879655093
0.10698254364089775,0.009040334338771907
0.10703241895261846,0.02160441603346285
0.10708229426433916,0.0038266294780740064
0.10713216957605985,0.009434619686236021
0.10718204488778055,-0.009507532323113091
0.10723192019950124,0.004145184528378108
0.10728179551122194,0.005474587623879275
0.10733167082294265,0.007524229029422624
0.10738154613466334,0.0037324339150772356
0.10743142144638404,-0.027031730553899187
0.10748129675810474,-0.017300880200409343
0.10753117206982543,0.02692258775007128
0.10758104738154614,0.01941403171747244
0.10763092269326684,0.0007335224048021748
0.10768079800498753,0.00700525839278202
0.10773067331670823,-0.011994058366161488
0.10778054862842892,-0.015476632082812525
0.10783042394014962,-0.004505112985115924
0.10788029925187033,-0.010012559209131971
0.10793017456359102,0.017327023589754194
0.10798004987531172,-0.010926057365454137
0.10802992518703242,-0.0005755473276156452
0.10807980049875311,-0.0175041830305286
0.10812967581047382,-0.0066017934012793395
0.10817955112219452,-0.016876233669810715
0.10822942643391521,-0.01896155417658868
0.10827930174563591,-0.002875966316379564
0.1083291770573566,0.010554620552818366
0.1083790523690773,0.00905376969212104
0.10842892768079801,-0.014255838594237185
0.1084788029925187,-0.006511872825827693
0.1085286783042394,0.012206818183144976
0.1085785536159601,-0.025843064505599953
0.10862842892768079,0.009402728898932395
0.1086783042394015,0.007555334836763374
0.1087281795511222,-0.005399231027109891
0.1087780548628429,-0.004948735476062175
0.10882793017456359,-0.007745531511273311
0.10887780548628428,-0.019886110409928465
0.108927680798005,-8.052278955857431e-05
0.10897755610972569,-0.039325973998823024
0.10902743142144639,-0.01305957590075551
0.10907730673316708,0.021082404248899615
0.10912718204488778,-0.0032021979404095804
0.10917705735660847,0.0026003462862999194
0.10922693266832918,-0.016060040986862492
0.10927680798004988,-0.008797058858934875
0.10932668329177057,-0.010028347246351382
0.10937655860349127,0.001155263209346103
0.10942643391521197,0.007804289089683544
0.10947630922693267,0.0028586651074546544
0.10952618453865337,-0.04143675094242903
0.10957605985037407,-0.005291796255110164
0.10962593516209476,-0.014064578474783566
0.10967581047381546,-0.022901699485673232
0.10972568578553615,-0.0203548976142272
0.10977556109725686,0.012240514356610114
0.10982543640897756,0.0018119974038264368
0.10987531172069825,-0.0251317479944907
0.10992518703241895,-0.02520730902443391
0.10997506234413965,-0.004147770456181295
0.11002493765586036,-0.015305606808560482
0.11007481296758105,-0.02647087728211213
0.11012468827930175,-0.0005489904691057222
0.11017456359102244,-0.011322316064821132
0.11022443890274314,0.01081788205820821
0.11027431421446383,-0.01854657856762775
0.11032418952618454,-0.002830003563743919
0.11037406483790524,-0.013661834805662522
0.11042394014962593,0.011919175540996096
0.11047381546134663,0.006501365337937149
0.11052369077306733,-0.012500339778210601
0.11057356608478804,-0.006379938203070403
0.11062344139650873,-0.02467615101212763
0.11067331670822943,-0.00883383611735094
0.11072319201995012,-0.04561910784291254
0.11077306733167082,-0.004819759524484058
0.11082294264339151,-0.02641551046435144
0.11087281795511222,-2.5468683382687957e-05
0.11092269326683292,-0.011400061621907312
0.11097256857855362,-0.0025498019192523053
0.11102244389027431,0.00752030635582536
0.111072319201995,-0.030306130757689224
0.11112219451371572,-0.0005711115605981747
0.11117206982543641,-0.02583185619096354
0.11122194513715711,-0.009979232212876986
0.1112718204488778,0.007247582669864085
0.1113216957605985,0.007863350956295426
0.11137157107231921,-0.00949449323867594
0.1114214463840399,-0.01186343270587505
0.1114713216957606,-0.020155086154718713
0.1115211970074813,-0.017877223674825252
0.11157107231920199,0.009193848208232604
0.11162094763092269,0.008968460865113102
0.1116708229426434,-0.009877656742060129
0.11172069825436409,0.004613325998957861
0.11177057356608479,0.007109173333927587
0.11182044887780548,-0.01712194390448154
0.11187032418952618,-0.024042778318436132
0.11192019950124689,-0.004931322741081913
0.11197007481296758,-0.016396638235915077
0.11201995012468828,0.005001541987266189
0.11206982543640898,-0.02207852296523455
0.11211970074812967,-0.037327804142949346
0.11216957605985037,0.004126856885907155
0.11221945137157108,0.001575150735271787
0.11226932668329177,-0.02030816447289906
0.11231920199501247,0.001580830519565455
0.11236907730673316,-0.02484352221772533
0.11241895261845386,0.013724718223660587
0.11246882793017457,-0.00048769213290987545
0.11251870324189527,0.012008061206045528
0.11256857855361596,-0.034165437466834786
0.11261845386533666,0.003150168576092363
0.11266832917705735,-0.02181580669707571
0.11271820448877805,-0.01703871297025275
0.11276807980049876,-0.006516361905514316
0.11281795511221945,0.01701967800711353
0.11286783042394015,-0.03343395211774434
0.11291770573566084,-0.009754607424360896
0.11296758104738154,0.012297997852058613
0.11301745635910225,-0.02235603469131523
0.11306733167082295,-0.025739564415167275
0.11311720698254364,-0.020815579689167293
0.11316708229426434,-0.015023534359340873
0.11321695760598503,0.006908636850936827
0.11326683291770574,0.01785408117547594
0.11331670822942644,0.014063270825382635
0.11336658354114713,-0.01385953989956819
0.11341645885286783,0.0029769670741518484
0.11346633416458853,-0.010163578657663964
0.11351620947630922,0.0011203972001402277
0.11356608478802993,-0.002324364953675359
0.11361596009975063,0.003667438156740423
0.11366583541147132,-0.017734490165404536
0.11371571072319202,0.01734707488521317
0.11376558603491271,-0.006078747706433924
0.11381546134663342,-0.013625818763118778
0.11386533665835412,0.0027946487352970987
0.11391521197007481,-0.027208320489532912
0.11396508728179551,0.002592897723380525
0.1140149625935162,-0.008678158636157653
0.1140648379052369,-0.011886016079333121
0.11411471321695761,-0.007455436439987901
0.1141645885286783,-0.0022097451185199212
0.114214463840399,0.0011478591052585634
0.1142643391521197,-0.015217630198072636
0.1143142144638404,-0.024283655814376172
0.1143640897755611,-0.0005800298087072905
0.1144139650872818,-0.004068553205526012
0.1144638403990025,-0.006099151014453113
0.11451371571072319,-0.004387120784081886
0.11456359102244389,-0.013455485903357373
0.11461346633416458,0.008174814246243943
0.11466334164588529,0.014724788660225242
0.11471321695760599,-0.027073423484492074
0.11476309226932668,-0.024729576424271628
0.11481296758104738,0.005126500494184073
0.11486284289276807,-0.00026731975542193314
0.11491271820448878,0.009774057784258189
0.11496259351620948,-0.001347541191218998
0.11501246882793018,-0.004003487152530423
0.11506234413965087,0.0027127351979137344
0.11511221945137157,-0.013429374557087426
0.11516209476309226,-0.010738534433232954
0.11521197007481297,-0.011148107886098685
0.11526184538653367,-0.02132799311765933
0.11531172069825436,-0.016798113949151247
0.11536159600997506,-0.010340810370118483
0.11541147132169575,-0.01646232563572647
0.11546134663341646,-0.006799059192138377
0.11551122194513716,0.002223918156626821
0.11556109725685786,0.0015402785838155098
0.11561097256857855,0.013583720300273027
0.11566084788029925,0.011811407759613767
0.11571072319201996,0.0051026523141442185
0.11576059850374065,0.014880357687748305
0.11581047381546135,0.015183211326654825
0.11586034912718204,0.005719146941865871
0.11591022443890274,0.027094805103498314
0.11596009975062344,0.006675489752019662
0.11600997506234415,0.003731694864583332
0.11605985037406484,0.017417086448686458
0.11610972568578554,-0.0007831516666339539
0.11615960099750623,-0.010458663214895273
0.11620947630922693,-0.0029183834301970413
0.11625935162094764,0.03094639326836475
0.11630922693266833,0.030545192675342732
0.11635910224438903,0.034989223811949285
0.11640897755610972,0.0359378488111024
0.11645885286783042,-0.0060856008132838865
0.11650872817955112,0.013235549231745443
0.11655860349127183,0.0014892402464272876
0.11660847880299252,0.007964401653748808
0.11665835411471322,-0.01167625724103028
0.11670822942643391,0.0017610520380221765
0.11675810473815461,0.02252855738718755
0.11680798004987532,-0.023369324475609157
0.11685785536159601,0.021957026252574174
0.11690773067331671,0.0038843988461476995
0.1169576059850374,-0.0020452979994425927
0.1170074812967581,0.021261365161968457
0.1170573566084788,0.023067589715876115
0.1171072319201995,0.0050706309153702046
0.1171571072319202,0.0051210054219702605
0.1172069825436409,0.007186831040489437
0.1172568578553616,0.026507725965254546
0.11730673316708229,0.009096928967117793
0.117356608478803,0.001358712060602384
0.1174064837905237,0.023019079281509352
0.11745635910224439,0.04013845389226456
0.11750623441396509,0.00660636796421751
0.11755610972568578,0.022174639268742188
0.11760598503740648,0.019886873136272607
0.11765586034912719,0.025102306679397012
0.11770573566084788,0.02677162886842218
0.11775561097256858,0.01645756146190931
0.11780548628428927,0.02203850415202958
0.11785536159600997,0.03071183513831511
0.11790523690773068,0.05486815597316922
0.11795511221945137,0.012716173035470535
0.11800498753117207,-0.010907927174181247
0.11805486284289277,0.031577286488325876
0.11810473815461346,0.02282547903879248
0.11815461346633417,-0.006115702032786222
0.11820448877805487,0.032422898303423674
0.11825436408977556,0.027449173915598864
0.11830423940149626,0.01389777538160757
0.11835411471321695,0.0034613646497235716
0.11840399002493765,0.01899504461370088
0.11845386533665836,0.060199463737903025
0.11850374064837906,-0.0008819066137574078
0.11855361596009975,0.015823638148187165
0.11860349127182045,0.026429014454951858
0.11865336658354114,0.009571498067841713
0.11870324189526185,0.02020147006723852
0.11875311720698255,0.03179465130155381
0.11880299251870324,0.021649358629807665
0.11885286783042394,0.03218646940709262
0.11890274314214463,0.012593426166691093
0.11895261845386533,0.028010422265557104
0.11900249376558604,0.012966100584697887
0.11905236907730674,-0.0039197275798871535
0.11910224438902743,0.0019098181889055828
0.11915211970074813,0.017243172440623192
0.11920199501246882,0.015148082524482222
0.11925187032418953,0.015146000000348785
0.11930174563591023,0.013810542246802074
0.11935162094763092,0.03136365972524047
0.11940149625935162,0.028376534460656463
0.11945137157107232,0.024943782134988608
0.11950124688279301,0.033281471867744924
0.11955112219451372,0.01952184479677846
0.11960099750623442,0.03745498183233664
0.11965087281795511,0.027594251337369334
0.11970074812967581,0.008422588160862499
0.1197506234413965,0.039212239909075186
0.11980049875311721,-0.012154045613641362
0.11985037406483791,0.04567680342767125
0.1199002493765586,0.044655068528358294
0.1199501246882793,0.01826555362652552
0.12,0.02184266463601632
0.1200498753117207,0.029049304032178574
0.1200997506234414,0.05634081186718399
0.1201496259351621,0.029921413224753547
0.12019950124688279,0.031150084705974863
0.12024937655860349,0.03956295245071558
0.12029925187032418,0.02540198372732377
0.1203491271820449,0.04042450648342088
0.12039900249376559,0.04774127150713326
0.12044887780548628,-0.0010264845293962294
0.12049875311720698,0.01521605280802804
0.12054862842892768,0.02242451992513768
0.12059850374064839,0.01715522772086393
0.12064837905236908,0.05827233752702729
0.12069825436408978,0.037004035539594575
0.12074812967581047,0.06646985166423978
0.12079800498753117,0.009204098955049478
0.12084788029925186,0.027892306601919638
0.12089775561097257,0.050404437660250385
0.12094763092269327,0.00825683904713051
0.12099750623441397,0.001038211302740323
0.12104738154613466,0.025044042452708765
0.12109725685785536,0.027724513311930068
0.12114713216957607,0.009351179067454203
0.12119700748129676,0.03509484756329112
0.12124688279301746,0.02621916087127443
0.12129675810473815,0.011306611189812937
0.12134663341645885,0.014919057590057008
0.12139650872817954,0.013574210841291519
0.12144638403990025,0.025708509413476712
0.12149625935162095,0.050741107531090734
0.12154613466334165,0.019875903337577022
0.12159600997506234,0.044449184974417855
0.12164588528678304,0.025321942017219733
0.12169576059850375,0.0468888274062614
0.12174563591022444,0.03937013535317933
0.12179551122194514,0.03609644229973838
0.12184538653366583,0.029782475105375374
0.12189526184538653,0.030983399270098286
0.12194513715710723,0.045433481545704105
0.12199501246882793,0.023785271025191363
0.12204488778054863,0.02115609791181463
0.12209476309226933,0.04050825016955614
0.12214463840399002,0.056387913682417454
0.12219451371571072,0.02369643019058906
0.12224438902743143,0.01145925504814246
0.12229426433915212,0.03178565645623753
0.12234413965087282,0.019588860369571956
0.12239401496259351,0.024842053522081773
0.12244389027431421,0.03037072076767445
0.12249376558603492,0.02565127114468885
0.12254364089775562,0.01347195839507322
0.12259351620947631,-0.007567564589815529
0.122643391521197,0.052790184459678945
0.1226932668329177,0.04196620981251134
0.1227431421446384,0.03795540155727749
0.12279301745635911,0.018333338178680738
0.1228428927680798,0.042421299882600405
0.1228927680798005,0.020637774842173464
0.1229426433915212,0.04014323076994125
0.12299251870324189,0.01800663550243363
0.1230423940149626,0.002911519852869835
0.1230922693266833,0.023472481574065382
0.12314214463840399,0.024596891151203202
0.12319201995012469,0.008903903620549224
0.12324189526184538,-0.0023680280038967695
0.12329177057356608,-0.0030111682521120516
0.12334164588528679,0.034830414852775556
0.12339152119700748,0.03683841118569886
0.12344139650872818,0.045039085484798624
0.12349127182044888,0.030603651696278343
0.12354114713216957,0.027781790731830472
0.12359102244389028,0.03153070652596124
0.12364089775561098,0.043318138224232625
0.12369077306733167,0.0009632863257033435
0.12374064837905237,0.012281905351869429
0.12379052369077306,-0.001507061592475576
0.12384039900249376,0.02310670359487724
0.12389027431421447,0.011684078117156018
0.12394014962593516,0.021783704223860747
0.12399002493765586,0.01202748647657287
0.12403990024937656,0.010625909230175765
0.12408977556109725,0.02000976740237554
0.12413965087281796,0.037161743186419335
0.12418952618453866,0.03859019022129126
0.12423940149625935,0.02828133999134485
0.12428927680798005,-0.009453212855436537
0.12433915211970074,0.0218060133244962
0.12438902743142144,-0.013102082193424715
0.12443890274314215,0.01990244718851192
0.12448877805486284,0.03459130661553665
0.12453865336658354,0.002017326669641724
0.12458852867830424,0.045943346311336355
0.12463840399002493,0.008360639358850452
0.12468827930174564,0.03339007691970189
0.12473815461346634,0.03583923601053836
0.12478802992518703,0.036949088140717484
0.12483790523690773,-0.007337876548454532
0.12488778054862842,0.009537239655942786
0.12493765586034913,-0.005194650803320933
0.12498753117206983,0.044744197920984496
0.12503740648379053,0.03146032819008184
0.12508728179551123,0.036358721032231395
0.12513715710723192,0.018193719754896396
0.12518703241895263,0.021210453853011152
0.1252369077306733,0.05977586385557007
0.12528678304239402,0.010353618074730158
0.1253366583541147,0.03245565863189334
0.1253865336658354,0.009403500188281885
0.12543640897755612,0.008440953304782246
0.1254862842892768,0.010153427716428935
0.1255361596009975,0.0176560906718216
0.1255860349127182,0.055854186172691556
0.1256359102244389,0.001153557677990075
0.1256857855361596,-0.0064535815044781675
0.1257356608478803,0.01776690288214703
0.125785536159601,0.0027160815689710217
0.12583541147132168,0.012793090941662921
0.1258852867830424,0.010613538594847219
0.1259351620947631,0.002487532457276365
0.12598503740648379,0.01889340009668348
0.1260349127182045,0.003089367167601079
0.12608478802992518,-0.01020985026338239
0.1261346633416459,0.004797493711669221
0.1261845386533666,0.02834365135236287
0.12623441396508728,0.0016211939153056385
0.126284289276808,0.02544338154586165
0.12633416458852867,0.014636295521558096
0.12638403990024938,0.006744335652818241
0.1264339152119701,0.0011684197339618379
0.12648379052369077,0.004028554735932356
0.12653366583541148,-0.01042796518406249
0.12658354114713216,0.006851683923384022
0.12663341645885287,0.021021482652849886
0.12668329177057355,-0.0067442163846591595
0.12673316708229426,0.02585322128009589
0.12678304239401497,0.03484299114663633
0.12683291770573565,0.022290549636888604
0.12688279301745636,0.00023805869105556453
0.12693266832917705,0.008436372862392228
0.12698254364089775,0.004431618908013898
0.12703241895261846,0.0030781885031973912
0.12708229426433915,0.013229208119200017
0.12713216957605986,-0.0015657533627606302
0.12718204488778054,-0.00736428341173883
0.12723192019950125,0.015624150215049273
0.12728179551122196,0.023402493401188385
0.12733167082294264,0.02016817326255136
0.12738154613466335,0.004098875284878481
0.12743142144638403,-0.012535304701810534
0.12748129675810474,0.020191851272098247
0.12753117206982545,-0.007985804881161592
0.12758104738154613,0.018155184170410343
0.12763092269326684,-0.007714568407492977
0.12768079800498752,-0.011396257265391266
0.12773067331670823,0.0017725756183015963
0.1277805486284289,-0.03487140338147719
0.12783042394014962,0.015452576987247262
0.12788029925187033,0.010031528294325385
0.12793017456359101,-0.016163010866648918
0.12798004987531172,0.02869525071767899
0.1280299251870324,-0.007131959247406519
0.12807980049875312,0.013094804956981952
0.12812967581047383,0.020957906210315517
0.1281795511221945,-0.02478535938893901
0.12822942643391522,-0.0010461746413417343
0.1282793017456359,-0.005332333777696095
0.1283291770573566,0.004417662405789213
0.12837905236907732,0.01081463626978244
0.128428927680798,0.006553580193288902
0.1284788029925187,-0.0005416305167273644
0.1285286783042394,-0.016054720282426035
0.1285785536159601,0.0167911679486097
0.1286284289276808,0.006145380040345191
0.1286783042394015,-0.022056486549354187
0.1287281795511222,-0.016156122786433004
0.12877805486284288,0.0024409182776214166
0.1288279301745636,-0.016128575111673038
0.1288778054862843,-0.006307458617095221
0.12892768079800498,-0.018210072559372705
0.1289775561097257,0.014746618846306748
0.12902743142144638,-0.026698941495693837
0.12907730673316709,0.018632723944187204
0.12912718204488777,0.0022173860709465455
0.12917705735660848,-0.011820758853136795
0.1292269326683292,0.018712964259013906
0.12927680798004987,0.004331245215512867
0.12932668329177058,-0.03157905046499832
0.12937655860349126,-0.0012976524737520955
0.12942643391521197,-0.02782035879326599
0.12947630922693268,0.003578269888509865
0.12952618453865336,-0.006072076763909105
0.12957605985037407,0.0033060643617354012
0.12962593516209475,0.004962627719504875
0.12967581047381546,0.013364853463246685
0.12972568578553617,-0.012099544375490252
0.12977556109725685,-0.03600278901867
0.12982543640897756,-0.020304420714023375
0.12987531172069824,-0.03978540637374247
0.12992518703241895,-0.0018591788111328193
0.12997506234413966,0.014574486421649638
0.13002493765586035,-0.02892831951287933
0.13007481296758105,-0.02581877689068722
0.13012468827930174,-0.0338158208601843
0.13017456359102245,0.0055384642225964845
0.13022443890274316,-0.0014606383767686217
0.13027431421446384,0.009088505990050328
0.13032418952618455,-0.029732712835143137
0.13037406483790523,0.010499677860994596
0.13042394014962594,-0.015312574390763212
0.13047381546134662,-0.007102410177217874
0.13052369077306733,0.013656921624194645
0.13057356608478804,0.01486351424111747
0.13062344139650872,-0.0009498191843972572
0.13067331670822943,-0.02657847259886828
0.1307231920199501,0.00028093570300831254
0.13077306733167082,-0.0024257956697744144
0.13082294264339153,-0.011338888371935526
0.13087281795511221,0.014669506951239971
0.13092269326683292,0.016059888388822732
0.1309725685785536,-0.0019396383717592402
0.13102244389027431,-0.01623548005541767
0.13107231920199502,-0.027666812563567005
0.1311221945137157,-0.025967397218448852
0.13117206982543642,-0.01054209911974472
0.1312219451371571,-0.01364326834616539
0.1312718204488778,-0.0026226626337354396
0.13132169576059852,-0.0061555219034453235
0.1313715710723192,-0.01954119538966774
0.1314214463840399,0.02832421885624098
0.1314713216957606,-0.03905954740193623
0.1315211970074813,-0.014770969957618278
0.13157107231920198,-0.011006248073584898
0.1316209476309227,-0.020707145255236342
0.1316708229426434,0.009152498879077594
0.13172069825436408,-0.027942432728125646
0.1317705735660848,0.009747372928845364
0.13182044887780547,0.01478434537139685
0.13187032418952618,-0.013676730499293178
0.1319201995012469,-0.001198850299803187
0.13197007481296757,0.006722152631055139
0.13201995012468828,-0.021554883171954926
0.13206982543640897,0.0003741089560657107
0.13211970074812968,-0.013478179269686285
0.13216957605985039,-0.0044360225972625055
0.13221945137157107,0.004564341691811533
0.13226932668329178,-0.01896474618148183
0.13231920199501246,-0.05115124610900115
0.13236907730673317,-0.006337002818361945
0.13241895261845388,0.002555779422458812
0.13246882793017456,-0.022424367959683892
0.13251870324189527,-0.03969046519268749
0.13256857855361595,-0.028596771276830774
0.13261845386533666,0.004126642277259918
0.13266832917705737,-0.030209984118294442
0.13271820448877805,-0.019245998760818124
0.13276807980049876,-0.016987146120147442
0.13281795511221944,-0.009182565607082242
0.13286783042394015,0.02425123693526465
0.13291770573566083,0.008319543667427456
0.13296758104738154,-0.022550201670627004
0.13301745635910225,0.0037776691392853497
0.13306733167082294,-0.003252010069559414
0.13311720698254365,-0.0023016115383688463
0.13316708229426433,-0.026105222318926737
0.13321695760598504,0.005964200817790416
0.13326683291770575,0.01472160905854233
0.13331670822942643,0.0034379613856170277
0.13336658354114714,-0.02446123566172484
0.13341645885286782,-0.0018538785543232047
0.13346633416458853,0.0024971538727748873
0.13351620947630924,-0.014041267136670067
0.13356608478802992,-0.004769987172249496
0.13361596009975063,-0.03068704508093518
0.1336658354114713,-0.0013497271413581767
0.13371571072319202,0.0230366334541474
0.13376558603491273,0.0006851586343465848
0.1338154613466334,-0.013897984391407167
0.13386533665835412,0.0039237839038446165
0.1339152119700748,0.00020852031287630886
0.13396508728179551,-0.013079969831350902
0.1340149625935162,0.017097347910588555
0.1340648379052369,-0.01245000963377302
0.13411471321695762,0.013571684110516255
0.1341645885286783,-0.022233148947203303
0.134214463840399,-0.029392680275428233
0.1342643391521197,-0.00422407027026038
0.1343142144638404,0.007252949486798117
0.1343640897755611,-0.014328273659155602
0.1344139650872818,0.01404471779714867
0.1344638403990025,-0.018403483842300884
0.13451371571072318,-0.006399471284085737
0.1345635910224439,0.006254129904451823
0.1346134663341646,0.00851466719961012
0.13466334164588528,-0.004064543122888683
0.134713216957606,0.02433938297082551
0.13476309226932667,-0.008868350583904437
0.13481296758104738,0.006055591257948785
0.1348628428927681,-0.026627628770357667
0.13491271820448877,0.02353413731742576
0.13496259351620948,0.00517033156944389
0.13501246882793017,-0.003126314366822339
0.13506234413965088,-0.009476151871830152
0.13511221945137158,-0.043667770025869246
0.13516209476309227,-0.018837423767065965
0.13521197007481298,-0.014963244565900369
0.13526184538653366,0.0009391587344911244
0.13531172069825437,-0.01113573348568924
0.13536159600997505,-0.018416651533871335
0.13541147132169576,0.0005597416920729995
0.13546134663341647,0.004635592384997863
0.13551122194513715,0.02138537357022905
0.13556109725685786,0.014704722366658483
0.13561097256857854,0.015453858541687394
0.13566084788029925,0.006765923809541738
0.13571072319201996,0.014856962149566642
0.13576059850374064,0.001830559065992424
0.13581047381546135,0.019032646488377436
0.13586034912718203,0.013649163691336305
0.13591022443890274,-0.017642534673242012
0.13596009975062345,0.02139124453977593
0.13600997506234414,-0.008083280144495645
0.13605985037406484,0.01170632614523148
0.13610972568578553,0.015090743368182391
0.13615960099750624,-0.012059011957560473
0.13620947630922695,0.025974866057232773
0.13625935162094763,0.012637258660544224
0.13630922693266834,0.009180052183527054
0.13635910224438902,0.0008938954158783253
0.13640897755610973,-0.002830283787026792
0.1364588528678304,0.027085019522292947
0.13650872817955112,0.0038106290955139763
0.13655860349127183,0.010166851814444171
0.1366084788029925,0.03401623439972182
0.13665835411471322,-0.010042850182491764
0.1367082294264339,-0.0006316969014612175
0.1367581047381546,0.010074414470657671
0.13680798004987532,0.022835494554645636
0.136857855361596,0.01233404661542793
0.1369077306733167,0.0035379340071210845
0.1369576059850374,0.02639003691498218
0.1370074812967581,0.009473448206720901
0.13705735660847881,0.024984797895864743
0.1371072319201995,0.04019089951046417
0.1371571072319202,0.02304736614432267
0.1372069825436409,0.021550171766286076
0.1372568578553616,0.0333281124838438
0.1373067331670823,0.04044893547809717
0.137356608478803,0.004900791587478906
0.1374064837905237,-0.0006811799183931017
0.13745635910224438,0.03450986770143741
0.1375062344139651,0.02301583183153865
0.1375561097256858,0.010041878663034578
0.13760598503740648,0.03289697171712539
0.1376558603491272,0.016058161997968553
0.13770573566084787,0.013747940014823025
0.13775561097256858,0.019472534940647344
0.13780548628428926,0.03835190271311904
0.13785536159600997,0.02190517201225366
0.13790523690773068,0.03009587057119123
0.13795511221945136,0.023307182939492334
0.13800498753117207,0.011971855051688287
0.13805486284289276,0.026615119322194104
0.13810473815461347,0.011362555049932973
0.13815461346633418,0.03188560927958153
0.13820448877805486,0.03881358733517602
0.13825436408977557,-0.0037697161996473744
0.13830423940149625,0.05347907852961563
0.13835411471321696,0.02238649518784732
0.13840399002493767,0.017047948561933743
0.13845386533665835,0.027153793621724397
0.13850374064837906,0.026291637592823987
0.13855361596009974,0.044256310264300436
0.13860349127182045,0.023580974947050293
0.13865336658354116,0.0205799475825316
0.13870324189526184,0.040064695077178025
0.13875311720698255,0.018008806828092014
0.13880299251870323,0.01604810761730506
0.13885286783042394,0.04442457531463942
0.13890274314214462,0.04239545732426703
0.13895261845386533,0.021888069212229803
0.13900249376558604,0.02256316634063763
0.13905236907730673,0.016327783805358233
0.13910224438902744,0.026846657439440435
0.13915211970074812,0.015293304034049564
0.13920199501246883,0.014994830967796087
0.13925187032418954,0.019283536484058485
0.13930174563591022,0.030382117446719283
0.13935162094763093,0.05556818732947234
0.1394014962593516,0.00466784041354713
0.13945137157107232,0.03616451048075817
0.13950124688279303,0.03582203083119084
0.1395511221945137,0.028900747903333735
0.13960099750623442,0.031269756255480716
0.1396508728179551,0.01855288347835765
0.1397007481296758,0.035856725361054366
0.13975062344139652,0.04018821968862642
0.1398004987531172,0.031189931341068507
0.1398503740648379,0.018927535011391945
0.1399002493765586,0.028227253904547868
0.1399501246882793,0.04186175987180052
0.14,0.02486493728088822
0.1400498753117207,0.046000914813990754
0.1400997506234414,0.03849768864363691
0.1401496259351621,0.049826838194575604
0.1401995012468828,0.044495932485288825
0.14024937655860348,0.052891499598840805
0.1402992518703242,0.03414151559447342
0.1403491271820449,0.04035754743129105
0.14039900249376558,0.040572747890067
0.1404488778054863,-0.005710178639451835
0.14049875311720697,0.028084565172595704
0.14054862842892768,0.0546886449903634
0.1405985037406484,0.03157820252622015
0.14064837905236907,0.026605650376928504
0.14069825436408978,0.026265081350409336
0.14074812967581046,0.008075591472792017
0.14079800498753117,0.056488497309431576
0.14084788029925188,-0.008936879768659069
0.14089775561097256,0.034449932958029554
0.14094763092269327,0.014779212553010044
0.14099750623441396,0.003993798811624913
0.14104738154613466,0.025293061369482308
0.14109725685785537,0.023322302596094423
0.14114713216957606,0.01346148596526816
0.14119700748129677,0.013768170412618477
0.14124688279301745,0.031799857749245736
0.14129675810473816,0.012350395166195512
0.14134663341645887,0.019827228194148953
0.14139650872817955,0.035845213104439735
0.14144638403990026,0.02376463815062899
0.14149625935162094,0.009283348780958156
0.14154613466334165,0.015609396105634991
0.14159600997506233,0.025004470453084373
0.14164588528678304,0.011289796942596204
0.14169576059850375,0.04483265188404801
0.14174563591022443,0.016972897309776386
0.14179551122194514,0.016403182468357487
0.14184538653366582,0.0024307014106000856
0.14189526184538653,0.04542230779418499
0.14194513715710724,0.03559904598156235
0.14199501246882792,0.028278013796772177
0.14204488778054863,0.029587271452549208
0.14209476309226932,0.018714410022223658
0.14214463840399003,0.032651331753145135
0.14219451371571074,0.03259086642549497
0.14224438902743142,0.03205257104128212
0.14229426433915213,0.019444054540823343
0.1423441396508728,0.0018068986734292476
0.14239401496259352,0.0006544752344864561
0.14244389027431423,0.03594413824379595
0.1424937655860349,0.0387355620269574
0.14254364089775562,-0.0028819481192042737
0.1425935162094763,0.04393681672716221
0.142643391521197,0.028330748405264523
0.1426932668329177,0.034949943030530416
0.1427431421446384,0.028929787030851195
0.1427930174563591,0.0038365210305286272
0.1428428927680798,0.008768474870181963
0.1428927680798005,0.0004896131486632933
0.14294264339152118,0.02634461428354997
0.1429925187032419,0.011005931430642924
0.1430423940149626,0.04938818478703574
0.14309226932668329,0.016746626781261584
0.143142144638404,0.02986619949444386
0.14319201995012468,0.02650810214831605
0.1432418952618454,0.008974260756592724
0.1432917705735661,0.043214601322304064
0.14334164588528678,0.03355329490711216
0.1433915211970075,0.0443868641232984
0.14344139650872817,0.06337375703182584
0.14349127182044888,0.015935892653953593
0.1435411471321696,0.026943764021127765
0.14359102244389027,0.0074232823207859185
0.14364089775561098,0.02469204157634744
0.14369077306733166,0.023890992714248657
0.14374064837905237,0.025490814116032046
0.14379052369077308,0.04387080790792426
0.14384039900249376,0.02981651199437183
0.14389027431421447,0.03358315498705472
0.14394014962593515,0.014985046506767272
0.14399002493765586,0.05419345241520772
0.14403990024937655,0.03795193598295547
0.14408977556109726,0.0032149120175242393
0.14413965087281796,0.010620017434539688
0.14418952618453865,0.02999388102330592
0.14423940149625936,0.03681543979421963
0.14428927680798004,0.014070143605172046
0.14433915211970075,0.01810042869975028
0.14438902743142146,0.04579610356220763
0.14443890274314214,0.02143173822259416
0.14448877805486285,0.017917216809922917
0.14453865336658353,0.023985093252242778
0.14458852867830424,0.026375358956758035
0.14463840399002495,0.0458497667798681
0.14468827930174563,0.008579226752849724
0.14473815461346634,0.014746559864852661
0.14478802992518702,0.0299294853507758
0.14483790523690773,0.010747574125252212
0.14488778054862844,0.0314919957772835
